[1.285387, 1.292555, 1.714533, 2.087196, 2.082451, 1.507284, 1.28575, 1.292918, 1.705041, 2.08371, 2.131474, 1.579872, 1.279766, 1.30264, 1.665818, 2.108698, 2.13254, 1.625403, 1.280672, 1.291466, 1.633701, 2.093006, 2.138843, 1.670928, 1.282395, 1.286656, 1.580999, 2.07403, 2.146795, 1.722607, 1.279675, 1.287019, 1.56027, 2.094265, 2.194631, 1.776966, 1.292374, 1.282213, 1.482154, 1.95562, 2.051003, 1.678311, 1.272158, 1.266366, 1.552871, 2.07103, 2.312477, 2.128275, 1.540706, 1.361788, 1.632569, 2.138746, 2.299549, 1.985701, 1.392637, 1.286656, 1.393557, 1.945794, 2.146116, 1.945024, 1.344488, 1.282485, 1.348969, 1.887132, 2.127403, 1.960823, 1.367013, 1.281035, 1.315834, 1.852501, 2.103273, 2.015916, 1.402025, 1.269533, 1.49136, 2.00259, 2.154942, 1.787176, 1.295552, 1.269261, 1.42545, 1.974223, 2.159501, 1.850968, 1.314195, 1.270709, 1.400091, 1.941365, 2.147473, 1.877053, 1.324219, 1.277138, 1.364995, 1.915769, 2.120715, 1.920962, 1.690626, 2.134771, 1.870816, 1.308097, 1.275961, 1.370773, 1.930968, 2.114415, 1.914711, 1.323215, 1.2804, 1.340558, 1.881372, 2.093781, 1.946083, 1.348878, 1.272791, 1.327228, 1.850776, 2.119164, 1.984061, 1.372516, 1.272158, 1.328049, 1.810578, 2.094652, 1.991876, 1.411793, 1.273606, 1.305459, 1.689015, 1.992648, 1.889725, 1.318567, 1.27252, 1.35208, 1.785649, 2.242994, 2.31481, 1.746095, 1.353087, 1.379125, 1.851639, 2.210651, 2.181624, 1.569551, 1.279041, 1.290014, 1.636909, 2.090875, 2.104145, 1.554556, 1.281306, 1.282848, 1.605342, 2.033115, 2.112671, 1.593398, 1.273153, 1.267542, 1.564113, 2.039882, 2.118873, 1.63238, 1.28448, 1.273244, 1.499272, 2.01437, 2.115675, 1.690721, 1.280038, 1.276414, 1.443107, 1.965932, 2.094943, 1.746666, 1.28711, 1.276595, 1.396685, 1.942809, 2.104823, 1.812107, 1.285387, 1.267633, 1.366371, 1.912499, 2.10027, 1.843783, 1.279132, 1.278678, 1.605719, 2.043363, 2.08981, 1.500296, 1.275327, 1.281125, 1.545477, 2.026737, 2.059998, 1.532013, 1.27089, 1.271343, 1.501321, 1.99786, 2.043073, 1.545851, 1.272972, 1.273425, 1.448754, 1.968052, 2.041719, 1.60873, 1.273878, 1.27089, 1.370865, 1.936647, 2.040946, 1.702764, 1.28312, 1.271886, 1.387119, 1.930776, 2.064449, 1.767145, 1.291375, 1.276957, 1.390153, 1.931738, 2.100851, 1.855952, 1.306277, 1.273968, 1.360047, 1.912211, 2.135934, 1.895296, 1.317656, 1.272429, 1.364812, 1.871488, 2.135643, 1.936166, 1.357024, 1.279313, 1.320299, 1.829134, 2.119551, 1.972294, 1.373525, 1.281941, 1.315925, 1.767526, 2.088164, 1.99564, 1.394845, 1.280038, 1.305549, 1.747904, 2.100076, 2.047617, 1.430161, 1.274874, 1.30364, 1.708457, 2.07645, 2.075772, 1.48076, 1.273968, 1.283754, 1.645876, 2.077902, 2.071126, 1.523327, 1.276867, 1.282394, 1.618335, 2.069191, 1.932027, 1.341289, 1.267633, 1.315743, 1.819279, 2.094071, 1.971812, 1.371782, 1.278225, 1.304094, 1.735915, 2.07161, 1.998246, 1.398802, 1.28031, 1.301276, 1.737057, 2.079354, 2.035726, 1.434043, 1.279313, 1.302731, 1.696694, 2.068707, 2.046941, 1.444218, 1.270438, 1.290921, 1.644932, 2.071997, 2.073159, 1.5237, 1.278316, 1.286384, 1.62578, 2.09688, 2.092328, 1.576962, 1.280944, 1.279675, 1.605342, 2.07887, 2.095427, 1.595278, 1.283029, 1.284298, 1.570957, 2.06203, 2.139328, 1.682573, 1.27886, 1.273968, 1.530612, 2.039979, 2.139231, 1.708267, 1.288199, 1.272067, 1.483176, 2.003458, 2.145631, 1.780019, 1.288108, 1.268718, 1.416127, 1.944061, 2.108602, 1.741813, 1.2804, 1.265824, 1.296279, 1.840335, 2.222013, 1.93761, 1.397145, 1.367929, 1.597441, 2.138843, 2.333668, 2.067449, 1.413914, 1.295915, 1.3562, 1.895392, 2.10153, 1.946276, 1.344305, 1.284208, 1.330148, 2.043266, 2.115578, 1.666197, 1.28321, 1.273154, 1.490988, 2.000466, 2.123719, 1.733253, 1.291012, 1.270528, 1.424064, 1.950803, 2.129923, 1.790421, 1.291466, 1.274783, 1.378207, 1.921924, 2.111799, 1.853364, 1.297187, 1.270528, 1.350616, 1.882236, 2.094846, 1.885788, 1.304731, 1.27424, 1.322851, 1.843687, 2.060482, 1.911922, 1.329326, 1.274059, 1.320754, 1.838802, 2.075869, 1.954271, 1.360413, 1.274602, 1.304367, 1.749998, 2.053517, 1.967185, 1.383075, 1.275327, 1.286203, 1.678406, 2.033309, 1.947817, 1.393096, 1.267, 1.286112, 1.64125, 2.041526, 1.969691, 1.438112, 1.275508, 1.273244, 1.61033, 2.01495, 2.027607, 1.456629, 1.271343, 1.276232, 1.572927, 2.014467, 2.046844, 1.532387, 1.276142, 1.278769, 1.557085, 2.019877, 2.11083, 1.601109, 1.281125, 1.291375, 1.567675, 2.050616, 2.149122, 1.692901, 1.289106, 1.27261, 1.5209, 2.045877, 2.140588, 1.748285, 1.290921, 1.289016, 1.696599, 2.118292, 2.079838, 1.541267, 1.272067, 1.287473, 1.671685, 2.086712, 2.095233, 1.546787, 1.275327, 1.280853, 1.636909, 2.08342, 2.106179, 1.594808, 1.282032, 1.287201, 1.57152, 2.047908, 2.117613, 1.622858, 1.279947, 1.277682, 1.571614, 2.031666, 2.141267, 1.679068, 1.284117, 1.277591, 1.510826, 2.02838, 2.13128, 1.733157, 1.283482, 1.275327, 1.441164, 1.979141, 2.134286, 1.795195, 1.289651, 1.279222, 1.391901, 1.976537, 2.1402, 1.869953, 1.304549, 1.278135, 1.347323, 1.944253, 2.120812, 1.904424, 1.32203, 1.276051, 1.331425, 1.878876, 2.115094, 1.923752, 1.349518, 1.279494, 1.331882, 1.838515, 2.09688, 1.939054, 1.37325, 1.275327, 1.308006, 1.788703, 2.084775, 1.959089, 1.367746, 1.273878, 1.294553, 1.736296, 2.078095, 2.009252, 1.430808, 1.282032, 1.302094, 1.737152, 2.099786, 2.05729, 1.480945, 1.277772, 1.283664, 1.693849, 2.080806, 2.008962, 1.314741, 1.275961, 1.356291, 1.888477, 2.140006, 1.951285, 1.352172, 1.281306, 1.33599, 1.846273, 2.123041, 1.944831, 1.384637, 1.279766, 1.314195, 1.812108, 2.118679, 1.993999, 1.4358, 1.2804, 1.313922, 1.763619, 2.105017, 2.008576, 1.363712, 1.2651, 1.267814, 1.584848, 1.976441, 2.169688, 1.551935, 1.301367, 1.428128, 1.938958, 2.332988, 2.313254, 1.689868, 1.304367, 1.308279, 1.722987, 2.072384, 2.129535, 1.557647, 1.277229, 1.288925, 1.630117, 2.085453, 2.117419, 1.609954, 1.271162, 1.287654, 1.562238, 2.050035, 2.110249, 1.620596, 1.276504, 1.285024, 1.491825, 2.045007, 2.106955, 1.709406, 1.287019, 1.280944, 1.456629, 2.02094, 2.109764, 1.778206, 1.285477, 1.270528, 1.437464, 1.969787, 2.111702, 1.804843, 1.303913, 1.274512, 1.369122, 1.950418, 2.108698, 1.854419, 1.303549, 1.278769, 1.373067, 1.8879, 2.108989, 1.891838, 1.314104, 1.273606, 1.340009, 1.918173, 2.097558, 1.606001, 1.271252, 1.27886, 1.474535, 1.994771, 2.086518, 1.666954, 1.276142, 1.271705, 1.403498, 1.961209, 2.062417, 1.711495, 1.290104, 1.262388, 1.36078, 1.907116, 2.040075, 1.740957, 1.288471, 1.268809, 1.338639, 1.880316, 2.079257, 1.798442, 1.304458, 1.268718, 1.34961, 1.890781, 2.09533, 1.875709, 1.320481, 1.263925, 1.34266, 1.859019, 2.121005, 1.937514, 1.361146, 1.28584, 1.333068, 1.849339, 2.109183, 1.977309, 1.388314, 1.274964, 1.315925, 1.792904, 2.108311, 2.020553, 1.420095, 1.285568, 1.307642, 1.776871, 2.102789, 2.054098, 1.433118, 1.283029, 1.296097, 1.73002, 2.088551, 2.064546, 1.476764, 1.273335, 1.300276, 1.701246, 2.110152, 2.100948, 1.5322, 1.272791, 1.29855, 1.631532, 2.099495, 2.114319, 1.577994, 1.278859, 1.281397, 1.600544, 2.084194, 2.105889, 1.63823, 1.278769, 1.269623, 1.564207, 2.064352, 2.115287, 1.685036, 1.289288, 1.290558, 1.745049, 2.07945, 2.059515, 1.431362, 1.279856, 1.301094, 1.744192, 2.119649, 2.090004, 1.496944, 1.283301, 1.291738, 1.682762, 2.090295, 2.101723, 1.541361, 1.28448, 1.300185, 1.627571, 2.08797, 2.094749, 1.596689, 1.280672, 1.285568, 1.590391, 2.070546, 2.101917, 1.659483, 1.281307, 1.274783, 1.559615, 2.061063, 2.135159, 1.675565, 1.286294, 1.275779, 1.489965, 2.027896, 2.108117, 1.721277, 1.275055, 1.272701, 1.455517, 1.985893, 2.136419, 1.796914, 1.295915, 1.271705, 1.431732, 1.953982, 2.1563, 1.854035, 1.296914, 1.277591, 1.388498, 1.94175, 2.120521, 1.8952, 1.321119, 1.276595, 1.364262, 1.899812, 2.151353, 1.929621, 1.335625, 1.282213, 1.34961, 1.893567, 2.11616, 1.979816, 1.351714, 1.275146, 1.322212, 1.847615, 2.117517, 2.003652, 1.386108, 1.277954, 1.31629, 1.720707, 1.997474, 1.865348, 1.308643, 1.265462, 1.336538, 1.847519, 2.23464, 2.321419, 1.513996, 1.33389, 1.604872, 2.131959, 2.232891, 1.949165, 1.335716, 1.279222, 1.363896, 1.921732, 2.121684, 1.912018, 1.321483, 1.27089, 1.343026, 1.882332, 2.078095, 1.927119, 1.319387, 1.280763, 1.325951, 1.855473, 2.09688, 1.960245, 1.345311, 1.274964, 1.314741, 1.797774, 2.087777, 1.978466, 1.377564, 1.271705, 1.316199, 1.725647, 2.081193, 1.994964, 1.430069, 1.28321, 1.30064, 1.702479, 2.092618, 2.039786, 1.47983, 1.276504, 1.290195, 1.673388, 2.079063, 2.073255, 1.503184, 1.276957, 1.28031, 1.614285, 2.064159, 2.075191, 1.538556, 1.279585, 1.277863, 1.59603, 2.038142, 2.077514, 1.554182, 1.27587, 1.279041, 1.537995, 1.996219, 2.07374, 1.589827, 1.274512, 1.275327, 1.473699, 1.977309, 2.071223, 1.628514, 1.27089, 1.270619, 1.433303, 1.937321, 2.064255, 1.67566, 1.274783, 1.274331, 1.384821, 1.937803, 2.090488, 1.79023, 1.283029, 1.272972, 1.372241, 1.956872, 2.088164, 1.541454, 1.282032, 1.28457, 1.623329, 2.075481, 2.128178, 1.603931, 1.27741, 1.283573, 1.605248, 2.071804, 2.154651, 1.670833, 1.27252, 1.273063, 1.557647, 2.063094, 2.143885, 1.728309, 1.283482, 1.275689, 1.472678, 2.020553, 2.126821, 1.786507, 1.295007, 1.278225, 1.434228, 1.984254, 2.130893, 1.839664, 1.294553, 1.271976, 1.403591, 1.973837, 2.133898, 1.874942, 1.310281, 1.271071, 1.354186, 1.919712, 2.130505, 1.918173, 1.334438, 1.281488, 1.357024, 1.88502, 2.134577, 1.932701, 1.353087, 1.28176, 1.34266, 1.836696, 2.1275, 1.962558, 1.391625, 1.28312, 1.315015, 1.811152, 2.103273, 2.034469, 1.409488, 1.282122, 1.313011, 1.791089, 2.112186, 2.025288, 1.457834, 1.281669, 1.294644, 1.765906, 2.097461, 2.06232, 1.488383, 1.286203, 1.298004, 1.724507, 2.095427, 2.140297, 1.570957, 1.281216, 1.286475, 1.666291, 2.099398, 2.132832, 1.626723, 1.287201, 1.299367, 1.822053, 2.123622, 1.975187, 1.410133, 1.284389, 1.317201, 1.806946, 2.11616, 2.025384, 1.44931, 1.28176, 1.303276, 1.764095, 2.092425, 2.031086, 1.467294]
[1.287019, 1.56027, 2.094265, 2.194631, 1.776966, 1.292374, 1.282213, 1.482154, 1.95562, 2.051003, 1.678311, 1.272158, 1.266366, 1.552871, 2.07103, 2.312477, 2.128275, 1.540706, 1.361788, 1.632569, 2.138746, 2.299549, 1.985701, 1.392637, 1.286656, 1.393557, 1.945794, 2.146116, 1.945024, 1.344488, 1.282485, 1.348969, 1.887132, 2.127403, 1.960823, 1.367013, 1.281035, 1.315834, 1.852501, 2.103273, 2.015916, 1.402025, 1.269533, 1.49136, 2.00259, 2.154942, 1.787176, 1.295552, 1.269261, 1.42545, 1.974223, 2.159501, 1.850968, 1.314195, 1.270709, 1.400091, 1.941365, 2.147473, 1.877053, 1.324219, 1.277138, 1.364995, 1.915769, 2.120715, 1.920962, 1.690626, 2.134771, 1.870816, 1.308097, 1.275961, 1.370773, 1.930968, 2.114415, 1.914711, 1.323215, 1.2804, 1.340558, 1.881372, 2.093781, 1.946083, 1.348878, 1.272791, 1.327228, 1.850776, 2.119164, 1.984061, 1.372516, 1.272158, 1.328049, 1.810578, 2.094652, 1.991876, 1.411793, 1.273606, 1.305459, 1.689015, 1.992648, 1.889725, 1.318567, 1.27252, 1.35208, 1.785649, 2.242994, 2.31481, 1.746095, 1.353087, 1.379125, 1.851639, 2.210651, 2.181624, 1.569551, 1.279041, 1.290014, 1.636909, 2.090875, 2.104145, 1.554556, 1.281306, 1.282848, 1.605342, 2.033115, 2.112671, 1.593398, 1.273153, 1.267542, 1.564113, 2.039882, 2.118873, 1.63238, 1.28448, 1.273244, 1.499272, 2.01437, 2.115675, 1.690721, 1.280038, 1.276414, 1.443107, 1.965932, 2.094943, 1.746666, 1.28711, 1.276595, 1.396685, 1.942809, 2.104823, 1.812107, 1.285387, 1.267633, 1.366371, 1.912499, 2.10027, 1.843783, 1.279132, 1.278678, 1.605719, 2.043363, 2.08981, 1.500296, 1.275327, 1.281125, 1.545477, 2.026737, 2.059998, 1.532013, 1.27089, 1.271343, 1.501321, 1.99786, 2.043073, 1.545851, 1.272972, 1.273425, 1.448754, 1.968052, 2.041719, 1.60873, 1.273878, 1.27089, 1.370865, 1.936647, 2.040946, 1.702764, 1.28312, 1.271886, 1.387119, 1.930776, 2.064449, 1.767145, 1.291375, 1.276957, 1.390153, 1.931738, 2.100851, 1.855952, 1.306277, 1.273968, 1.360047, 1.912211, 2.135934, 1.895296, 1.317656, 1.272429, 1.364812, 1.871488, 2.135643, 1.936166, 1.357024, 1.279313, 1.320299, 1.829134, 2.119551, 1.972294, 1.373525, 1.281941, 1.315925, 1.767526, 2.088164, 1.99564, 1.394845, 1.280038, 1.305549, 1.747904, 2.100076, 2.047617, 1.430161, 1.274874, 1.30364, 1.708457, 2.07645, 2.075772, 1.48076, 1.273968, 1.283754, 1.645876, 2.077902, 2.071126, 1.523327, 1.276867, 1.282394, 1.618335, 2.069191, 1.932027, 1.341289, 1.267633, 1.315743, 1.819279, 2.094071, 1.971812, 1.371782, 1.278225, 1.304094, 1.735915, 2.07161, 1.998246, 1.398802, 1.28031, 1.301276, 1.737057, 2.079354, 2.035726, 1.434043, 1.279313, 1.302731, 1.696694, 2.068707, 2.046941, 1.444218, 1.270438, 1.290921, 1.644932, 2.071997, 2.073159, 1.5237, 1.278316, 1.286384, 1.62578, 2.09688, 2.092328, 1.576962, 1.280944, 1.279675, 1.605342, 2.07887, 2.095427, 1.595278, 1.283029, 1.284298, 1.570957, 2.06203, 2.139328, 1.682573, 1.27886, 1.273968, 1.530612, 2.039979, 2.139231, 1.708267, 1.288199, 1.272067, 1.483176, 2.003458, 2.145631, 1.780019, 1.288108, 1.268718, 1.416127, 1.944061, 2.108602, 1.741813, 1.2804, 1.265824, 1.296279, 1.840335, 2.222013, 1.93761, 1.397145, 1.367929, 1.597441, 2.138843, 2.333668, 2.067449, 1.413914, 1.295915, 1.3562, 1.895392, 2.10153, 1.946276, 1.344305, 1.284208, 1.330148, 2.043266, 2.115578, 1.666197, 1.28321, 1.273154, 1.490988, 2.000466, 2.123719, 1.733253, 1.291012, 1.270528, 1.424064, 1.950803, 2.129923, 1.790421, 1.291466, 1.274783, 1.378207, 1.921924, 2.111799, 1.853364, 1.297187, 1.270528, 1.350616, 1.882236, 2.094846, 1.885788, 1.304731, 1.27424, 1.322851, 1.843687, 2.060482, 1.911922, 1.329326, 1.274059, 1.320754, 1.838802, 2.075869, 1.954271, 1.360413, 1.274602, 1.304367, 1.749998, 2.053517, 1.967185, 1.383075, 1.275327, 1.286203, 1.678406, 2.033309, 1.947817, 1.393096, 1.267, 1.286112, 1.64125, 2.041526, 1.969691, 1.438112, 1.275508, 1.273244, 1.61033, 2.01495, 2.027607, 1.456629, 1.271343, 1.276232, 1.572927, 2.014467, 2.046844, 1.532387, 1.276142, 1.278769, 1.557085, 2.019877, 2.11083, 1.601109, 1.281125, 1.291375, 1.567675, 2.050616, 2.149122, 1.692901, 1.289106, 1.27261, 1.5209, 2.045877, 2.140588, 1.748285, 1.290921, 1.289016, 1.696599, 2.118292, 2.079838, 1.541267, 1.272067, 1.287473, 1.671685, 2.086712, 2.095233, 1.546787, 1.275327, 1.280853, 1.636909, 2.08342, 2.106179, 1.594808, 1.282032, 1.287201, 1.57152, 2.047908, 2.117613, 1.622858, 1.279947, 1.277682, 1.571614, 2.031666, 2.141267, 1.679068, 1.284117, 1.277591, 1.510826, 2.02838, 2.13128, 1.733157, 1.283482, 1.275327, 1.441164, 1.979141, 2.134286, 1.795195, 1.289651, 1.279222, 1.391901, 1.976537, 2.1402, 1.869953, 1.304549, 1.278135, 1.347323, 1.944253, 2.120812, 1.904424, 1.32203, 1.276051, 1.331425, 1.878876, 2.115094, 1.923752, 1.349518, 1.279494, 1.331882, 1.838515, 2.09688, 1.939054, 1.37325, 1.275327, 1.308006, 1.788703, 2.084775, 1.959089, 1.367746, 1.273878, 1.294553, 1.736296, 2.078095, 2.009252, 1.430808, 1.282032, 1.302094, 1.737152, 2.099786, 2.05729, 1.480945, 1.277772, 1.283664, 1.693849, 2.080806, 2.008962, 1.314741, 1.275961, 1.356291, 1.888477, 2.140006, 1.951285, 1.352172, 1.281306, 1.33599, 1.846273, 2.123041, 1.944831, 1.384637, 1.279766, 1.314195, 1.812108, 2.118679, 1.993999, 1.4358, 1.2804, 1.313922, 1.763619, 2.105017, 2.008576, 1.363712, 1.2651, 1.267814, 1.584848, 1.976441, 2.169688, 1.551935, 1.301367, 1.428128, 1.938958, 2.332988, 2.313254, 1.689868, 1.304367, 1.308279, 1.722987, 2.072384, 2.129535, 1.557647, 1.277229, 1.288925, 1.630117, 2.085453, 2.117419, 1.609954, 1.271162, 1.287654, 1.562238, 2.050035, 2.110249, 1.620596, 1.276504, 1.285024, 1.491825, 2.045007, 2.106955, 1.709406, 1.287019, 1.280944, 1.456629, 2.02094, 2.109764, 1.778206, 1.285477, 1.270528, 1.437464, 1.969787, 2.111702, 1.804843, 1.303913, 1.274512, 1.369122, 1.950418, 2.108698, 1.854419, 1.303549, 1.278769, 1.373067, 1.8879, 2.108989, 1.891838, 1.314104, 1.273606, 1.340009, 1.918173, 2.097558, 1.606001, 1.271252, 1.27886, 1.474535, 1.994771, 2.086518, 1.666954, 1.276142, 1.271705, 1.403498, 1.961209, 2.062417, 1.711495, 1.290104, 1.262388, 1.36078, 1.907116, 2.040075, 1.740957, 1.288471, 1.268809, 1.338639, 1.880316, 2.079257, 1.798442, 1.304458, 1.268718, 1.34961, 1.890781, 2.09533, 1.875709, 1.320481, 1.263925, 1.34266, 1.859019, 2.121005, 1.937514, 1.361146, 1.28584, 1.333068, 1.849339, 2.109183, 1.977309, 1.388314, 1.274964, 1.315925, 1.792904, 2.108311, 2.020553, 1.420095, 1.285568, 1.307642, 1.776871, 2.102789, 2.054098, 1.433118, 1.283029, 1.296097, 1.73002, 2.088551, 2.064546, 1.476764, 1.273335, 1.300276, 1.701246, 2.110152, 2.100948, 1.5322, 1.272791, 1.29855, 1.631532, 2.099495, 2.114319, 1.577994, 1.278859, 1.281397, 1.600544, 2.084194, 2.105889, 1.63823, 1.278769, 1.269623, 1.564207, 2.064352, 2.115287, 1.685036, 1.289288, 1.290558, 1.745049, 2.07945, 2.059515, 1.431362, 1.279856, 1.301094, 1.744192, 2.119649, 2.090004, 1.496944, 1.283301, 1.291738, 1.682762, 2.090295, 2.101723, 1.541361, 1.28448, 1.300185, 1.627571, 2.08797, 2.094749, 1.596689, 1.280672, 1.285568, 1.590391, 2.070546, 2.101917, 1.659483, 1.281307, 1.274783, 1.559615, 2.061063, 2.135159, 1.675565, 1.286294, 1.275779, 1.489965, 2.027896, 2.108117, 1.721277, 1.275055, 1.272701, 1.455517, 1.985893, 2.136419, 1.796914, 1.295915, 1.271705, 1.431732, 1.953982, 2.1563, 1.854035, 1.296914, 1.277591, 1.388498, 1.94175, 2.120521, 1.8952, 1.321119, 1.276595, 1.364262, 1.899812, 2.151353, 1.929621, 1.335625, 1.282213, 1.34961, 1.893567, 2.11616, 1.979816, 1.351714, 1.275146, 1.322212, 1.847615, 2.117517, 2.003652, 1.386108, 1.277954, 1.31629, 1.720707, 1.997474, 1.865348, 1.308643, 1.265462, 1.336538, 1.847519, 2.23464, 2.321419, 1.513996, 1.33389, 1.604872, 2.131959, 2.232891, 1.949165, 1.335716, 1.279222, 1.363896, 1.921732, 2.121684, 1.912018, 1.321483, 1.27089, 1.343026, 1.882332, 2.078095, 1.927119, 1.319387, 1.280763, 1.325951, 1.855473, 2.09688, 1.960245, 1.345311, 1.274964, 1.314741, 1.797774, 2.087777, 1.978466, 1.377564, 1.271705, 1.316199, 1.725647, 2.081193, 1.994964, 1.430069, 1.28321, 1.30064, 1.702479, 2.092618, 2.039786, 1.47983, 1.276504, 1.290195, 1.673388, 2.079063, 2.073255, 1.503184, 1.276957, 1.28031, 1.614285, 2.064159, 2.075191, 1.538556, 1.279585, 1.277863, 1.59603, 2.038142, 2.077514, 1.554182, 1.27587, 1.279041, 1.537995, 1.996219, 2.07374, 1.589827, 1.274512, 1.275327, 1.473699, 1.977309, 2.071223, 1.628514, 1.27089, 1.270619, 1.433303, 1.937321, 2.064255, 1.67566, 1.274783, 1.274331, 1.384821, 1.937803, 2.090488, 1.79023, 1.283029, 1.272972, 1.372241, 1.956872, 2.088164, 1.541454, 1.282032, 1.28457, 1.623329, 2.075481, 2.128178, 1.603931, 1.27741, 1.283573, 1.605248, 2.071804, 2.154651, 1.670833, 1.27252, 1.273063, 1.557647, 2.063094, 2.143885, 1.728309, 1.283482, 1.275689, 1.472678, 2.020553, 2.126821, 1.786507, 1.295007, 1.278225, 1.434228, 1.984254, 2.130893, 1.839664, 1.294553, 1.271976, 1.403591, 1.973837, 2.133898, 1.874942, 1.310281, 1.271071, 1.354186, 1.919712, 2.130505, 1.918173, 1.334438, 1.281488, 1.357024, 1.88502, 2.134577, 1.932701, 1.353087, 1.28176, 1.34266, 1.836696, 2.1275, 1.962558, 1.391625, 1.28312, 1.315015, 1.811152, 2.103273, 2.034469, 1.409488, 1.282122, 1.313011, 1.791089, 2.112186, 2.025288, 1.457834, 1.281669, 1.294644, 1.765906, 2.097461, 2.06232, 1.488383, 1.286203, 1.298004, 1.724507, 2.095427, 2.140297, 1.570957, 1.281216, 1.286475, 1.666291, 2.099398, 2.132832, 1.626723, 1.287201, 1.299367, 1.822053, 2.123622, 1.975187, 1.410133, 1.284389, 1.317201, 1.806946, 2.11616, 2.025384, 1.44931, 1.28176, 1.303276, 1.764095, 2.092425, 2.031086, 1.467294, 1.285387, 1.292555, 1.714533, 2.087196, 2.082451, 1.507284, 1.28575, 1.292918, 1.705041, 2.08371, 2.131474, 1.579872, 1.279766, 1.30264, 1.665818, 2.108698, 2.13254, 1.625403, 1.280672, 1.291466, 1.633701, 2.093006, 2.138843, 1.670928, 1.282395, 1.286656, 1.580999, 2.07403, 2.146795, 1.722607, 1.279675]
[1.918173, 1.334438, 1.281488, 1.357024, 1.88502, 2.134577, 1.932701, 1.353087, 1.28176, 1.34266, 1.836696, 2.1275, 1.962558, 1.391625, 1.28312, 1.315015, 1.811152, 2.103273, 2.034469, 1.409488, 1.282122, 1.313011, 1.791089, 2.112186, 2.025288, 1.457834, 1.281669, 1.294644, 1.765906, 2.097461, 2.06232, 1.488383, 1.286203, 1.298004, 1.724507, 2.095427, 2.140297, 1.570957, 1.281216, 1.286475, 1.666291, 2.099398, 2.132832, 1.626723, 1.287201, 1.299367, 1.822053, 2.123622, 1.975187, 1.410133, 1.284389, 1.317201, 1.806946, 2.11616, 2.025384, 1.44931, 1.28176, 1.303276, 1.764095, 2.092425, 2.031086, 1.467294, 1.285387, 1.292555, 1.714533, 2.087196, 2.082451, 1.507284, 1.28575, 1.292918, 1.705041, 2.08371, 2.131474, 1.579872, 1.279766, 1.30264, 1.665818, 2.108698, 2.13254, 1.625403, 1.280672, 1.291466, 1.633701, 2.093006, 2.138843, 1.670928, 1.282395, 1.286656, 1.580999, 2.07403, 2.146795, 1.722607, 1.279675, 1.287019, 1.56027, 2.094265, 2.194631, 1.776966, 1.292374, 1.282213, 1.482154, 1.95562, 2.051003, 1.678311, 1.272158, 1.266366, 1.552871, 2.07103, 2.312477, 2.128275, 1.540706, 1.361788, 1.632569, 2.138746, 2.299549, 1.985701, 1.392637, 1.286656, 1.393557, 1.945794, 2.146116, 1.945024, 1.344488, 1.282485, 1.348969, 1.887132, 2.127403, 1.960823, 1.367013, 1.281035, 1.315834, 1.852501, 2.103273, 2.015916, 1.402025, 1.269533, 1.49136, 2.00259, 2.154942, 1.787176, 1.295552, 1.269261, 1.42545, 1.974223, 2.159501, 1.850968, 1.314195, 1.270709, 1.400091, 1.941365, 2.147473, 1.877053, 1.324219, 1.277138, 1.364995, 1.915769, 2.120715, 1.920962, 1.690626, 2.134771, 1.870816, 1.308097, 1.275961, 1.370773, 1.930968, 2.114415, 1.914711, 1.323215, 1.2804, 1.340558, 1.881372, 2.093781, 1.946083, 1.348878, 1.272791, 1.327228, 1.850776, 2.119164, 1.984061, 1.372516, 1.272158, 1.328049, 1.810578, 2.094652, 1.991876, 1.411793, 1.273606, 1.305459, 1.689015, 1.992648, 1.889725, 1.318567, 1.27252, 1.35208, 1.785649, 2.242994, 2.31481, 1.746095, 1.353087, 1.379125, 1.851639, 2.210651, 2.181624, 1.569551, 1.279041, 1.290014, 1.636909, 2.090875, 2.104145, 1.554556, 1.281306, 1.282848, 1.605342, 2.033115, 2.112671, 1.593398, 1.273153, 1.267542, 1.564113, 2.039882, 2.118873, 1.63238, 1.28448, 1.273244, 1.499272, 2.01437, 2.115675, 1.690721, 1.280038, 1.276414, 1.443107, 1.965932, 2.094943, 1.746666, 1.28711, 1.276595, 1.396685, 1.942809, 2.104823, 1.812107, 1.285387, 1.267633, 1.366371, 1.912499, 2.10027, 1.843783, 1.279132, 1.278678, 1.605719, 2.043363, 2.08981, 1.500296, 1.275327, 1.281125, 1.545477, 2.026737, 2.059998, 1.532013, 1.27089, 1.271343, 1.501321, 1.99786, 2.043073, 1.545851, 1.272972, 1.273425, 1.448754, 1.968052, 2.041719, 1.60873, 1.273878, 1.27089, 1.370865, 1.936647, 2.040946, 1.702764, 1.28312, 1.271886, 1.387119, 1.930776, 2.064449, 1.767145, 1.291375, 1.276957, 1.390153, 1.931738, 2.100851, 1.855952, 1.306277, 1.273968, 1.360047, 1.912211, 2.135934, 1.895296, 1.317656, 1.272429, 1.364812, 1.871488, 2.135643, 1.936166, 1.357024, 1.279313, 1.320299, 1.829134, 2.119551, 1.972294, 1.373525, 1.281941, 1.315925, 1.767526, 2.088164, 1.99564, 1.394845, 1.280038, 1.305549, 1.747904, 2.100076, 2.047617, 1.430161, 1.274874, 1.30364, 1.708457, 2.07645, 2.075772, 1.48076, 1.273968, 1.283754, 1.645876, 2.077902, 2.071126, 1.523327, 1.276867, 1.282394, 1.618335, 2.069191, 1.932027, 1.341289, 1.267633, 1.315743, 1.819279, 2.094071, 1.971812, 1.371782, 1.278225, 1.304094, 1.735915, 2.07161, 1.998246, 1.398802, 1.28031, 1.301276, 1.737057, 2.079354, 2.035726, 1.434043, 1.279313, 1.302731, 1.696694, 2.068707, 2.046941, 1.444218, 1.270438, 1.290921, 1.644932, 2.071997, 2.073159, 1.5237, 1.278316, 1.286384, 1.62578, 2.09688, 2.092328, 1.576962, 1.280944, 1.279675, 1.605342, 2.07887, 2.095427, 1.595278, 1.283029, 1.284298, 1.570957, 2.06203, 2.139328, 1.682573, 1.27886, 1.273968, 1.530612, 2.039979, 2.139231, 1.708267, 1.288199, 1.272067, 1.483176, 2.003458, 2.145631, 1.780019, 1.288108, 1.268718, 1.416127, 1.944061, 2.108602, 1.741813, 1.2804, 1.265824, 1.296279, 1.840335, 2.222013, 1.93761, 1.397145, 1.367929, 1.597441, 2.138843, 2.333668, 2.067449, 1.413914, 1.295915, 1.3562, 1.895392, 2.10153, 1.946276, 1.344305, 1.284208, 1.330148, 2.043266, 2.115578, 1.666197, 1.28321, 1.273154, 1.490988, 2.000466, 2.123719, 1.733253, 1.291012, 1.270528, 1.424064, 1.950803, 2.129923, 1.790421, 1.291466, 1.274783, 1.378207, 1.921924, 2.111799, 1.853364, 1.297187, 1.270528, 1.350616, 1.882236, 2.094846, 1.885788, 1.304731, 1.27424, 1.322851, 1.843687, 2.060482, 1.911922, 1.329326, 1.274059, 1.320754, 1.838802, 2.075869, 1.954271, 1.360413, 1.274602, 1.304367, 1.749998, 2.053517, 1.967185, 1.383075, 1.275327, 1.286203, 1.678406, 2.033309, 1.947817, 1.393096, 1.267, 1.286112, 1.64125, 2.041526, 1.969691, 1.438112, 1.275508, 1.273244, 1.61033, 2.01495, 2.027607, 1.456629, 1.271343, 1.276232, 1.572927, 2.014467, 2.046844, 1.532387, 1.276142, 1.278769, 1.557085, 2.019877, 2.11083, 1.601109, 1.281125, 1.291375, 1.567675, 2.050616, 2.149122, 1.692901, 1.289106, 1.27261, 1.5209, 2.045877, 2.140588, 1.748285, 1.290921, 1.289016, 1.696599, 2.118292, 2.079838, 1.541267, 1.272067, 1.287473, 1.671685, 2.086712, 2.095233, 1.546787, 1.275327, 1.280853, 1.636909, 2.08342, 2.106179, 1.594808, 1.282032, 1.287201, 1.57152, 2.047908, 2.117613, 1.622858, 1.279947, 1.277682, 1.571614, 2.031666, 2.141267, 1.679068, 1.284117, 1.277591, 1.510826, 2.02838, 2.13128, 1.733157, 1.283482, 1.275327, 1.441164, 1.979141, 2.134286, 1.795195, 1.289651, 1.279222, 1.391901, 1.976537, 2.1402, 1.869953, 1.304549, 1.278135, 1.347323, 1.944253, 2.120812, 1.904424, 1.32203, 1.276051, 1.331425, 1.878876, 2.115094, 1.923752, 1.349518, 1.279494, 1.331882, 1.838515, 2.09688, 1.939054, 1.37325, 1.275327, 1.308006, 1.788703, 2.084775, 1.959089, 1.367746, 1.273878, 1.294553, 1.736296, 2.078095, 2.009252, 1.430808, 1.282032, 1.302094, 1.737152, 2.099786, 2.05729, 1.480945, 1.277772, 1.283664, 1.693849, 2.080806, 2.008962, 1.314741, 1.275961, 1.356291, 1.888477, 2.140006, 1.951285, 1.352172, 1.281306, 1.33599, 1.846273, 2.123041, 1.944831, 1.384637, 1.279766, 1.314195, 1.812108, 2.118679, 1.993999, 1.4358, 1.2804, 1.313922, 1.763619, 2.105017, 2.008576, 1.363712, 1.2651, 1.267814, 1.584848, 1.976441, 2.169688, 1.551935, 1.301367, 1.428128, 1.938958, 2.332988, 2.313254, 1.689868, 1.304367, 1.308279, 1.722987, 2.072384, 2.129535, 1.557647, 1.277229, 1.288925, 1.630117, 2.085453, 2.117419, 1.609954, 1.271162, 1.287654, 1.562238, 2.050035, 2.110249, 1.620596, 1.276504, 1.285024, 1.491825, 2.045007, 2.106955, 1.709406, 1.287019, 1.280944, 1.456629, 2.02094, 2.109764, 1.778206, 1.285477, 1.270528, 1.437464, 1.969787, 2.111702, 1.804843, 1.303913, 1.274512, 1.369122, 1.950418, 2.108698, 1.854419, 1.303549, 1.278769, 1.373067, 1.8879, 2.108989, 1.891838, 1.314104, 1.273606, 1.340009, 1.918173, 2.097558, 1.606001, 1.271252, 1.27886, 1.474535, 1.994771, 2.086518, 1.666954, 1.276142, 1.271705, 1.403498, 1.961209, 2.062417, 1.711495, 1.290104, 1.262388, 1.36078, 1.907116, 2.040075, 1.740957, 1.288471, 1.268809, 1.338639, 1.880316, 2.079257, 1.798442, 1.304458, 1.268718, 1.34961, 1.890781, 2.09533, 1.875709, 1.320481, 1.263925, 1.34266, 1.859019, 2.121005, 1.937514, 1.361146, 1.28584, 1.333068, 1.849339, 2.109183, 1.977309, 1.388314, 1.274964, 1.315925, 1.792904, 2.108311, 2.020553, 1.420095, 1.285568, 1.307642, 1.776871, 2.102789, 2.054098, 1.433118, 1.283029, 1.296097, 1.73002, 2.088551, 2.064546, 1.476764, 1.273335, 1.300276, 1.701246, 2.110152, 2.100948, 1.5322, 1.272791, 1.29855, 1.631532, 2.099495, 2.114319, 1.577994, 1.278859, 1.281397, 1.600544, 2.084194, 2.105889, 1.63823, 1.278769, 1.269623, 1.564207, 2.064352, 2.115287, 1.685036, 1.289288, 1.290558, 1.745049, 2.07945, 2.059515, 1.431362, 1.279856, 1.301094, 1.744192, 2.119649, 2.090004, 1.496944, 1.283301, 1.291738, 1.682762, 2.090295, 2.101723, 1.541361, 1.28448, 1.300185, 1.627571, 2.08797, 2.094749, 1.596689, 1.280672, 1.285568, 1.590391, 2.070546, 2.101917, 1.659483, 1.281307, 1.274783, 1.559615, 2.061063, 2.135159, 1.675565, 1.286294, 1.275779, 1.489965, 2.027896, 2.108117, 1.721277, 1.275055, 1.272701, 1.455517, 1.985893, 2.136419, 1.796914, 1.295915, 1.271705, 1.431732, 1.953982, 2.1563, 1.854035, 1.296914, 1.277591, 1.388498, 1.94175, 2.120521, 1.8952, 1.321119, 1.276595, 1.364262, 1.899812, 2.151353, 1.929621, 1.335625, 1.282213, 1.34961, 1.893567, 2.11616, 1.979816, 1.351714, 1.275146, 1.322212, 1.847615, 2.117517, 2.003652, 1.386108, 1.277954, 1.31629, 1.720707, 1.997474, 1.865348, 1.308643, 1.265462, 1.336538, 1.847519, 2.23464, 2.321419, 1.513996, 1.33389, 1.604872, 2.131959, 2.232891, 1.949165, 1.335716, 1.279222, 1.363896, 1.921732, 2.121684, 1.912018, 1.321483, 1.27089, 1.343026, 1.882332, 2.078095, 1.927119, 1.319387, 1.280763, 1.325951, 1.855473, 2.09688, 1.960245, 1.345311, 1.274964, 1.314741, 1.797774, 2.087777, 1.978466, 1.377564, 1.271705, 1.316199, 1.725647, 2.081193, 1.994964, 1.430069, 1.28321, 1.30064, 1.702479, 2.092618, 2.039786, 1.47983, 1.276504, 1.290195, 1.673388, 2.079063, 2.073255, 1.503184, 1.276957, 1.28031, 1.614285, 2.064159, 2.075191, 1.538556, 1.279585, 1.277863, 1.59603, 2.038142, 2.077514, 1.554182, 1.27587, 1.279041, 1.537995, 1.996219, 2.07374, 1.589827, 1.274512, 1.275327, 1.473699, 1.977309, 2.071223, 1.628514, 1.27089, 1.270619, 1.433303, 1.937321, 2.064255, 1.67566, 1.274783, 1.274331, 1.384821, 1.937803, 2.090488, 1.79023, 1.283029, 1.272972, 1.372241, 1.956872, 2.088164, 1.541454, 1.282032, 1.28457, 1.623329, 2.075481, 2.128178, 1.603931, 1.27741, 1.283573, 1.605248, 2.071804, 2.154651, 1.670833, 1.27252, 1.273063, 1.557647, 2.063094, 2.143885, 1.728309, 1.283482, 1.275689, 1.472678, 2.020553, 2.126821, 1.786507, 1.295007, 1.278225, 1.434228, 1.984254, 2.130893, 1.839664, 1.294553, 1.271976, 1.403591, 1.973837, 2.133898, 1.874942, 1.310281, 1.271071, 1.354186, 1.919712, 2.130505]
[1.500296, 1.275327, 1.281125, 1.545477, 2.026737, 2.059998, 1.532013, 1.27089, 1.271343, 1.501321, 1.99786, 2.043073, 1.545851, 1.272972, 1.273425, 1.448754, 1.968052, 2.041719, 1.60873, 1.273878, 1.27089, 1.370865, 1.936647, 2.040946, 1.702764, 1.28312, 1.271886, 1.387119, 1.930776, 2.064449, 1.767145, 1.291375, 1.276957, 1.390153, 1.931738, 2.100851, 1.855952, 1.306277, 1.273968, 1.360047, 1.912211, 2.135934, 1.895296, 1.317656, 1.272429, 1.364812, 1.871488, 2.135643, 1.936166, 1.357024, 1.279313, 1.320299, 1.829134, 2.119551, 1.972294, 1.373525, 1.281941, 1.315925, 1.767526, 2.088164, 1.99564, 1.394845, 1.280038, 1.305549, 1.747904, 2.100076, 2.047617, 1.430161, 1.274874, 1.30364, 1.708457, 2.07645, 2.075772, 1.48076, 1.273968, 1.283754, 1.645876, 2.077902, 2.071126, 1.523327, 1.276867, 1.282394, 1.618335, 2.069191, 1.932027, 1.341289, 1.267633, 1.315743, 1.819279, 2.094071, 1.971812, 1.371782, 1.278225, 1.304094, 1.735915, 2.07161, 1.998246, 1.398802, 1.28031, 1.301276, 1.737057, 2.079354, 2.035726, 1.434043, 1.279313, 1.302731, 1.696694, 2.068707, 2.046941, 1.444218, 1.270438, 1.290921, 1.644932, 2.071997, 2.073159, 1.5237, 1.278316, 1.286384, 1.62578, 2.09688, 2.092328, 1.576962, 1.280944, 1.279675, 1.605342, 2.07887, 2.095427, 1.595278, 1.283029, 1.284298, 1.570957, 2.06203, 2.139328, 1.682573, 1.27886, 1.273968, 1.530612, 2.039979, 2.139231, 1.708267, 1.288199, 1.272067, 1.483176, 2.003458, 2.145631, 1.780019, 1.288108, 1.268718, 1.416127, 1.944061, 2.108602, 1.741813, 1.2804, 1.265824, 1.296279, 1.840335, 2.222013, 1.93761, 1.397145, 1.367929, 1.597441, 2.138843, 2.333668, 2.067449, 1.413914, 1.295915, 1.3562, 1.895392, 2.10153, 1.946276, 1.344305, 1.284208, 1.330148, 2.043266, 2.115578, 1.666197, 1.28321, 1.273154, 1.490988, 2.000466, 2.123719, 1.733253, 1.291012, 1.270528, 1.424064, 1.950803, 2.129923, 1.790421, 1.291466, 1.274783, 1.378207, 1.921924, 2.111799, 1.853364, 1.297187, 1.270528, 1.350616, 1.882236, 2.094846, 1.885788, 1.304731, 1.27424, 1.322851, 1.843687, 2.060482, 1.911922, 1.329326, 1.274059, 1.320754, 1.838802, 2.075869, 1.954271, 1.360413, 1.274602, 1.304367, 1.749998, 2.053517, 1.967185, 1.383075, 1.275327, 1.286203, 1.678406, 2.033309, 1.947817, 1.393096, 1.267, 1.286112, 1.64125, 2.041526, 1.969691, 1.438112, 1.275508, 1.273244, 1.61033, 2.01495, 2.027607, 1.456629, 1.271343, 1.276232, 1.572927, 2.014467, 2.046844, 1.532387, 1.276142, 1.278769, 1.557085, 2.019877, 2.11083, 1.601109, 1.281125, 1.291375, 1.567675, 2.050616, 2.149122, 1.692901, 1.289106, 1.27261, 1.5209, 2.045877, 2.140588, 1.748285, 1.290921, 1.289016, 1.696599, 2.118292, 2.079838, 1.541267, 1.272067, 1.287473, 1.671685, 2.086712, 2.095233, 1.546787, 1.275327, 1.280853, 1.636909, 2.08342, 2.106179, 1.594808, 1.282032, 1.287201, 1.57152, 2.047908, 2.117613, 1.622858, 1.279947, 1.277682, 1.571614, 2.031666, 2.141267, 1.679068, 1.284117, 1.277591, 1.510826, 2.02838, 2.13128, 1.733157, 1.283482, 1.275327, 1.441164, 1.979141, 2.134286, 1.795195, 1.289651, 1.279222, 1.391901, 1.976537, 2.1402, 1.869953, 1.304549, 1.278135, 1.347323, 1.944253, 2.120812, 1.904424, 1.32203, 1.276051, 1.331425, 1.878876, 2.115094, 1.923752, 1.349518, 1.279494, 1.331882, 1.838515, 2.09688, 1.939054, 1.37325, 1.275327, 1.308006, 1.788703, 2.084775, 1.959089, 1.367746, 1.273878, 1.294553, 1.736296, 2.078095, 2.009252, 1.430808, 1.282032, 1.302094, 1.737152, 2.099786, 2.05729, 1.480945, 1.277772, 1.283664, 1.693849, 2.080806, 2.008962, 1.314741, 1.275961, 1.356291, 1.888477, 2.140006, 1.951285, 1.352172, 1.281306, 1.33599, 1.846273, 2.123041, 1.944831, 1.384637, 1.279766, 1.314195, 1.812108, 2.118679, 1.993999, 1.4358, 1.2804, 1.313922, 1.763619, 2.105017, 2.008576, 1.363712, 1.2651, 1.267814, 1.584848, 1.976441, 2.169688, 1.551935, 1.301367, 1.428128, 1.938958, 2.332988, 2.313254, 1.689868, 1.304367, 1.308279, 1.722987, 2.072384, 2.129535, 1.557647, 1.277229, 1.288925, 1.630117, 2.085453, 2.117419, 1.609954, 1.271162, 1.287654, 1.562238, 2.050035, 2.110249, 1.620596, 1.276504, 1.285024, 1.491825, 2.045007, 2.106955, 1.709406, 1.287019, 1.280944, 1.456629, 2.02094, 2.109764, 1.778206, 1.285477, 1.270528, 1.437464, 1.969787, 2.111702, 1.804843, 1.303913, 1.274512, 1.369122, 1.950418, 2.108698, 1.854419, 1.303549, 1.278769, 1.373067, 1.8879, 2.108989, 1.891838, 1.314104, 1.273606, 1.340009, 1.918173, 2.097558, 1.606001, 1.271252, 1.27886, 1.474535, 1.994771, 2.086518, 1.666954, 1.276142, 1.271705, 1.403498, 1.961209, 2.062417, 1.711495, 1.290104, 1.262388, 1.36078, 1.907116, 2.040075, 1.740957, 1.288471, 1.268809, 1.338639, 1.880316, 2.079257, 1.798442, 1.304458, 1.268718, 1.34961, 1.890781, 2.09533, 1.875709, 1.320481, 1.263925, 1.34266, 1.859019, 2.121005, 1.937514, 1.361146, 1.28584, 1.333068, 1.849339, 2.109183, 1.977309, 1.388314, 1.274964, 1.315925, 1.792904, 2.108311, 2.020553, 1.420095, 1.285568, 1.307642, 1.776871, 2.102789, 2.054098, 1.433118, 1.283029, 1.296097, 1.73002, 2.088551, 2.064546, 1.476764, 1.273335, 1.300276, 1.701246, 2.110152, 2.100948, 1.5322, 1.272791, 1.29855, 1.631532, 2.099495, 2.114319, 1.577994, 1.278859, 1.281397, 1.600544, 2.084194, 2.105889, 1.63823, 1.278769, 1.269623, 1.564207, 2.064352, 2.115287, 1.685036, 1.289288, 1.290558, 1.745049, 2.07945, 2.059515, 1.431362, 1.279856, 1.301094, 1.744192, 2.119649, 2.090004, 1.496944, 1.283301, 1.291738, 1.682762, 2.090295, 2.101723, 1.541361, 1.28448, 1.300185, 1.627571, 2.08797, 2.094749, 1.596689, 1.280672, 1.285568, 1.590391, 2.070546, 2.101917, 1.659483, 1.281307, 1.274783, 1.559615, 2.061063, 2.135159, 1.675565, 1.286294, 1.275779, 1.489965, 2.027896, 2.108117, 1.721277, 1.275055, 1.272701, 1.455517, 1.985893, 2.136419, 1.796914, 1.295915, 1.271705, 1.431732, 1.953982, 2.1563, 1.854035, 1.296914, 1.277591, 1.388498, 1.94175, 2.120521, 1.8952, 1.321119, 1.276595, 1.364262, 1.899812, 2.151353, 1.929621, 1.335625, 1.282213, 1.34961, 1.893567, 2.11616, 1.979816, 1.351714, 1.275146, 1.322212, 1.847615, 2.117517, 2.003652, 1.386108, 1.277954, 1.31629, 1.720707, 1.997474, 1.865348, 1.308643, 1.265462, 1.336538, 1.847519, 2.23464, 2.321419, 1.513996, 1.33389, 1.604872, 2.131959, 2.232891, 1.949165, 1.335716, 1.279222, 1.363896, 1.921732, 2.121684, 1.912018, 1.321483, 1.27089, 1.343026, 1.882332, 2.078095, 1.927119, 1.319387, 1.280763, 1.325951, 1.855473, 2.09688, 1.960245, 1.345311, 1.274964, 1.314741, 1.797774, 2.087777, 1.978466, 1.377564, 1.271705, 1.316199, 1.725647, 2.081193, 1.994964, 1.430069, 1.28321, 1.30064, 1.702479, 2.092618, 2.039786, 1.47983, 1.276504, 1.290195, 1.673388, 2.079063, 2.073255, 1.503184, 1.276957, 1.28031, 1.614285, 2.064159, 2.075191, 1.538556, 1.279585, 1.277863, 1.59603, 2.038142, 2.077514, 1.554182, 1.27587, 1.279041, 1.537995, 1.996219, 2.07374, 1.589827, 1.274512, 1.275327, 1.473699, 1.977309, 2.071223, 1.628514, 1.27089, 1.270619, 1.433303, 1.937321, 2.064255, 1.67566, 1.274783, 1.274331, 1.384821, 1.937803, 2.090488, 1.79023, 1.283029, 1.272972, 1.372241, 1.956872, 2.088164, 1.541454, 1.282032, 1.28457, 1.623329, 2.075481, 2.128178, 1.603931, 1.27741, 1.283573, 1.605248, 2.071804, 2.154651, 1.670833, 1.27252, 1.273063, 1.557647, 2.063094, 2.143885, 1.728309, 1.283482, 1.275689, 1.472678, 2.020553, 2.126821, 1.786507, 1.295007, 1.278225, 1.434228, 1.984254, 2.130893, 1.839664, 1.294553, 1.271976, 1.403591, 1.973837, 2.133898, 1.874942, 1.310281, 1.271071, 1.354186, 1.919712, 2.130505, 1.918173, 1.334438, 1.281488, 1.357024, 1.88502, 2.134577, 1.932701, 1.353087, 1.28176, 1.34266, 1.836696, 2.1275, 1.962558, 1.391625, 1.28312, 1.315015, 1.811152, 2.103273, 2.034469, 1.409488, 1.282122, 1.313011, 1.791089, 2.112186, 2.025288, 1.457834, 1.281669, 1.294644, 1.765906, 2.097461, 2.06232, 1.488383, 1.286203, 1.298004, 1.724507, 2.095427, 2.140297, 1.570957, 1.281216, 1.286475, 1.666291, 2.099398, 2.132832, 1.626723, 1.287201, 1.299367, 1.822053, 2.123622, 1.975187, 1.410133, 1.284389, 1.317201, 1.806946, 2.11616, 2.025384, 1.44931, 1.28176, 1.303276, 1.764095, 2.092425, 2.031086, 1.467294, 1.285387, 1.292555, 1.714533, 2.087196, 2.082451, 1.507284, 1.28575, 1.292918, 1.705041, 2.08371, 2.131474, 1.579872, 1.279766, 1.30264, 1.665818, 2.108698, 2.13254, 1.625403, 1.280672, 1.291466, 1.633701, 2.093006, 2.138843, 1.670928, 1.282395, 1.286656, 1.580999, 2.07403, 2.146795, 1.722607, 1.279675, 1.287019, 1.56027, 2.094265, 2.194631, 1.776966, 1.292374, 1.282213, 1.482154, 1.95562, 2.051003, 1.678311, 1.272158, 1.266366, 1.552871, 2.07103, 2.312477, 2.128275, 1.540706, 1.361788, 1.632569, 2.138746, 2.299549, 1.985701, 1.392637, 1.286656, 1.393557, 1.945794, 2.146116, 1.945024, 1.344488, 1.282485, 1.348969, 1.887132, 2.127403, 1.960823, 1.367013, 1.281035, 1.315834, 1.852501, 2.103273, 2.015916, 1.402025, 1.269533, 1.49136, 2.00259, 2.154942, 1.787176, 1.295552, 1.269261, 1.42545, 1.974223, 2.159501, 1.850968, 1.314195, 1.270709, 1.400091, 1.941365, 2.147473, 1.877053, 1.324219, 1.277138, 1.364995, 1.915769, 2.120715, 1.920962, 1.690626, 2.134771, 1.870816, 1.308097, 1.275961, 1.370773, 1.930968, 2.114415, 1.914711, 1.323215, 1.2804, 1.340558, 1.881372, 2.093781, 1.946083, 1.348878, 1.272791, 1.327228, 1.850776, 2.119164, 1.984061, 1.372516, 1.272158, 1.328049, 1.810578, 2.094652, 1.991876, 1.411793, 1.273606, 1.305459, 1.689015, 1.992648, 1.889725, 1.318567, 1.27252, 1.35208, 1.785649, 2.242994, 2.31481, 1.746095, 1.353087, 1.379125, 1.851639, 2.210651, 2.181624, 1.569551, 1.279041, 1.290014, 1.636909, 2.090875, 2.104145, 1.554556, 1.281306, 1.282848, 1.605342, 2.033115, 2.112671, 1.593398, 1.273153, 1.267542, 1.564113, 2.039882, 2.118873, 1.63238, 1.28448, 1.273244, 1.499272, 2.01437, 2.115675, 1.690721, 1.280038, 1.276414, 1.443107, 1.965932, 2.094943, 1.746666, 1.28711, 1.276595, 1.396685, 1.942809, 2.104823, 1.812107, 1.285387, 1.267633, 1.366371, 1.912499, 2.10027, 1.843783, 1.279132, 1.278678, 1.605719, 2.043363, 2.08981]
[1.64125, 2.041526, 1.969691, 1.438112, 1.275508, 1.273244, 1.61033, 2.01495, 2.027607, 1.456629, 1.271343, 1.276232, 1.572927, 2.014467, 2.046844, 1.532387, 1.276142, 1.278769, 1.557085, 2.019877, 2.11083, 1.601109, 1.281125, 1.291375, 1.567675, 2.050616, 2.149122, 1.692901, 1.289106, 1.27261, 1.5209, 2.045877, 2.140588, 1.748285, 1.290921, 1.289016, 1.696599, 2.118292, 2.079838, 1.541267, 1.272067, 1.287473, 1.671685, 2.086712, 2.095233, 1.546787, 1.275327, 1.280853, 1.636909, 2.08342, 2.106179, 1.594808, 1.282032, 1.287201, 1.57152, 2.047908, 2.117613, 1.622858, 1.279947, 1.277682, 1.571614, 2.031666, 2.141267, 1.679068, 1.284117, 1.277591, 1.510826, 2.02838, 2.13128, 1.733157, 1.283482, 1.275327, 1.441164, 1.979141, 2.134286, 1.795195, 1.289651, 1.279222, 1.391901, 1.976537, 2.1402, 1.869953, 1.304549, 1.278135, 1.347323, 1.944253, 2.120812, 1.904424, 1.32203, 1.276051, 1.331425, 1.878876, 2.115094, 1.923752, 1.349518, 1.279494, 1.331882, 1.838515, 2.09688, 1.939054, 1.37325, 1.275327, 1.308006, 1.788703, 2.084775, 1.959089, 1.367746, 1.273878, 1.294553, 1.736296, 2.078095, 2.009252, 1.430808, 1.282032, 1.302094, 1.737152, 2.099786, 2.05729, 1.480945, 1.277772, 1.283664, 1.693849, 2.080806, 2.008962, 1.314741, 1.275961, 1.356291, 1.888477, 2.140006, 1.951285, 1.352172, 1.281306, 1.33599, 1.846273, 2.123041, 1.944831, 1.384637, 1.279766, 1.314195, 1.812108, 2.118679, 1.993999, 1.4358, 1.2804, 1.313922, 1.763619, 2.105017, 2.008576, 1.363712, 1.2651, 1.267814, 1.584848, 1.976441, 2.169688, 1.551935, 1.301367, 1.428128, 1.938958, 2.332988, 2.313254, 1.689868, 1.304367, 1.308279, 1.722987, 2.072384, 2.129535, 1.557647, 1.277229, 1.288925, 1.630117, 2.085453, 2.117419, 1.609954, 1.271162, 1.287654, 1.562238, 2.050035, 2.110249, 1.620596, 1.276504, 1.285024, 1.491825, 2.045007, 2.106955, 1.709406, 1.287019, 1.280944, 1.456629, 2.02094, 2.109764, 1.778206, 1.285477, 1.270528, 1.437464, 1.969787, 2.111702, 1.804843, 1.303913, 1.274512, 1.369122, 1.950418, 2.108698, 1.854419, 1.303549, 1.278769, 1.373067, 1.8879, 2.108989, 1.891838, 1.314104, 1.273606, 1.340009, 1.918173, 2.097558, 1.606001, 1.271252, 1.27886, 1.474535, 1.994771, 2.086518, 1.666954, 1.276142, 1.271705, 1.403498, 1.961209, 2.062417, 1.711495, 1.290104, 1.262388, 1.36078, 1.907116, 2.040075, 1.740957, 1.288471, 1.268809, 1.338639, 1.880316, 2.079257, 1.798442, 1.304458, 1.268718, 1.34961, 1.890781, 2.09533, 1.875709, 1.320481, 1.263925, 1.34266, 1.859019, 2.121005, 1.937514, 1.361146, 1.28584, 1.333068, 1.849339, 2.109183, 1.977309, 1.388314, 1.274964, 1.315925, 1.792904, 2.108311, 2.020553, 1.420095, 1.285568, 1.307642, 1.776871, 2.102789, 2.054098, 1.433118, 1.283029, 1.296097, 1.73002, 2.088551, 2.064546, 1.476764, 1.273335, 1.300276, 1.701246, 2.110152, 2.100948, 1.5322, 1.272791, 1.29855, 1.631532, 2.099495, 2.114319, 1.577994, 1.278859, 1.281397, 1.600544, 2.084194, 2.105889, 1.63823, 1.278769, 1.269623, 1.564207, 2.064352, 2.115287, 1.685036, 1.289288, 1.290558, 1.745049, 2.07945, 2.059515, 1.431362, 1.279856, 1.301094, 1.744192, 2.119649, 2.090004, 1.496944, 1.283301, 1.291738, 1.682762, 2.090295, 2.101723, 1.541361, 1.28448, 1.300185, 1.627571, 2.08797, 2.094749, 1.596689, 1.280672, 1.285568, 1.590391, 2.070546, 2.101917, 1.659483, 1.281307, 1.274783, 1.559615, 2.061063, 2.135159, 1.675565, 1.286294, 1.275779, 1.489965, 2.027896, 2.108117, 1.721277, 1.275055, 1.272701, 1.455517, 1.985893, 2.136419, 1.796914, 1.295915, 1.271705, 1.431732, 1.953982, 2.1563, 1.854035, 1.296914, 1.277591, 1.388498, 1.94175, 2.120521, 1.8952, 1.321119, 1.276595, 1.364262, 1.899812, 2.151353, 1.929621, 1.335625, 1.282213, 1.34961, 1.893567, 2.11616, 1.979816, 1.351714, 1.275146, 1.322212, 1.847615, 2.117517, 2.003652, 1.386108, 1.277954, 1.31629, 1.720707, 1.997474, 1.865348, 1.308643, 1.265462, 1.336538, 1.847519, 2.23464, 2.321419, 1.513996, 1.33389, 1.604872, 2.131959, 2.232891, 1.949165, 1.335716, 1.279222, 1.363896, 1.921732, 2.121684, 1.912018, 1.321483, 1.27089, 1.343026, 1.882332, 2.078095, 1.927119, 1.319387, 1.280763, 1.325951, 1.855473, 2.09688, 1.960245, 1.345311, 1.274964, 1.314741, 1.797774, 2.087777, 1.978466, 1.377564, 1.271705, 1.316199, 1.725647, 2.081193, 1.994964, 1.430069, 1.28321, 1.30064, 1.702479, 2.092618, 2.039786, 1.47983, 1.276504, 1.290195, 1.673388, 2.079063, 2.073255, 1.503184, 1.276957, 1.28031, 1.614285, 2.064159, 2.075191, 1.538556, 1.279585, 1.277863, 1.59603, 2.038142, 2.077514, 1.554182, 1.27587, 1.279041, 1.537995, 1.996219, 2.07374, 1.589827, 1.274512, 1.275327, 1.473699, 1.977309, 2.071223, 1.628514, 1.27089, 1.270619, 1.433303, 1.937321, 2.064255, 1.67566, 1.274783, 1.274331, 1.384821, 1.937803, 2.090488, 1.79023, 1.283029, 1.272972, 1.372241, 1.956872, 2.088164, 1.541454, 1.282032, 1.28457, 1.623329, 2.075481, 2.128178, 1.603931, 1.27741, 1.283573, 1.605248, 2.071804, 2.154651, 1.670833, 1.27252, 1.273063, 1.557647, 2.063094, 2.143885, 1.728309, 1.283482, 1.275689, 1.472678, 2.020553, 2.126821, 1.786507, 1.295007, 1.278225, 1.434228, 1.984254, 2.130893, 1.839664, 1.294553, 1.271976, 1.403591, 1.973837, 2.133898, 1.874942, 1.310281, 1.271071, 1.354186, 1.919712, 2.130505, 1.918173, 1.334438, 1.281488, 1.357024, 1.88502, 2.134577, 1.932701, 1.353087, 1.28176, 1.34266, 1.836696, 2.1275, 1.962558, 1.391625, 1.28312, 1.315015, 1.811152, 2.103273, 2.034469, 1.409488, 1.282122, 1.313011, 1.791089, 2.112186, 2.025288, 1.457834, 1.281669, 1.294644, 1.765906, 2.097461, 2.06232, 1.488383, 1.286203, 1.298004, 1.724507, 2.095427, 2.140297, 1.570957, 1.281216, 1.286475, 1.666291, 2.099398, 2.132832, 1.626723, 1.287201, 1.299367, 1.822053, 2.123622, 1.975187, 1.410133, 1.284389, 1.317201, 1.806946, 2.11616, 2.025384, 1.44931, 1.28176, 1.303276, 1.764095, 2.092425, 2.031086, 1.467294, 1.285387, 1.292555, 1.714533, 2.087196, 2.082451, 1.507284, 1.28575, 1.292918, 1.705041, 2.08371, 2.131474, 1.579872, 1.279766, 1.30264, 1.665818, 2.108698, 2.13254, 1.625403, 1.280672, 1.291466, 1.633701, 2.093006, 2.138843, 1.670928, 1.282395, 1.286656, 1.580999, 2.07403, 2.146795, 1.722607, 1.279675, 1.287019, 1.56027, 2.094265, 2.194631, 1.776966, 1.292374, 1.282213, 1.482154, 1.95562, 2.051003, 1.678311, 1.272158, 1.266366, 1.552871, 2.07103, 2.312477, 2.128275, 1.540706, 1.361788, 1.632569, 2.138746, 2.299549, 1.985701, 1.392637, 1.286656, 1.393557, 1.945794, 2.146116, 1.945024, 1.344488, 1.282485, 1.348969, 1.887132, 2.127403, 1.960823, 1.367013, 1.281035, 1.315834, 1.852501, 2.103273, 2.015916, 1.402025, 1.269533, 1.49136, 2.00259, 2.154942, 1.787176, 1.295552, 1.269261, 1.42545, 1.974223, 2.159501, 1.850968, 1.314195, 1.270709, 1.400091, 1.941365, 2.147473, 1.877053, 1.324219, 1.277138, 1.364995, 1.915769, 2.120715, 1.920962, 1.690626, 2.134771, 1.870816, 1.308097, 1.275961, 1.370773, 1.930968, 2.114415, 1.914711, 1.323215, 1.2804, 1.340558, 1.881372, 2.093781, 1.946083, 1.348878, 1.272791, 1.327228, 1.850776, 2.119164, 1.984061, 1.372516, 1.272158, 1.328049, 1.810578, 2.094652, 1.991876, 1.411793, 1.273606, 1.305459, 1.689015, 1.992648, 1.889725, 1.318567, 1.27252, 1.35208, 1.785649, 2.242994, 2.31481, 1.746095, 1.353087, 1.379125, 1.851639, 2.210651, 2.181624, 1.569551, 1.279041, 1.290014, 1.636909, 2.090875, 2.104145, 1.554556, 1.281306, 1.282848, 1.605342, 2.033115, 2.112671, 1.593398, 1.273153, 1.267542, 1.564113, 2.039882, 2.118873, 1.63238, 1.28448, 1.273244, 1.499272, 2.01437, 2.115675, 1.690721, 1.280038, 1.276414, 1.443107, 1.965932, 2.094943, 1.746666, 1.28711, 1.276595, 1.396685, 1.942809, 2.104823, 1.812107, 1.285387, 1.267633, 1.366371, 1.912499, 2.10027, 1.843783, 1.279132, 1.278678, 1.605719, 2.043363, 2.08981, 1.500296, 1.275327, 1.281125, 1.545477, 2.026737, 2.059998, 1.532013, 1.27089, 1.271343, 1.501321, 1.99786, 2.043073, 1.545851, 1.272972, 1.273425, 1.448754, 1.968052, 2.041719, 1.60873, 1.273878, 1.27089, 1.370865, 1.936647, 2.040946, 1.702764, 1.28312, 1.271886, 1.387119, 1.930776, 2.064449, 1.767145, 1.291375, 1.276957, 1.390153, 1.931738, 2.100851, 1.855952, 1.306277, 1.273968, 1.360047, 1.912211, 2.135934, 1.895296, 1.317656, 1.272429, 1.364812, 1.871488, 2.135643, 1.936166, 1.357024, 1.279313, 1.320299, 1.829134, 2.119551, 1.972294, 1.373525, 1.281941, 1.315925, 1.767526, 2.088164, 1.99564, 1.394845, 1.280038, 1.305549, 1.747904, 2.100076, 2.047617, 1.430161, 1.274874, 1.30364, 1.708457, 2.07645, 2.075772, 1.48076, 1.273968, 1.283754, 1.645876, 2.077902, 2.071126, 1.523327, 1.276867, 1.282394, 1.618335, 2.069191, 1.932027, 1.341289, 1.267633, 1.315743, 1.819279, 2.094071, 1.971812, 1.371782, 1.278225, 1.304094, 1.735915, 2.07161, 1.998246, 1.398802, 1.28031, 1.301276, 1.737057, 2.079354, 2.035726, 1.434043, 1.279313, 1.302731, 1.696694, 2.068707, 2.046941, 1.444218, 1.270438, 1.290921, 1.644932, 2.071997, 2.073159, 1.5237, 1.278316, 1.286384, 1.62578, 2.09688, 2.092328, 1.576962, 1.280944, 1.279675, 1.605342, 2.07887, 2.095427, 1.595278, 1.283029, 1.284298, 1.570957, 2.06203, 2.139328, 1.682573, 1.27886, 1.273968, 1.530612, 2.039979, 2.139231, 1.708267, 1.288199, 1.272067, 1.483176, 2.003458, 2.145631, 1.780019, 1.288108, 1.268718, 1.416127, 1.944061, 2.108602, 1.741813, 1.2804, 1.265824, 1.296279, 1.840335, 2.222013, 1.93761, 1.397145, 1.367929, 1.597441, 2.138843, 2.333668, 2.067449, 1.413914, 1.295915, 1.3562, 1.895392, 2.10153, 1.946276, 1.344305, 1.284208, 1.330148, 2.043266, 2.115578, 1.666197, 1.28321, 1.273154, 1.490988, 2.000466, 2.123719, 1.733253, 1.291012, 1.270528, 1.424064, 1.950803, 2.129923, 1.790421, 1.291466, 1.274783, 1.378207, 1.921924, 2.111799, 1.853364, 1.297187, 1.270528, 1.350616, 1.882236, 2.094846, 1.885788, 1.304731, 1.27424, 1.322851, 1.843687, 2.060482, 1.911922, 1.329326, 1.274059, 1.320754, 1.838802, 2.075869, 1.954271, 1.360413, 1.274602, 1.304367, 1.749998, 2.053517, 1.967185, 1.383075, 1.275327, 1.286203, 1.678406, 2.033309, 1.947817, 1.393096, 1.267, 1.286112]
[1.890781, 2.09533, 1.875709, 1.320481, 1.263925, 1.34266, 1.859019, 2.121005, 1.937514, 1.361146, 1.28584, 1.333068, 1.849339, 2.109183, 1.977309, 1.388314, 1.274964, 1.315925, 1.792904, 2.108311, 2.020553, 1.420095, 1.285568, 1.307642, 1.776871, 2.102789, 2.054098, 1.433118, 1.283029, 1.296097, 1.73002, 2.088551, 2.064546, 1.476764, 1.273335, 1.300276, 1.701246, 2.110152, 2.100948, 1.5322, 1.272791, 1.29855, 1.631532, 2.099495, 2.114319, 1.577994, 1.278859, 1.281397, 1.600544, 2.084194, 2.105889, 1.63823, 1.278769, 1.269623, 1.564207, 2.064352, 2.115287, 1.685036, 1.289288, 1.290558, 1.745049, 2.07945, 2.059515, 1.431362, 1.279856, 1.301094, 1.744192, 2.119649, 2.090004, 1.496944, 1.283301, 1.291738, 1.682762, 2.090295, 2.101723, 1.541361, 1.28448, 1.300185, 1.627571, 2.08797, 2.094749, 1.596689, 1.280672, 1.285568, 1.590391, 2.070546, 2.101917, 1.659483, 1.281307, 1.274783, 1.559615, 2.061063, 2.135159, 1.675565, 1.286294, 1.275779, 1.489965, 2.027896, 2.108117, 1.721277, 1.275055, 1.272701, 1.455517, 1.985893, 2.136419, 1.796914, 1.295915, 1.271705, 1.431732, 1.953982, 2.1563, 1.854035, 1.296914, 1.277591, 1.388498, 1.94175, 2.120521, 1.8952, 1.321119, 1.276595, 1.364262, 1.899812, 2.151353, 1.929621, 1.335625, 1.282213, 1.34961, 1.893567, 2.11616, 1.979816, 1.351714, 1.275146, 1.322212, 1.847615, 2.117517, 2.003652, 1.386108, 1.277954, 1.31629, 1.720707, 1.997474, 1.865348, 1.308643, 1.265462, 1.336538, 1.847519, 2.23464, 2.321419, 1.513996, 1.33389, 1.604872, 2.131959, 2.232891, 1.949165, 1.335716, 1.279222, 1.363896, 1.921732, 2.121684, 1.912018, 1.321483, 1.27089, 1.343026, 1.882332, 2.078095, 1.927119, 1.319387, 1.280763, 1.325951, 1.855473, 2.09688, 1.960245, 1.345311, 1.274964, 1.314741, 1.797774, 2.087777, 1.978466, 1.377564, 1.271705, 1.316199, 1.725647, 2.081193, 1.994964, 1.430069, 1.28321, 1.30064, 1.702479, 2.092618, 2.039786, 1.47983, 1.276504, 1.290195, 1.673388, 2.079063, 2.073255, 1.503184, 1.276957, 1.28031, 1.614285, 2.064159, 2.075191, 1.538556, 1.279585, 1.277863, 1.59603, 2.038142, 2.077514, 1.554182, 1.27587, 1.279041, 1.537995, 1.996219, 2.07374, 1.589827, 1.274512, 1.275327, 1.473699, 1.977309, 2.071223, 1.628514, 1.27089, 1.270619, 1.433303, 1.937321, 2.064255, 1.67566, 1.274783, 1.274331, 1.384821, 1.937803, 2.090488, 1.79023, 1.283029, 1.272972, 1.372241, 1.956872, 2.088164, 1.541454, 1.282032, 1.28457, 1.623329, 2.075481, 2.128178, 1.603931, 1.27741, 1.283573, 1.605248, 2.071804, 2.154651, 1.670833, 1.27252, 1.273063, 1.557647, 2.063094, 2.143885, 1.728309, 1.283482, 1.275689, 1.472678, 2.020553, 2.126821, 1.786507, 1.295007, 1.278225, 1.434228, 1.984254, 2.130893, 1.839664, 1.294553, 1.271976, 1.403591, 1.973837, 2.133898, 1.874942, 1.310281, 1.271071, 1.354186, 1.919712, 2.130505, 1.918173, 1.334438, 1.281488, 1.357024, 1.88502, 2.134577, 1.932701, 1.353087, 1.28176, 1.34266, 1.836696, 2.1275, 1.962558, 1.391625, 1.28312, 1.315015, 1.811152, 2.103273, 2.034469, 1.409488, 1.282122, 1.313011, 1.791089, 2.112186, 2.025288, 1.457834, 1.281669, 1.294644, 1.765906, 2.097461, 2.06232, 1.488383, 1.286203, 1.298004, 1.724507, 2.095427, 2.140297, 1.570957, 1.281216, 1.286475, 1.666291, 2.099398, 2.132832, 1.626723, 1.287201, 1.299367, 1.822053, 2.123622, 1.975187, 1.410133, 1.284389, 1.317201, 1.806946, 2.11616, 2.025384, 1.44931, 1.28176, 1.303276, 1.764095, 2.092425, 2.031086, 1.467294, 1.285387, 1.292555, 1.714533, 2.087196, 2.082451, 1.507284, 1.28575, 1.292918, 1.705041, 2.08371, 2.131474, 1.579872, 1.279766, 1.30264, 1.665818, 2.108698, 2.13254, 1.625403, 1.280672, 1.291466, 1.633701, 2.093006, 2.138843, 1.670928, 1.282395, 1.286656, 1.580999, 2.07403, 2.146795, 1.722607, 1.279675, 1.287019, 1.56027, 2.094265, 2.194631, 1.776966, 1.292374, 1.282213, 1.482154, 1.95562, 2.051003, 1.678311, 1.272158, 1.266366, 1.552871, 2.07103, 2.312477, 2.128275, 1.540706, 1.361788, 1.632569, 2.138746, 2.299549, 1.985701, 1.392637, 1.286656, 1.393557, 1.945794, 2.146116, 1.945024, 1.344488, 1.282485, 1.348969, 1.887132, 2.127403, 1.960823, 1.367013, 1.281035, 1.315834, 1.852501, 2.103273, 2.015916, 1.402025, 1.269533, 1.49136, 2.00259, 2.154942, 1.787176, 1.295552, 1.269261, 1.42545, 1.974223, 2.159501, 1.850968, 1.314195, 1.270709, 1.400091, 1.941365, 2.147473, 1.877053, 1.324219, 1.277138, 1.364995, 1.915769, 2.120715, 1.920962, 1.690626, 2.134771, 1.870816, 1.308097, 1.275961, 1.370773, 1.930968, 2.114415, 1.914711, 1.323215, 1.2804, 1.340558, 1.881372, 2.093781, 1.946083, 1.348878, 1.272791, 1.327228, 1.850776, 2.119164, 1.984061, 1.372516, 1.272158, 1.328049, 1.810578, 2.094652, 1.991876, 1.411793, 1.273606, 1.305459, 1.689015, 1.992648, 1.889725, 1.318567, 1.27252, 1.35208, 1.785649, 2.242994, 2.31481, 1.746095, 1.353087, 1.379125, 1.851639, 2.210651, 2.181624, 1.569551, 1.279041, 1.290014, 1.636909, 2.090875, 2.104145, 1.554556, 1.281306, 1.282848, 1.605342, 2.033115, 2.112671, 1.593398, 1.273153, 1.267542, 1.564113, 2.039882, 2.118873, 1.63238, 1.28448, 1.273244, 1.499272, 2.01437, 2.115675, 1.690721, 1.280038, 1.276414, 1.443107, 1.965932, 2.094943, 1.746666, 1.28711, 1.276595, 1.396685, 1.942809, 2.104823, 1.812107, 1.285387, 1.267633, 1.366371, 1.912499, 2.10027, 1.843783, 1.279132, 1.278678, 1.605719, 2.043363, 2.08981, 1.500296, 1.275327, 1.281125, 1.545477, 2.026737, 2.059998, 1.532013, 1.27089, 1.271343, 1.501321, 1.99786, 2.043073, 1.545851, 1.272972, 1.273425, 1.448754, 1.968052, 2.041719, 1.60873, 1.273878, 1.27089, 1.370865, 1.936647, 2.040946, 1.702764, 1.28312, 1.271886, 1.387119, 1.930776, 2.064449, 1.767145, 1.291375, 1.276957, 1.390153, 1.931738, 2.100851, 1.855952, 1.306277, 1.273968, 1.360047, 1.912211, 2.135934, 1.895296, 1.317656, 1.272429, 1.364812, 1.871488, 2.135643, 1.936166, 1.357024, 1.279313, 1.320299, 1.829134, 2.119551, 1.972294, 1.373525, 1.281941, 1.315925, 1.767526, 2.088164, 1.99564, 1.394845, 1.280038, 1.305549, 1.747904, 2.100076, 2.047617, 1.430161, 1.274874, 1.30364, 1.708457, 2.07645, 2.075772, 1.48076, 1.273968, 1.283754, 1.645876, 2.077902, 2.071126, 1.523327, 1.276867, 1.282394, 1.618335, 2.069191, 1.932027, 1.341289, 1.267633, 1.315743, 1.819279, 2.094071, 1.971812, 1.371782, 1.278225, 1.304094, 1.735915, 2.07161, 1.998246, 1.398802, 1.28031, 1.301276, 1.737057, 2.079354, 2.035726, 1.434043, 1.279313, 1.302731, 1.696694, 2.068707, 2.046941, 1.444218, 1.270438, 1.290921, 1.644932, 2.071997, 2.073159, 1.5237, 1.278316, 1.286384, 1.62578, 2.09688, 2.092328, 1.576962, 1.280944, 1.279675, 1.605342, 2.07887, 2.095427, 1.595278, 1.283029, 1.284298, 1.570957, 2.06203, 2.139328, 1.682573, 1.27886, 1.273968, 1.530612, 2.039979, 2.139231, 1.708267, 1.288199, 1.272067, 1.483176, 2.003458, 2.145631, 1.780019, 1.288108, 1.268718, 1.416127, 1.944061, 2.108602, 1.741813, 1.2804, 1.265824, 1.296279, 1.840335, 2.222013, 1.93761, 1.397145, 1.367929, 1.597441, 2.138843, 2.333668, 2.067449, 1.413914, 1.295915, 1.3562, 1.895392, 2.10153, 1.946276, 1.344305, 1.284208, 1.330148, 2.043266, 2.115578, 1.666197, 1.28321, 1.273154, 1.490988, 2.000466, 2.123719, 1.733253, 1.291012, 1.270528, 1.424064, 1.950803, 2.129923, 1.790421, 1.291466, 1.274783, 1.378207, 1.921924, 2.111799, 1.853364, 1.297187, 1.270528, 1.350616, 1.882236, 2.094846, 1.885788, 1.304731, 1.27424, 1.322851, 1.843687, 2.060482, 1.911922, 1.329326, 1.274059, 1.320754, 1.838802, 2.075869, 1.954271, 1.360413, 1.274602, 1.304367, 1.749998, 2.053517, 1.967185, 1.383075, 1.275327, 1.286203, 1.678406, 2.033309, 1.947817, 1.393096, 1.267, 1.286112, 1.64125, 2.041526, 1.969691, 1.438112, 1.275508, 1.273244, 1.61033, 2.01495, 2.027607, 1.456629, 1.271343, 1.276232, 1.572927, 2.014467, 2.046844, 1.532387, 1.276142, 1.278769, 1.557085, 2.019877, 2.11083, 1.601109, 1.281125, 1.291375, 1.567675, 2.050616, 2.149122, 1.692901, 1.289106, 1.27261, 1.5209, 2.045877, 2.140588, 1.748285, 1.290921, 1.289016, 1.696599, 2.118292, 2.079838, 1.541267, 1.272067, 1.287473, 1.671685, 2.086712, 2.095233, 1.546787, 1.275327, 1.280853, 1.636909, 2.08342, 2.106179, 1.594808, 1.282032, 1.287201, 1.57152, 2.047908, 2.117613, 1.622858, 1.279947, 1.277682, 1.571614, 2.031666, 2.141267, 1.679068, 1.284117, 1.277591, 1.510826, 2.02838, 2.13128, 1.733157, 1.283482, 1.275327, 1.441164, 1.979141, 2.134286, 1.795195, 1.289651, 1.279222, 1.391901, 1.976537, 2.1402, 1.869953, 1.304549, 1.278135, 1.347323, 1.944253, 2.120812, 1.904424, 1.32203, 1.276051, 1.331425, 1.878876, 2.115094, 1.923752, 1.349518, 1.279494, 1.331882, 1.838515, 2.09688, 1.939054, 1.37325, 1.275327, 1.308006, 1.788703, 2.084775, 1.959089, 1.367746, 1.273878, 1.294553, 1.736296, 2.078095, 2.009252, 1.430808, 1.282032, 1.302094, 1.737152, 2.099786, 2.05729, 1.480945, 1.277772, 1.283664, 1.693849, 2.080806, 2.008962, 1.314741, 1.275961, 1.356291, 1.888477, 2.140006, 1.951285, 1.352172, 1.281306, 1.33599, 1.846273, 2.123041, 1.944831, 1.384637, 1.279766, 1.314195, 1.812108, 2.118679, 1.993999, 1.4358, 1.2804, 1.313922, 1.763619, 2.105017, 2.008576, 1.363712, 1.2651, 1.267814, 1.584848, 1.976441, 2.169688, 1.551935, 1.301367, 1.428128, 1.938958, 2.332988, 2.313254, 1.689868, 1.304367, 1.308279, 1.722987, 2.072384, 2.129535, 1.557647, 1.277229, 1.288925, 1.630117, 2.085453, 2.117419, 1.609954, 1.271162, 1.287654, 1.562238, 2.050035, 2.110249, 1.620596, 1.276504, 1.285024, 1.491825, 2.045007, 2.106955, 1.709406, 1.287019, 1.280944, 1.456629, 2.02094, 2.109764, 1.778206, 1.285477, 1.270528, 1.437464, 1.969787, 2.111702, 1.804843, 1.303913, 1.274512, 1.369122, 1.950418, 2.108698, 1.854419, 1.303549, 1.278769, 1.373067, 1.8879, 2.108989, 1.891838, 1.314104, 1.273606, 1.340009, 1.918173, 2.097558, 1.606001, 1.271252, 1.27886, 1.474535, 1.994771, 2.086518, 1.666954, 1.276142, 1.271705, 1.403498, 1.961209, 2.062417, 1.711495, 1.290104, 1.262388, 1.36078, 1.907116, 2.040075, 1.740957, 1.288471, 1.268809, 1.338639, 1.880316, 2.079257, 1.798442, 1.304458, 1.268718, 1.34961]
[2.126821, 1.786507, 1.295007, 1.278225, 1.434228, 1.984254, 2.130893, 1.839664, 1.294553, 1.271976, 1.403591, 1.973837, 2.133898, 1.874942, 1.310281, 1.271071, 1.354186, 1.919712, 2.130505, 1.918173, 1.334438, 1.281488, 1.357024, 1.88502, 2.134577, 1.932701, 1.353087, 1.28176, 1.34266, 1.836696, 2.1275, 1.962558, 1.391625, 1.28312, 1.315015, 1.811152, 2.103273, 2.034469, 1.409488, 1.282122, 1.313011, 1.791089, 2.112186, 2.025288, 1.457834, 1.281669, 1.294644, 1.765906, 2.097461, 2.06232, 1.488383, 1.286203, 1.298004, 1.724507, 2.095427, 2.140297, 1.570957, 1.281216, 1.286475, 1.666291, 2.099398, 2.132832, 1.626723, 1.287201, 1.299367, 1.822053, 2.123622, 1.975187, 1.410133, 1.284389, 1.317201, 1.806946, 2.11616, 2.025384, 1.44931, 1.28176, 1.303276, 1.764095, 2.092425, 2.031086, 1.467294, 1.285387, 1.292555, 1.714533, 2.087196, 2.082451, 1.507284, 1.28575, 1.292918, 1.705041, 2.08371, 2.131474, 1.579872, 1.279766, 1.30264, 1.665818, 2.108698, 2.13254, 1.625403, 1.280672, 1.291466, 1.633701, 2.093006, 2.138843, 1.670928, 1.282395, 1.286656, 1.580999, 2.07403, 2.146795, 1.722607, 1.279675, 1.287019, 1.56027, 2.094265, 2.194631, 1.776966, 1.292374, 1.282213, 1.482154, 1.95562, 2.051003, 1.678311, 1.272158, 1.266366, 1.552871, 2.07103, 2.312477, 2.128275, 1.540706, 1.361788, 1.632569, 2.138746, 2.299549, 1.985701, 1.392637, 1.286656, 1.393557, 1.945794, 2.146116, 1.945024, 1.344488, 1.282485, 1.348969, 1.887132, 2.127403, 1.960823, 1.367013, 1.281035, 1.315834, 1.852501, 2.103273, 2.015916, 1.402025, 1.269533, 1.49136, 2.00259, 2.154942, 1.787176, 1.295552, 1.269261, 1.42545, 1.974223, 2.159501, 1.850968, 1.314195, 1.270709, 1.400091, 1.941365, 2.147473, 1.877053, 1.324219, 1.277138, 1.364995, 1.915769, 2.120715, 1.920962, 1.690626, 2.134771, 1.870816, 1.308097, 1.275961, 1.370773, 1.930968, 2.114415, 1.914711, 1.323215, 1.2804, 1.340558, 1.881372, 2.093781, 1.946083, 1.348878, 1.272791, 1.327228, 1.850776, 2.119164, 1.984061, 1.372516, 1.272158, 1.328049, 1.810578, 2.094652, 1.991876, 1.411793, 1.273606, 1.305459, 1.689015, 1.992648, 1.889725, 1.318567, 1.27252, 1.35208, 1.785649, 2.242994, 2.31481, 1.746095, 1.353087, 1.379125, 1.851639, 2.210651, 2.181624, 1.569551, 1.279041, 1.290014, 1.636909, 2.090875, 2.104145, 1.554556, 1.281306, 1.282848, 1.605342, 2.033115, 2.112671, 1.593398, 1.273153, 1.267542, 1.564113, 2.039882, 2.118873, 1.63238, 1.28448, 1.273244, 1.499272, 2.01437, 2.115675, 1.690721, 1.280038, 1.276414, 1.443107, 1.965932, 2.094943, 1.746666, 1.28711, 1.276595, 1.396685, 1.942809, 2.104823, 1.812107, 1.285387, 1.267633, 1.366371, 1.912499, 2.10027, 1.843783, 1.279132, 1.278678, 1.605719, 2.043363, 2.08981, 1.500296, 1.275327, 1.281125, 1.545477, 2.026737, 2.059998, 1.532013, 1.27089, 1.271343, 1.501321, 1.99786, 2.043073, 1.545851, 1.272972, 1.273425, 1.448754, 1.968052, 2.041719, 1.60873, 1.273878, 1.27089, 1.370865, 1.936647, 2.040946, 1.702764, 1.28312, 1.271886, 1.387119, 1.930776, 2.064449, 1.767145, 1.291375, 1.276957, 1.390153, 1.931738, 2.100851, 1.855952, 1.306277, 1.273968, 1.360047, 1.912211, 2.135934, 1.895296, 1.317656, 1.272429, 1.364812, 1.871488, 2.135643, 1.936166, 1.357024, 1.279313, 1.320299, 1.829134, 2.119551, 1.972294, 1.373525, 1.281941, 1.315925, 1.767526, 2.088164, 1.99564, 1.394845, 1.280038, 1.305549, 1.747904, 2.100076, 2.047617, 1.430161, 1.274874, 1.30364, 1.708457, 2.07645, 2.075772, 1.48076, 1.273968, 1.283754, 1.645876, 2.077902, 2.071126, 1.523327, 1.276867, 1.282394, 1.618335, 2.069191, 1.932027, 1.341289, 1.267633, 1.315743, 1.819279, 2.094071, 1.971812, 1.371782, 1.278225, 1.304094, 1.735915, 2.07161, 1.998246, 1.398802, 1.28031, 1.301276, 1.737057, 2.079354, 2.035726, 1.434043, 1.279313, 1.302731, 1.696694, 2.068707, 2.046941, 1.444218, 1.270438, 1.290921, 1.644932, 2.071997, 2.073159, 1.5237, 1.278316, 1.286384, 1.62578, 2.09688, 2.092328, 1.576962, 1.280944, 1.279675, 1.605342, 2.07887, 2.095427, 1.595278, 1.283029, 1.284298, 1.570957, 2.06203, 2.139328, 1.682573, 1.27886, 1.273968, 1.530612, 2.039979, 2.139231, 1.708267, 1.288199, 1.272067, 1.483176, 2.003458, 2.145631, 1.780019, 1.288108, 1.268718, 1.416127, 1.944061, 2.108602, 1.741813, 1.2804, 1.265824, 1.296279, 1.840335, 2.222013, 1.93761, 1.397145, 1.367929, 1.597441, 2.138843, 2.333668, 2.067449, 1.413914, 1.295915, 1.3562, 1.895392, 2.10153, 1.946276, 1.344305, 1.284208, 1.330148, 2.043266, 2.115578, 1.666197, 1.28321, 1.273154, 1.490988, 2.000466, 2.123719, 1.733253, 1.291012, 1.270528, 1.424064, 1.950803, 2.129923, 1.790421, 1.291466, 1.274783, 1.378207, 1.921924, 2.111799, 1.853364, 1.297187, 1.270528, 1.350616, 1.882236, 2.094846, 1.885788, 1.304731, 1.27424, 1.322851, 1.843687, 2.060482, 1.911922, 1.329326, 1.274059, 1.320754, 1.838802, 2.075869, 1.954271, 1.360413, 1.274602, 1.304367, 1.749998, 2.053517, 1.967185, 1.383075, 1.275327, 1.286203, 1.678406, 2.033309, 1.947817, 1.393096, 1.267, 1.286112, 1.64125, 2.041526, 1.969691, 1.438112, 1.275508, 1.273244, 1.61033, 2.01495, 2.027607, 1.456629, 1.271343, 1.276232, 1.572927, 2.014467, 2.046844, 1.532387, 1.276142, 1.278769, 1.557085, 2.019877, 2.11083, 1.601109, 1.281125, 1.291375, 1.567675, 2.050616, 2.149122, 1.692901, 1.289106, 1.27261, 1.5209, 2.045877, 2.140588, 1.748285, 1.290921, 1.289016, 1.696599, 2.118292, 2.079838, 1.541267, 1.272067, 1.287473, 1.671685, 2.086712, 2.095233, 1.546787, 1.275327, 1.280853, 1.636909, 2.08342, 2.106179, 1.594808, 1.282032, 1.287201, 1.57152, 2.047908, 2.117613, 1.622858, 1.279947, 1.277682, 1.571614, 2.031666, 2.141267, 1.679068, 1.284117, 1.277591, 1.510826, 2.02838, 2.13128, 1.733157, 1.283482, 1.275327, 1.441164, 1.979141, 2.134286, 1.795195, 1.289651, 1.279222, 1.391901, 1.976537, 2.1402, 1.869953, 1.304549, 1.278135, 1.347323, 1.944253, 2.120812, 1.904424, 1.32203, 1.276051, 1.331425, 1.878876, 2.115094, 1.923752, 1.349518, 1.279494, 1.331882, 1.838515, 2.09688, 1.939054, 1.37325, 1.275327, 1.308006, 1.788703, 2.084775, 1.959089, 1.367746, 1.273878, 1.294553, 1.736296, 2.078095, 2.009252, 1.430808, 1.282032, 1.302094, 1.737152, 2.099786, 2.05729, 1.480945, 1.277772, 1.283664, 1.693849, 2.080806, 2.008962, 1.314741, 1.275961, 1.356291, 1.888477, 2.140006, 1.951285, 1.352172, 1.281306, 1.33599, 1.846273, 2.123041, 1.944831, 1.384637, 1.279766, 1.314195, 1.812108, 2.118679, 1.993999, 1.4358, 1.2804, 1.313922, 1.763619, 2.105017, 2.008576, 1.363712, 1.2651, 1.267814, 1.584848, 1.976441, 2.169688, 1.551935, 1.301367, 1.428128, 1.938958, 2.332988, 2.313254, 1.689868, 1.304367, 1.308279, 1.722987, 2.072384, 2.129535, 1.557647, 1.277229, 1.288925, 1.630117, 2.085453, 2.117419, 1.609954, 1.271162, 1.287654, 1.562238, 2.050035, 2.110249, 1.620596, 1.276504, 1.285024, 1.491825, 2.045007, 2.106955, 1.709406, 1.287019, 1.280944, 1.456629, 2.02094, 2.109764, 1.778206, 1.285477, 1.270528, 1.437464, 1.969787, 2.111702, 1.804843, 1.303913, 1.274512, 1.369122, 1.950418, 2.108698, 1.854419, 1.303549, 1.278769, 1.373067, 1.8879, 2.108989, 1.891838, 1.314104, 1.273606, 1.340009, 1.918173, 2.097558, 1.606001, 1.271252, 1.27886, 1.474535, 1.994771, 2.086518, 1.666954, 1.276142, 1.271705, 1.403498, 1.961209, 2.062417, 1.711495, 1.290104, 1.262388, 1.36078, 1.907116, 2.040075, 1.740957, 1.288471, 1.268809, 1.338639, 1.880316, 2.079257, 1.798442, 1.304458, 1.268718, 1.34961, 1.890781, 2.09533, 1.875709, 1.320481, 1.263925, 1.34266, 1.859019, 2.121005, 1.937514, 1.361146, 1.28584, 1.333068, 1.849339, 2.109183, 1.977309, 1.388314, 1.274964, 1.315925, 1.792904, 2.108311, 2.020553, 1.420095, 1.285568, 1.307642, 1.776871, 2.102789, 2.054098, 1.433118, 1.283029, 1.296097, 1.73002, 2.088551, 2.064546, 1.476764, 1.273335, 1.300276, 1.701246, 2.110152, 2.100948, 1.5322, 1.272791, 1.29855, 1.631532, 2.099495, 2.114319, 1.577994, 1.278859, 1.281397, 1.600544, 2.084194, 2.105889, 1.63823, 1.278769, 1.269623, 1.564207, 2.064352, 2.115287, 1.685036, 1.289288, 1.290558, 1.745049, 2.07945, 2.059515, 1.431362, 1.279856, 1.301094, 1.744192, 2.119649, 2.090004, 1.496944, 1.283301, 1.291738, 1.682762, 2.090295, 2.101723, 1.541361, 1.28448, 1.300185, 1.627571, 2.08797, 2.094749, 1.596689, 1.280672, 1.285568, 1.590391, 2.070546, 2.101917, 1.659483, 1.281307, 1.274783, 1.559615, 2.061063, 2.135159, 1.675565, 1.286294, 1.275779, 1.489965, 2.027896, 2.108117, 1.721277, 1.275055, 1.272701, 1.455517, 1.985893, 2.136419, 1.796914, 1.295915, 1.271705, 1.431732, 1.953982, 2.1563, 1.854035, 1.296914, 1.277591, 1.388498, 1.94175, 2.120521, 1.8952, 1.321119, 1.276595, 1.364262, 1.899812, 2.151353, 1.929621, 1.335625, 1.282213, 1.34961, 1.893567, 2.11616, 1.979816, 1.351714, 1.275146, 1.322212, 1.847615, 2.117517, 2.003652, 1.386108, 1.277954, 1.31629, 1.720707, 1.997474, 1.865348, 1.308643, 1.265462, 1.336538, 1.847519, 2.23464, 2.321419, 1.513996, 1.33389, 1.604872, 2.131959, 2.232891, 1.949165, 1.335716, 1.279222, 1.363896, 1.921732, 2.121684, 1.912018, 1.321483, 1.27089, 1.343026, 1.882332, 2.078095, 1.927119, 1.319387, 1.280763, 1.325951, 1.855473, 2.09688, 1.960245, 1.345311, 1.274964, 1.314741, 1.797774, 2.087777, 1.978466, 1.377564, 1.271705, 1.316199, 1.725647, 2.081193, 1.994964, 1.430069, 1.28321, 1.30064, 1.702479, 2.092618, 2.039786, 1.47983, 1.276504, 1.290195, 1.673388, 2.079063, 2.073255, 1.503184, 1.276957, 1.28031, 1.614285, 2.064159, 2.075191, 1.538556, 1.279585, 1.277863, 1.59603, 2.038142, 2.077514, 1.554182, 1.27587, 1.279041, 1.537995, 1.996219, 2.07374, 1.589827, 1.274512, 1.275327, 1.473699, 1.977309, 2.071223, 1.628514, 1.27089, 1.270619, 1.433303, 1.937321, 2.064255, 1.67566, 1.274783, 1.274331, 1.384821, 1.937803, 2.090488, 1.79023, 1.283029, 1.272972, 1.372241, 1.956872, 2.088164, 1.541454, 1.282032, 1.28457, 1.623329, 2.075481, 2.128178, 1.603931, 1.27741, 1.283573, 1.605248, 2.071804, 2.154651, 1.670833, 1.27252, 1.273063, 1.557647, 2.063094, 2.143885, 1.728309, 1.283482, 1.275689, 1.472678, 2.020553]
[1.291375, 1.276957, 1.390153, 1.931738, 2.100851, 1.855952, 1.306277, 1.273968, 1.360047, 1.912211, 2.135934, 1.895296, 1.317656, 1.272429, 1.364812, 1.871488, 2.135643, 1.936166, 1.357024, 1.279313, 1.320299, 1.829134, 2.119551, 1.972294, 1.373525, 1.281941, 1.315925, 1.767526, 2.088164, 1.99564, 1.394845, 1.280038, 1.305549, 1.747904, 2.100076, 2.047617, 1.430161, 1.274874, 1.30364, 1.708457, 2.07645, 2.075772, 1.48076, 1.273968, 1.283754, 1.645876, 2.077902, 2.071126, 1.523327, 1.276867, 1.282394, 1.618335, 2.069191, 1.932027, 1.341289, 1.267633, 1.315743, 1.819279, 2.094071, 1.971812, 1.371782, 1.278225, 1.304094, 1.735915, 2.07161, 1.998246, 1.398802, 1.28031, 1.301276, 1.737057, 2.079354, 2.035726, 1.434043, 1.279313, 1.302731, 1.696694, 2.068707, 2.046941, 1.444218, 1.270438, 1.290921, 1.644932, 2.071997, 2.073159, 1.5237, 1.278316, 1.286384, 1.62578, 2.09688, 2.092328, 1.576962, 1.280944, 1.279675, 1.605342, 2.07887, 2.095427, 1.595278, 1.283029, 1.284298, 1.570957, 2.06203, 2.139328, 1.682573, 1.27886, 1.273968, 1.530612, 2.039979, 2.139231, 1.708267, 1.288199, 1.272067, 1.483176, 2.003458, 2.145631, 1.780019, 1.288108, 1.268718, 1.416127, 1.944061, 2.108602, 1.741813, 1.2804, 1.265824, 1.296279, 1.840335, 2.222013, 1.93761, 1.397145, 1.367929, 1.597441, 2.138843, 2.333668, 2.067449, 1.413914, 1.295915, 1.3562, 1.895392, 2.10153, 1.946276, 1.344305, 1.284208, 1.330148, 2.043266, 2.115578, 1.666197, 1.28321, 1.273154, 1.490988, 2.000466, 2.123719, 1.733253, 1.291012, 1.270528, 1.424064, 1.950803, 2.129923, 1.790421, 1.291466, 1.274783, 1.378207, 1.921924, 2.111799, 1.853364, 1.297187, 1.270528, 1.350616, 1.882236, 2.094846, 1.885788, 1.304731, 1.27424, 1.322851, 1.843687, 2.060482, 1.911922, 1.329326, 1.274059, 1.320754, 1.838802, 2.075869, 1.954271, 1.360413, 1.274602, 1.304367, 1.749998, 2.053517, 1.967185, 1.383075, 1.275327, 1.286203, 1.678406, 2.033309, 1.947817, 1.393096, 1.267, 1.286112, 1.64125, 2.041526, 1.969691, 1.438112, 1.275508, 1.273244, 1.61033, 2.01495, 2.027607, 1.456629, 1.271343, 1.276232, 1.572927, 2.014467, 2.046844, 1.532387, 1.276142, 1.278769, 1.557085, 2.019877, 2.11083, 1.601109, 1.281125, 1.291375, 1.567675, 2.050616, 2.149122, 1.692901, 1.289106, 1.27261, 1.5209, 2.045877, 2.140588, 1.748285, 1.290921, 1.289016, 1.696599, 2.118292, 2.079838, 1.541267, 1.272067, 1.287473, 1.671685, 2.086712, 2.095233, 1.546787, 1.275327, 1.280853, 1.636909, 2.08342, 2.106179, 1.594808, 1.282032, 1.287201, 1.57152, 2.047908, 2.117613, 1.622858, 1.279947, 1.277682, 1.571614, 2.031666, 2.141267, 1.679068, 1.284117, 1.277591, 1.510826, 2.02838, 2.13128, 1.733157, 1.283482, 1.275327, 1.441164, 1.979141, 2.134286, 1.795195, 1.289651, 1.279222, 1.391901, 1.976537, 2.1402, 1.869953, 1.304549, 1.278135, 1.347323, 1.944253, 2.120812, 1.904424, 1.32203, 1.276051, 1.331425, 1.878876, 2.115094, 1.923752, 1.349518, 1.279494, 1.331882, 1.838515, 2.09688, 1.939054, 1.37325, 1.275327, 1.308006, 1.788703, 2.084775, 1.959089, 1.367746, 1.273878, 1.294553, 1.736296, 2.078095, 2.009252, 1.430808, 1.282032, 1.302094, 1.737152, 2.099786, 2.05729, 1.480945, 1.277772, 1.283664, 1.693849, 2.080806, 2.008962, 1.314741, 1.275961, 1.356291, 1.888477, 2.140006, 1.951285, 1.352172, 1.281306, 1.33599, 1.846273, 2.123041, 1.944831, 1.384637, 1.279766, 1.314195, 1.812108, 2.118679, 1.993999, 1.4358, 1.2804, 1.313922, 1.763619, 2.105017, 2.008576, 1.363712, 1.2651, 1.267814, 1.584848, 1.976441, 2.169688, 1.551935, 1.301367, 1.428128, 1.938958, 2.332988, 2.313254, 1.689868, 1.304367, 1.308279, 1.722987, 2.072384, 2.129535, 1.557647, 1.277229, 1.288925, 1.630117, 2.085453, 2.117419, 1.609954, 1.271162, 1.287654, 1.562238, 2.050035, 2.110249, 1.620596, 1.276504, 1.285024, 1.491825, 2.045007, 2.106955, 1.709406, 1.287019, 1.280944, 1.456629, 2.02094, 2.109764, 1.778206, 1.285477, 1.270528, 1.437464, 1.969787, 2.111702, 1.804843, 1.303913, 1.274512, 1.369122, 1.950418, 2.108698, 1.854419, 1.303549, 1.278769, 1.373067, 1.8879, 2.108989, 1.891838, 1.314104, 1.273606, 1.340009, 1.918173, 2.097558, 1.606001, 1.271252, 1.27886, 1.474535, 1.994771, 2.086518, 1.666954, 1.276142, 1.271705, 1.403498, 1.961209, 2.062417, 1.711495, 1.290104, 1.262388, 1.36078, 1.907116, 2.040075, 1.740957, 1.288471, 1.268809, 1.338639, 1.880316, 2.079257, 1.798442, 1.304458, 1.268718, 1.34961, 1.890781, 2.09533, 1.875709, 1.320481, 1.263925, 1.34266, 1.859019, 2.121005, 1.937514, 1.361146, 1.28584, 1.333068, 1.849339, 2.109183, 1.977309, 1.388314, 1.274964, 1.315925, 1.792904, 2.108311, 2.020553, 1.420095, 1.285568, 1.307642, 1.776871, 2.102789, 2.054098, 1.433118, 1.283029, 1.296097, 1.73002, 2.088551, 2.064546, 1.476764, 1.273335, 1.300276, 1.701246, 2.110152, 2.100948, 1.5322, 1.272791, 1.29855, 1.631532, 2.099495, 2.114319, 1.577994, 1.278859, 1.281397, 1.600544, 2.084194, 2.105889, 1.63823, 1.278769, 1.269623, 1.564207, 2.064352, 2.115287, 1.685036, 1.289288, 1.290558, 1.745049, 2.07945, 2.059515, 1.431362, 1.279856, 1.301094, 1.744192, 2.119649, 2.090004, 1.496944, 1.283301, 1.291738, 1.682762, 2.090295, 2.101723, 1.541361, 1.28448, 1.300185, 1.627571, 2.08797, 2.094749, 1.596689, 1.280672, 1.285568, 1.590391, 2.070546, 2.101917, 1.659483, 1.281307, 1.274783, 1.559615, 2.061063, 2.135159, 1.675565, 1.286294, 1.275779, 1.489965, 2.027896, 2.108117, 1.721277, 1.275055, 1.272701, 1.455517, 1.985893, 2.136419, 1.796914, 1.295915, 1.271705, 1.431732, 1.953982, 2.1563, 1.854035, 1.296914, 1.277591, 1.388498, 1.94175, 2.120521, 1.8952, 1.321119, 1.276595, 1.364262, 1.899812, 2.151353, 1.929621, 1.335625, 1.282213, 1.34961, 1.893567, 2.11616, 1.979816, 1.351714, 1.275146, 1.322212, 1.847615, 2.117517, 2.003652, 1.386108, 1.277954, 1.31629, 1.720707, 1.997474, 1.865348, 1.308643, 1.265462, 1.336538, 1.847519, 2.23464, 2.321419, 1.513996, 1.33389, 1.604872, 2.131959, 2.232891, 1.949165, 1.335716, 1.279222, 1.363896, 1.921732, 2.121684, 1.912018, 1.321483, 1.27089, 1.343026, 1.882332, 2.078095, 1.927119, 1.319387, 1.280763, 1.325951, 1.855473, 2.09688, 1.960245, 1.345311, 1.274964, 1.314741, 1.797774, 2.087777, 1.978466, 1.377564, 1.271705, 1.316199, 1.725647, 2.081193, 1.994964, 1.430069, 1.28321, 1.30064, 1.702479, 2.092618, 2.039786, 1.47983, 1.276504, 1.290195, 1.673388, 2.079063, 2.073255, 1.503184, 1.276957, 1.28031, 1.614285, 2.064159, 2.075191, 1.538556, 1.279585, 1.277863, 1.59603, 2.038142, 2.077514, 1.554182, 1.27587, 1.279041, 1.537995, 1.996219, 2.07374, 1.589827, 1.274512, 1.275327, 1.473699, 1.977309, 2.071223, 1.628514, 1.27089, 1.270619, 1.433303, 1.937321, 2.064255, 1.67566, 1.274783, 1.274331, 1.384821, 1.937803, 2.090488, 1.79023, 1.283029, 1.272972, 1.372241, 1.956872, 2.088164, 1.541454, 1.282032, 1.28457, 1.623329, 2.075481, 2.128178, 1.603931, 1.27741, 1.283573, 1.605248, 2.071804, 2.154651, 1.670833, 1.27252, 1.273063, 1.557647, 2.063094, 2.143885, 1.728309, 1.283482, 1.275689, 1.472678, 2.020553, 2.126821, 1.786507, 1.295007, 1.278225, 1.434228, 1.984254, 2.130893, 1.839664, 1.294553, 1.271976, 1.403591, 1.973837, 2.133898, 1.874942, 1.310281, 1.271071, 1.354186, 1.919712, 2.130505, 1.918173, 1.334438, 1.281488, 1.357024, 1.88502, 2.134577, 1.932701, 1.353087, 1.28176, 1.34266, 1.836696, 2.1275, 1.962558, 1.391625, 1.28312, 1.315015, 1.811152, 2.103273, 2.034469, 1.409488, 1.282122, 1.313011, 1.791089, 2.112186, 2.025288, 1.457834, 1.281669, 1.294644, 1.765906, 2.097461, 2.06232, 1.488383, 1.286203, 1.298004, 1.724507, 2.095427, 2.140297, 1.570957, 1.281216, 1.286475, 1.666291, 2.099398, 2.132832, 1.626723, 1.287201, 1.299367, 1.822053, 2.123622, 1.975187, 1.410133, 1.284389, 1.317201, 1.806946, 2.11616, 2.025384, 1.44931, 1.28176, 1.303276, 1.764095, 2.092425, 2.031086, 1.467294, 1.285387, 1.292555, 1.714533, 2.087196, 2.082451, 1.507284, 1.28575, 1.292918, 1.705041, 2.08371, 2.131474, 1.579872, 1.279766, 1.30264, 1.665818, 2.108698, 2.13254, 1.625403, 1.280672, 1.291466, 1.633701, 2.093006, 2.138843, 1.670928, 1.282395, 1.286656, 1.580999, 2.07403, 2.146795, 1.722607, 1.279675, 1.287019, 1.56027, 2.094265, 2.194631, 1.776966, 1.292374, 1.282213, 1.482154, 1.95562, 2.051003, 1.678311, 1.272158, 1.266366, 1.552871, 2.07103, 2.312477, 2.128275, 1.540706, 1.361788, 1.632569, 2.138746, 2.299549, 1.985701, 1.392637, 1.286656, 1.393557, 1.945794, 2.146116, 1.945024, 1.344488, 1.282485, 1.348969, 1.887132, 2.127403, 1.960823, 1.367013, 1.281035, 1.315834, 1.852501, 2.103273, 2.015916, 1.402025, 1.269533, 1.49136, 2.00259, 2.154942, 1.787176, 1.295552, 1.269261, 1.42545, 1.974223, 2.159501, 1.850968, 1.314195, 1.270709, 1.400091, 1.941365, 2.147473, 1.877053, 1.324219, 1.277138, 1.364995, 1.915769, 2.120715, 1.920962, 1.690626, 2.134771, 1.870816, 1.308097, 1.275961, 1.370773, 1.930968, 2.114415, 1.914711, 1.323215, 1.2804, 1.340558, 1.881372, 2.093781, 1.946083, 1.348878, 1.272791, 1.327228, 1.850776, 2.119164, 1.984061, 1.372516, 1.272158, 1.328049, 1.810578, 2.094652, 1.991876, 1.411793, 1.273606, 1.305459, 1.689015, 1.992648, 1.889725, 1.318567, 1.27252, 1.35208, 1.785649, 2.242994, 2.31481, 1.746095, 1.353087, 1.379125, 1.851639, 2.210651, 2.181624, 1.569551, 1.279041, 1.290014, 1.636909, 2.090875, 2.104145, 1.554556, 1.281306, 1.282848, 1.605342, 2.033115, 2.112671, 1.593398, 1.273153, 1.267542, 1.564113, 2.039882, 2.118873, 1.63238, 1.28448, 1.273244, 1.499272, 2.01437, 2.115675, 1.690721, 1.280038, 1.276414, 1.443107, 1.965932, 2.094943, 1.746666, 1.28711, 1.276595, 1.396685, 1.942809, 2.104823, 1.812107, 1.285387, 1.267633, 1.366371, 1.912499, 2.10027, 1.843783, 1.279132, 1.278678, 1.605719, 2.043363, 2.08981, 1.500296, 1.275327, 1.281125, 1.545477, 2.026737, 2.059998, 1.532013, 1.27089, 1.271343, 1.501321, 1.99786, 2.043073, 1.545851, 1.272972, 1.273425, 1.448754, 1.968052, 2.041719, 1.60873, 1.273878, 1.27089, 1.370865, 1.936647, 2.040946, 1.702764, 1.28312, 1.271886, 1.387119, 1.930776, 2.064449, 1.767145]
[2.086712, 2.095233, 1.546787, 1.275327, 1.280853, 1.636909, 2.08342, 2.106179, 1.594808, 1.282032, 1.287201, 1.57152, 2.047908, 2.117613, 1.622858, 1.279947, 1.277682, 1.571614, 2.031666, 2.141267, 1.679068, 1.284117, 1.277591, 1.510826, 2.02838, 2.13128, 1.733157, 1.283482, 1.275327, 1.441164, 1.979141, 2.134286, 1.795195, 1.289651, 1.279222, 1.391901, 1.976537, 2.1402, 1.869953, 1.304549, 1.278135, 1.347323, 1.944253, 2.120812, 1.904424, 1.32203, 1.276051, 1.331425, 1.878876, 2.115094, 1.923752, 1.349518, 1.279494, 1.331882, 1.838515, 2.09688, 1.939054, 1.37325, 1.275327, 1.308006, 1.788703, 2.084775, 1.959089, 1.367746, 1.273878, 1.294553, 1.736296, 2.078095, 2.009252, 1.430808, 1.282032, 1.302094, 1.737152, 2.099786, 2.05729, 1.480945, 1.277772, 1.283664, 1.693849, 2.080806, 2.008962, 1.314741, 1.275961, 1.356291, 1.888477, 2.140006, 1.951285, 1.352172, 1.281306, 1.33599, 1.846273, 2.123041, 1.944831, 1.384637, 1.279766, 1.314195, 1.812108, 2.118679, 1.993999, 1.4358, 1.2804, 1.313922, 1.763619, 2.105017, 2.008576, 1.363712, 1.2651, 1.267814, 1.584848, 1.976441, 2.169688, 1.551935, 1.301367, 1.428128, 1.938958, 2.332988, 2.313254, 1.689868, 1.304367, 1.308279, 1.722987, 2.072384, 2.129535, 1.557647, 1.277229, 1.288925, 1.630117, 2.085453, 2.117419, 1.609954, 1.271162, 1.287654, 1.562238, 2.050035, 2.110249, 1.620596, 1.276504, 1.285024, 1.491825, 2.045007, 2.106955, 1.709406, 1.287019, 1.280944, 1.456629, 2.02094, 2.109764, 1.778206, 1.285477, 1.270528, 1.437464, 1.969787, 2.111702, 1.804843, 1.303913, 1.274512, 1.369122, 1.950418, 2.108698, 1.854419, 1.303549, 1.278769, 1.373067, 1.8879, 2.108989, 1.891838, 1.314104, 1.273606, 1.340009, 1.918173, 2.097558, 1.606001, 1.271252, 1.27886, 1.474535, 1.994771, 2.086518, 1.666954, 1.276142, 1.271705, 1.403498, 1.961209, 2.062417, 1.711495, 1.290104, 1.262388, 1.36078, 1.907116, 2.040075, 1.740957, 1.288471, 1.268809, 1.338639, 1.880316, 2.079257, 1.798442, 1.304458, 1.268718, 1.34961, 1.890781, 2.09533, 1.875709, 1.320481, 1.263925, 1.34266, 1.859019, 2.121005, 1.937514, 1.361146, 1.28584, 1.333068, 1.849339, 2.109183, 1.977309, 1.388314, 1.274964, 1.315925, 1.792904, 2.108311, 2.020553, 1.420095, 1.285568, 1.307642, 1.776871, 2.102789, 2.054098, 1.433118, 1.283029, 1.296097, 1.73002, 2.088551, 2.064546, 1.476764, 1.273335, 1.300276, 1.701246, 2.110152, 2.100948, 1.5322, 1.272791, 1.29855, 1.631532, 2.099495, 2.114319, 1.577994, 1.278859, 1.281397, 1.600544, 2.084194, 2.105889, 1.63823, 1.278769, 1.269623, 1.564207, 2.064352, 2.115287, 1.685036, 1.289288, 1.290558, 1.745049, 2.07945, 2.059515, 1.431362, 1.279856, 1.301094, 1.744192, 2.119649, 2.090004, 1.496944, 1.283301, 1.291738, 1.682762, 2.090295, 2.101723, 1.541361, 1.28448, 1.300185, 1.627571, 2.08797, 2.094749, 1.596689, 1.280672, 1.285568, 1.590391, 2.070546, 2.101917, 1.659483, 1.281307, 1.274783, 1.559615, 2.061063, 2.135159, 1.675565, 1.286294, 1.275779, 1.489965, 2.027896, 2.108117, 1.721277, 1.275055, 1.272701, 1.455517, 1.985893, 2.136419, 1.796914, 1.295915, 1.271705, 1.431732, 1.953982, 2.1563, 1.854035, 1.296914, 1.277591, 1.388498, 1.94175, 2.120521, 1.8952, 1.321119, 1.276595, 1.364262, 1.899812, 2.151353, 1.929621, 1.335625, 1.282213, 1.34961, 1.893567, 2.11616, 1.979816, 1.351714, 1.275146, 1.322212, 1.847615, 2.117517, 2.003652, 1.386108, 1.277954, 1.31629, 1.720707, 1.997474, 1.865348, 1.308643, 1.265462, 1.336538, 1.847519, 2.23464, 2.321419, 1.513996, 1.33389, 1.604872, 2.131959, 2.232891, 1.949165, 1.335716, 1.279222, 1.363896, 1.921732, 2.121684, 1.912018, 1.321483, 1.27089, 1.343026, 1.882332, 2.078095, 1.927119, 1.319387, 1.280763, 1.325951, 1.855473, 2.09688, 1.960245, 1.345311, 1.274964, 1.314741, 1.797774, 2.087777, 1.978466, 1.377564, 1.271705, 1.316199, 1.725647, 2.081193, 1.994964, 1.430069, 1.28321, 1.30064, 1.702479, 2.092618, 2.039786, 1.47983, 1.276504, 1.290195, 1.673388, 2.079063, 2.073255, 1.503184, 1.276957, 1.28031, 1.614285, 2.064159, 2.075191, 1.538556, 1.279585, 1.277863, 1.59603, 2.038142, 2.077514, 1.554182, 1.27587, 1.279041, 1.537995, 1.996219, 2.07374, 1.589827, 1.274512, 1.275327, 1.473699, 1.977309, 2.071223, 1.628514, 1.27089, 1.270619, 1.433303, 1.937321, 2.064255, 1.67566, 1.274783, 1.274331, 1.384821, 1.937803, 2.090488, 1.79023, 1.283029, 1.272972, 1.372241, 1.956872, 2.088164, 1.541454, 1.282032, 1.28457, 1.623329, 2.075481, 2.128178, 1.603931, 1.27741, 1.283573, 1.605248, 2.071804, 2.154651, 1.670833, 1.27252, 1.273063, 1.557647, 2.063094, 2.143885, 1.728309, 1.283482, 1.275689, 1.472678, 2.020553, 2.126821, 1.786507, 1.295007, 1.278225, 1.434228, 1.984254, 2.130893, 1.839664, 1.294553, 1.271976, 1.403591, 1.973837, 2.133898, 1.874942, 1.310281, 1.271071, 1.354186, 1.919712, 2.130505, 1.918173, 1.334438, 1.281488, 1.357024, 1.88502, 2.134577, 1.932701, 1.353087, 1.28176, 1.34266, 1.836696, 2.1275, 1.962558, 1.391625, 1.28312, 1.315015, 1.811152, 2.103273, 2.034469, 1.409488, 1.282122, 1.313011, 1.791089, 2.112186, 2.025288, 1.457834, 1.281669, 1.294644, 1.765906, 2.097461, 2.06232, 1.488383, 1.286203, 1.298004, 1.724507, 2.095427, 2.140297, 1.570957, 1.281216, 1.286475, 1.666291, 2.099398, 2.132832, 1.626723, 1.287201, 1.299367, 1.822053, 2.123622, 1.975187, 1.410133, 1.284389, 1.317201, 1.806946, 2.11616, 2.025384, 1.44931, 1.28176, 1.303276, 1.764095, 2.092425, 2.031086, 1.467294, 1.285387, 1.292555, 1.714533, 2.087196, 2.082451, 1.507284, 1.28575, 1.292918, 1.705041, 2.08371, 2.131474, 1.579872, 1.279766, 1.30264, 1.665818, 2.108698, 2.13254, 1.625403, 1.280672, 1.291466, 1.633701, 2.093006, 2.138843, 1.670928, 1.282395, 1.286656, 1.580999, 2.07403, 2.146795, 1.722607, 1.279675, 1.287019, 1.56027, 2.094265, 2.194631, 1.776966, 1.292374, 1.282213, 1.482154, 1.95562, 2.051003, 1.678311, 1.272158, 1.266366, 1.552871, 2.07103, 2.312477, 2.128275, 1.540706, 1.361788, 1.632569, 2.138746, 2.299549, 1.985701, 1.392637, 1.286656, 1.393557, 1.945794, 2.146116, 1.945024, 1.344488, 1.282485, 1.348969, 1.887132, 2.127403, 1.960823, 1.367013, 1.281035, 1.315834, 1.852501, 2.103273, 2.015916, 1.402025, 1.269533, 1.49136, 2.00259, 2.154942, 1.787176, 1.295552, 1.269261, 1.42545, 1.974223, 2.159501, 1.850968, 1.314195, 1.270709, 1.400091, 1.941365, 2.147473, 1.877053, 1.324219, 1.277138, 1.364995, 1.915769, 2.120715, 1.920962, 1.690626, 2.134771, 1.870816, 1.308097, 1.275961, 1.370773, 1.930968, 2.114415, 1.914711, 1.323215, 1.2804, 1.340558, 1.881372, 2.093781, 1.946083, 1.348878, 1.272791, 1.327228, 1.850776, 2.119164, 1.984061, 1.372516, 1.272158, 1.328049, 1.810578, 2.094652, 1.991876, 1.411793, 1.273606, 1.305459, 1.689015, 1.992648, 1.889725, 1.318567, 1.27252, 1.35208, 1.785649, 2.242994, 2.31481, 1.746095, 1.353087, 1.379125, 1.851639, 2.210651, 2.181624, 1.569551, 1.279041, 1.290014, 1.636909, 2.090875, 2.104145, 1.554556, 1.281306, 1.282848, 1.605342, 2.033115, 2.112671, 1.593398, 1.273153, 1.267542, 1.564113, 2.039882, 2.118873, 1.63238, 1.28448, 1.273244, 1.499272, 2.01437, 2.115675, 1.690721, 1.280038, 1.276414, 1.443107, 1.965932, 2.094943, 1.746666, 1.28711, 1.276595, 1.396685, 1.942809, 2.104823, 1.812107, 1.285387, 1.267633, 1.366371, 1.912499, 2.10027, 1.843783, 1.279132, 1.278678, 1.605719, 2.043363, 2.08981, 1.500296, 1.275327, 1.281125, 1.545477, 2.026737, 2.059998, 1.532013, 1.27089, 1.271343, 1.501321, 1.99786, 2.043073, 1.545851, 1.272972, 1.273425, 1.448754, 1.968052, 2.041719, 1.60873, 1.273878, 1.27089, 1.370865, 1.936647, 2.040946, 1.702764, 1.28312, 1.271886, 1.387119, 1.930776, 2.064449, 1.767145, 1.291375, 1.276957, 1.390153, 1.931738, 2.100851, 1.855952, 1.306277, 1.273968, 1.360047, 1.912211, 2.135934, 1.895296, 1.317656, 1.272429, 1.364812, 1.871488, 2.135643, 1.936166, 1.357024, 1.279313, 1.320299, 1.829134, 2.119551, 1.972294, 1.373525, 1.281941, 1.315925, 1.767526, 2.088164, 1.99564, 1.394845, 1.280038, 1.305549, 1.747904, 2.100076, 2.047617, 1.430161, 1.274874, 1.30364, 1.708457, 2.07645, 2.075772, 1.48076, 1.273968, 1.283754, 1.645876, 2.077902, 2.071126, 1.523327, 1.276867, 1.282394, 1.618335, 2.069191, 1.932027, 1.341289, 1.267633, 1.315743, 1.819279, 2.094071, 1.971812, 1.371782, 1.278225, 1.304094, 1.735915, 2.07161, 1.998246, 1.398802, 1.28031, 1.301276, 1.737057, 2.079354, 2.035726, 1.434043, 1.279313, 1.302731, 1.696694, 2.068707, 2.046941, 1.444218, 1.270438, 1.290921, 1.644932, 2.071997, 2.073159, 1.5237, 1.278316, 1.286384, 1.62578, 2.09688, 2.092328, 1.576962, 1.280944, 1.279675, 1.605342, 2.07887, 2.095427, 1.595278, 1.283029, 1.284298, 1.570957, 2.06203, 2.139328, 1.682573, 1.27886, 1.273968, 1.530612, 2.039979, 2.139231, 1.708267, 1.288199, 1.272067, 1.483176, 2.003458, 2.145631, 1.780019, 1.288108, 1.268718, 1.416127, 1.944061, 2.108602, 1.741813, 1.2804, 1.265824, 1.296279, 1.840335, 2.222013, 1.93761, 1.397145, 1.367929, 1.597441, 2.138843, 2.333668, 2.067449, 1.413914, 1.295915, 1.3562, 1.895392, 2.10153, 1.946276, 1.344305, 1.284208, 1.330148, 2.043266, 2.115578, 1.666197, 1.28321, 1.273154, 1.490988, 2.000466, 2.123719, 1.733253, 1.291012, 1.270528, 1.424064, 1.950803, 2.129923, 1.790421, 1.291466, 1.274783, 1.378207, 1.921924, 2.111799, 1.853364, 1.297187, 1.270528, 1.350616, 1.882236, 2.094846, 1.885788, 1.304731, 1.27424, 1.322851, 1.843687, 2.060482, 1.911922, 1.329326, 1.274059, 1.320754, 1.838802, 2.075869, 1.954271, 1.360413, 1.274602, 1.304367, 1.749998, 2.053517, 1.967185, 1.383075, 1.275327, 1.286203, 1.678406, 2.033309, 1.947817, 1.393096, 1.267, 1.286112, 1.64125, 2.041526, 1.969691, 1.438112, 1.275508, 1.273244, 1.61033, 2.01495, 2.027607, 1.456629, 1.271343, 1.276232, 1.572927, 2.014467, 2.046844, 1.532387, 1.276142, 1.278769, 1.557085, 2.019877, 2.11083, 1.601109, 1.281125, 1.291375, 1.567675, 2.050616, 2.149122, 1.692901, 1.289106, 1.27261, 1.5209, 2.045877, 2.140588, 1.748285, 1.290921, 1.289016, 1.696599, 2.118292, 2.079838, 1.541267, 1.272067, 1.287473, 1.671685]
[1.590391, 2.070546, 2.101917, 1.659483, 1.281307, 1.274783, 1.559615, 2.061063, 2.135159, 1.675565, 1.286294, 1.275779, 1.489965, 2.027896, 2.108117, 1.721277, 1.275055, 1.272701, 1.455517, 1.985893, 2.136419, 1.796914, 1.295915, 1.271705, 1.431732, 1.953982, 2.1563, 1.854035, 1.296914, 1.277591, 1.388498, 1.94175, 2.120521, 1.8952, 1.321119, 1.276595, 1.364262, 1.899812, 2.151353, 1.929621, 1.335625, 1.282213, 1.34961, 1.893567, 2.11616, 1.979816, 1.351714, 1.275146, 1.322212, 1.847615, 2.117517, 2.003652, 1.386108, 1.277954, 1.31629, 1.720707, 1.997474, 1.865348, 1.308643, 1.265462, 1.336538, 1.847519, 2.23464, 2.321419, 1.513996, 1.33389, 1.604872, 2.131959, 2.232891, 1.949165, 1.335716, 1.279222, 1.363896, 1.921732, 2.121684, 1.912018, 1.321483, 1.27089, 1.343026, 1.882332, 2.078095, 1.927119, 1.319387, 1.280763, 1.325951, 1.855473, 2.09688, 1.960245, 1.345311, 1.274964, 1.314741, 1.797774, 2.087777, 1.978466, 1.377564, 1.271705, 1.316199, 1.725647, 2.081193, 1.994964, 1.430069, 1.28321, 1.30064, 1.702479, 2.092618, 2.039786, 1.47983, 1.276504, 1.290195, 1.673388, 2.079063, 2.073255, 1.503184, 1.276957, 1.28031, 1.614285, 2.064159, 2.075191, 1.538556, 1.279585, 1.277863, 1.59603, 2.038142, 2.077514, 1.554182, 1.27587, 1.279041, 1.537995, 1.996219, 2.07374, 1.589827, 1.274512, 1.275327, 1.473699, 1.977309, 2.071223, 1.628514, 1.27089, 1.270619, 1.433303, 1.937321, 2.064255, 1.67566, 1.274783, 1.274331, 1.384821, 1.937803, 2.090488, 1.79023, 1.283029, 1.272972, 1.372241, 1.956872, 2.088164, 1.541454, 1.282032, 1.28457, 1.623329, 2.075481, 2.128178, 1.603931, 1.27741, 1.283573, 1.605248, 2.071804, 2.154651, 1.670833, 1.27252, 1.273063, 1.557647, 2.063094, 2.143885, 1.728309, 1.283482, 1.275689, 1.472678, 2.020553, 2.126821, 1.786507, 1.295007, 1.278225, 1.434228, 1.984254, 2.130893, 1.839664, 1.294553, 1.271976, 1.403591, 1.973837, 2.133898, 1.874942, 1.310281, 1.271071, 1.354186, 1.919712, 2.130505, 1.918173, 1.334438, 1.281488, 1.357024, 1.88502, 2.134577, 1.932701, 1.353087, 1.28176, 1.34266, 1.836696, 2.1275, 1.962558, 1.391625, 1.28312, 1.315015, 1.811152, 2.103273, 2.034469, 1.409488, 1.282122, 1.313011, 1.791089, 2.112186, 2.025288, 1.457834, 1.281669, 1.294644, 1.765906, 2.097461, 2.06232, 1.488383, 1.286203, 1.298004, 1.724507, 2.095427, 2.140297, 1.570957, 1.281216, 1.286475, 1.666291, 2.099398, 2.132832, 1.626723, 1.287201, 1.299367, 1.822053, 2.123622, 1.975187, 1.410133, 1.284389, 1.317201, 1.806946, 2.11616, 2.025384, 1.44931, 1.28176, 1.303276, 1.764095, 2.092425, 2.031086, 1.467294, 1.285387, 1.292555, 1.714533, 2.087196, 2.082451, 1.507284, 1.28575, 1.292918, 1.705041, 2.08371, 2.131474, 1.579872, 1.279766, 1.30264, 1.665818, 2.108698, 2.13254, 1.625403, 1.280672, 1.291466, 1.633701, 2.093006, 2.138843, 1.670928, 1.282395, 1.286656, 1.580999, 2.07403, 2.146795, 1.722607, 1.279675, 1.287019, 1.56027, 2.094265, 2.194631, 1.776966, 1.292374, 1.282213, 1.482154, 1.95562, 2.051003, 1.678311, 1.272158, 1.266366, 1.552871, 2.07103, 2.312477, 2.128275, 1.540706, 1.361788, 1.632569, 2.138746, 2.299549, 1.985701, 1.392637, 1.286656, 1.393557, 1.945794, 2.146116, 1.945024, 1.344488, 1.282485, 1.348969, 1.887132, 2.127403, 1.960823, 1.367013, 1.281035, 1.315834, 1.852501, 2.103273, 2.015916, 1.402025, 1.269533, 1.49136, 2.00259, 2.154942, 1.787176, 1.295552, 1.269261, 1.42545, 1.974223, 2.159501, 1.850968, 1.314195, 1.270709, 1.400091, 1.941365, 2.147473, 1.877053, 1.324219, 1.277138, 1.364995, 1.915769, 2.120715, 1.920962, 1.690626, 2.134771, 1.870816, 1.308097, 1.275961, 1.370773, 1.930968, 2.114415, 1.914711, 1.323215, 1.2804, 1.340558, 1.881372, 2.093781, 1.946083, 1.348878, 1.272791, 1.327228, 1.850776, 2.119164, 1.984061, 1.372516, 1.272158, 1.328049, 1.810578, 2.094652, 1.991876, 1.411793, 1.273606, 1.305459, 1.689015, 1.992648, 1.889725, 1.318567, 1.27252, 1.35208, 1.785649, 2.242994, 2.31481, 1.746095, 1.353087, 1.379125, 1.851639, 2.210651, 2.181624, 1.569551, 1.279041, 1.290014, 1.636909, 2.090875, 2.104145, 1.554556, 1.281306, 1.282848, 1.605342, 2.033115, 2.112671, 1.593398, 1.273153, 1.267542, 1.564113, 2.039882, 2.118873, 1.63238, 1.28448, 1.273244, 1.499272, 2.01437, 2.115675, 1.690721, 1.280038, 1.276414, 1.443107, 1.965932, 2.094943, 1.746666, 1.28711, 1.276595, 1.396685, 1.942809, 2.104823, 1.812107, 1.285387, 1.267633, 1.366371, 1.912499, 2.10027, 1.843783, 1.279132, 1.278678, 1.605719, 2.043363, 2.08981, 1.500296, 1.275327, 1.281125, 1.545477, 2.026737, 2.059998, 1.532013, 1.27089, 1.271343, 1.501321, 1.99786, 2.043073, 1.545851, 1.272972, 1.273425, 1.448754, 1.968052, 2.041719, 1.60873, 1.273878, 1.27089, 1.370865, 1.936647, 2.040946, 1.702764, 1.28312, 1.271886, 1.387119, 1.930776, 2.064449, 1.767145, 1.291375, 1.276957, 1.390153, 1.931738, 2.100851, 1.855952, 1.306277, 1.273968, 1.360047, 1.912211, 2.135934, 1.895296, 1.317656, 1.272429, 1.364812, 1.871488, 2.135643, 1.936166, 1.357024, 1.279313, 1.320299, 1.829134, 2.119551, 1.972294, 1.373525, 1.281941, 1.315925, 1.767526, 2.088164, 1.99564, 1.394845, 1.280038, 1.305549, 1.747904, 2.100076, 2.047617, 1.430161, 1.274874, 1.30364, 1.708457, 2.07645, 2.075772, 1.48076, 1.273968, 1.283754, 1.645876, 2.077902, 2.071126, 1.523327, 1.276867, 1.282394, 1.618335, 2.069191, 1.932027, 1.341289, 1.267633, 1.315743, 1.819279, 2.094071, 1.971812, 1.371782, 1.278225, 1.304094, 1.735915, 2.07161, 1.998246, 1.398802, 1.28031, 1.301276, 1.737057, 2.079354, 2.035726, 1.434043, 1.279313, 1.302731, 1.696694, 2.068707, 2.046941, 1.444218, 1.270438, 1.290921, 1.644932, 2.071997, 2.073159, 1.5237, 1.278316, 1.286384, 1.62578, 2.09688, 2.092328, 1.576962, 1.280944, 1.279675, 1.605342, 2.07887, 2.095427, 1.595278, 1.283029, 1.284298, 1.570957, 2.06203, 2.139328, 1.682573, 1.27886, 1.273968, 1.530612, 2.039979, 2.139231, 1.708267, 1.288199, 1.272067, 1.483176, 2.003458, 2.145631, 1.780019, 1.288108, 1.268718, 1.416127, 1.944061, 2.108602, 1.741813, 1.2804, 1.265824, 1.296279, 1.840335, 2.222013, 1.93761, 1.397145, 1.367929, 1.597441, 2.138843, 2.333668, 2.067449, 1.413914, 1.295915, 1.3562, 1.895392, 2.10153, 1.946276, 1.344305, 1.284208, 1.330148, 2.043266, 2.115578, 1.666197, 1.28321, 1.273154, 1.490988, 2.000466, 2.123719, 1.733253, 1.291012, 1.270528, 1.424064, 1.950803, 2.129923, 1.790421, 1.291466, 1.274783, 1.378207, 1.921924, 2.111799, 1.853364, 1.297187, 1.270528, 1.350616, 1.882236, 2.094846, 1.885788, 1.304731, 1.27424, 1.322851, 1.843687, 2.060482, 1.911922, 1.329326, 1.274059, 1.320754, 1.838802, 2.075869, 1.954271, 1.360413, 1.274602, 1.304367, 1.749998, 2.053517, 1.967185, 1.383075, 1.275327, 1.286203, 1.678406, 2.033309, 1.947817, 1.393096, 1.267, 1.286112, 1.64125, 2.041526, 1.969691, 1.438112, 1.275508, 1.273244, 1.61033, 2.01495, 2.027607, 1.456629, 1.271343, 1.276232, 1.572927, 2.014467, 2.046844, 1.532387, 1.276142, 1.278769, 1.557085, 2.019877, 2.11083, 1.601109, 1.281125, 1.291375, 1.567675, 2.050616, 2.149122, 1.692901, 1.289106, 1.27261, 1.5209, 2.045877, 2.140588, 1.748285, 1.290921, 1.289016, 1.696599, 2.118292, 2.079838, 1.541267, 1.272067, 1.287473, 1.671685, 2.086712, 2.095233, 1.546787, 1.275327, 1.280853, 1.636909, 2.08342, 2.106179, 1.594808, 1.282032, 1.287201, 1.57152, 2.047908, 2.117613, 1.622858, 1.279947, 1.277682, 1.571614, 2.031666, 2.141267, 1.679068, 1.284117, 1.277591, 1.510826, 2.02838, 2.13128, 1.733157, 1.283482, 1.275327, 1.441164, 1.979141, 2.134286, 1.795195, 1.289651, 1.279222, 1.391901, 1.976537, 2.1402, 1.869953, 1.304549, 1.278135, 1.347323, 1.944253, 2.120812, 1.904424, 1.32203, 1.276051, 1.331425, 1.878876, 2.115094, 1.923752, 1.349518, 1.279494, 1.331882, 1.838515, 2.09688, 1.939054, 1.37325, 1.275327, 1.308006, 1.788703, 2.084775, 1.959089, 1.367746, 1.273878, 1.294553, 1.736296, 2.078095, 2.009252, 1.430808, 1.282032, 1.302094, 1.737152, 2.099786, 2.05729, 1.480945, 1.277772, 1.283664, 1.693849, 2.080806, 2.008962, 1.314741, 1.275961, 1.356291, 1.888477, 2.140006, 1.951285, 1.352172, 1.281306, 1.33599, 1.846273, 2.123041, 1.944831, 1.384637, 1.279766, 1.314195, 1.812108, 2.118679, 1.993999, 1.4358, 1.2804, 1.313922, 1.763619, 2.105017, 2.008576, 1.363712, 1.2651, 1.267814, 1.584848, 1.976441, 2.169688, 1.551935, 1.301367, 1.428128, 1.938958, 2.332988, 2.313254, 1.689868, 1.304367, 1.308279, 1.722987, 2.072384, 2.129535, 1.557647, 1.277229, 1.288925, 1.630117, 2.085453, 2.117419, 1.609954, 1.271162, 1.287654, 1.562238, 2.050035, 2.110249, 1.620596, 1.276504, 1.285024, 1.491825, 2.045007, 2.106955, 1.709406, 1.287019, 1.280944, 1.456629, 2.02094, 2.109764, 1.778206, 1.285477, 1.270528, 1.437464, 1.969787, 2.111702, 1.804843, 1.303913, 1.274512, 1.369122, 1.950418, 2.108698, 1.854419, 1.303549, 1.278769, 1.373067, 1.8879, 2.108989, 1.891838, 1.314104, 1.273606, 1.340009, 1.918173, 2.097558, 1.606001, 1.271252, 1.27886, 1.474535, 1.994771, 2.086518, 1.666954, 1.276142, 1.271705, 1.403498, 1.961209, 2.062417, 1.711495, 1.290104, 1.262388, 1.36078, 1.907116, 2.040075, 1.740957, 1.288471, 1.268809, 1.338639, 1.880316, 2.079257, 1.798442, 1.304458, 1.268718, 1.34961, 1.890781, 2.09533, 1.875709, 1.320481, 1.263925, 1.34266, 1.859019, 2.121005, 1.937514, 1.361146, 1.28584, 1.333068, 1.849339, 2.109183, 1.977309, 1.388314, 1.274964, 1.315925, 1.792904, 2.108311, 2.020553, 1.420095, 1.285568, 1.307642, 1.776871, 2.102789, 2.054098, 1.433118, 1.283029, 1.296097, 1.73002, 2.088551, 2.064546, 1.476764, 1.273335, 1.300276, 1.701246, 2.110152, 2.100948, 1.5322, 1.272791, 1.29855, 1.631532, 2.099495, 2.114319, 1.577994, 1.278859, 1.281397, 1.600544, 2.084194, 2.105889, 1.63823, 1.278769, 1.269623, 1.564207, 2.064352, 2.115287, 1.685036, 1.289288, 1.290558, 1.745049, 2.07945, 2.059515, 1.431362, 1.279856, 1.301094, 1.744192, 2.119649, 2.090004, 1.496944, 1.283301, 1.291738, 1.682762, 2.090295, 2.101723, 1.541361, 1.28448, 1.300185, 1.627571, 2.08797, 2.094749, 1.596689, 1.280672, 1.285568]
[2.143885, 1.728309, 1.283482, 1.275689, 1.472678, 2.020553, 2.126821, 1.786507, 1.295007, 1.278225, 1.434228, 1.984254, 2.130893, 1.839664, 1.294553, 1.271976, 1.403591, 1.973837, 2.133898, 1.874942, 1.310281, 1.271071, 1.354186, 1.919712, 2.130505, 1.918173, 1.334438, 1.281488, 1.357024, 1.88502, 2.134577, 1.932701, 1.353087, 1.28176, 1.34266, 1.836696, 2.1275, 1.962558, 1.391625, 1.28312, 1.315015, 1.811152, 2.103273, 2.034469, 1.409488, 1.282122, 1.313011, 1.791089, 2.112186, 2.025288, 1.457834, 1.281669, 1.294644, 1.765906, 2.097461, 2.06232, 1.488383, 1.286203, 1.298004, 1.724507, 2.095427, 2.140297, 1.570957, 1.281216, 1.286475, 1.666291, 2.099398, 2.132832, 1.626723, 1.287201, 1.299367, 1.822053, 2.123622, 1.975187, 1.410133, 1.284389, 1.317201, 1.806946, 2.11616, 2.025384, 1.44931, 1.28176, 1.303276, 1.764095, 2.092425, 2.031086, 1.467294, 1.285387, 1.292555, 1.714533, 2.087196, 2.082451, 1.507284, 1.28575, 1.292918, 1.705041, 2.08371, 2.131474, 1.579872, 1.279766, 1.30264, 1.665818, 2.108698, 2.13254, 1.625403, 1.280672, 1.291466, 1.633701, 2.093006, 2.138843, 1.670928, 1.282395, 1.286656, 1.580999, 2.07403, 2.146795, 1.722607, 1.279675, 1.287019, 1.56027, 2.094265, 2.194631, 1.776966, 1.292374, 1.282213, 1.482154, 1.95562, 2.051003, 1.678311, 1.272158, 1.266366, 1.552871, 2.07103, 2.312477, 2.128275, 1.540706, 1.361788, 1.632569, 2.138746, 2.299549, 1.985701, 1.392637, 1.286656, 1.393557, 1.945794, 2.146116, 1.945024, 1.344488, 1.282485, 1.348969, 1.887132, 2.127403, 1.960823, 1.367013, 1.281035, 1.315834, 1.852501, 2.103273, 2.015916, 1.402025, 1.269533, 1.49136, 2.00259, 2.154942, 1.787176, 1.295552, 1.269261, 1.42545, 1.974223, 2.159501, 1.850968, 1.314195, 1.270709, 1.400091, 1.941365, 2.147473, 1.877053, 1.324219, 1.277138, 1.364995, 1.915769, 2.120715, 1.920962, 1.690626, 2.134771, 1.870816, 1.308097, 1.275961, 1.370773, 1.930968, 2.114415, 1.914711, 1.323215, 1.2804, 1.340558, 1.881372, 2.093781, 1.946083, 1.348878, 1.272791, 1.327228, 1.850776, 2.119164, 1.984061, 1.372516, 1.272158, 1.328049, 1.810578, 2.094652, 1.991876, 1.411793, 1.273606, 1.305459, 1.689015, 1.992648, 1.889725, 1.318567, 1.27252, 1.35208, 1.785649, 2.242994, 2.31481, 1.746095, 1.353087, 1.379125, 1.851639, 2.210651, 2.181624, 1.569551, 1.279041, 1.290014, 1.636909, 2.090875, 2.104145, 1.554556, 1.281306, 1.282848, 1.605342, 2.033115, 2.112671, 1.593398, 1.273153, 1.267542, 1.564113, 2.039882, 2.118873, 1.63238, 1.28448, 1.273244, 1.499272, 2.01437, 2.115675, 1.690721, 1.280038, 1.276414, 1.443107, 1.965932, 2.094943, 1.746666, 1.28711, 1.276595, 1.396685, 1.942809, 2.104823, 1.812107, 1.285387, 1.267633, 1.366371, 1.912499, 2.10027, 1.843783, 1.279132, 1.278678, 1.605719, 2.043363, 2.08981, 1.500296, 1.275327, 1.281125, 1.545477, 2.026737, 2.059998, 1.532013, 1.27089, 1.271343, 1.501321, 1.99786, 2.043073, 1.545851, 1.272972, 1.273425, 1.448754, 1.968052, 2.041719, 1.60873, 1.273878, 1.27089, 1.370865, 1.936647, 2.040946, 1.702764, 1.28312, 1.271886, 1.387119, 1.930776, 2.064449, 1.767145, 1.291375, 1.276957, 1.390153, 1.931738, 2.100851, 1.855952, 1.306277, 1.273968, 1.360047, 1.912211, 2.135934, 1.895296, 1.317656, 1.272429, 1.364812, 1.871488, 2.135643, 1.936166, 1.357024, 1.279313, 1.320299, 1.829134, 2.119551, 1.972294, 1.373525, 1.281941, 1.315925, 1.767526, 2.088164, 1.99564, 1.394845, 1.280038, 1.305549, 1.747904, 2.100076, 2.047617, 1.430161, 1.274874, 1.30364, 1.708457, 2.07645, 2.075772, 1.48076, 1.273968, 1.283754, 1.645876, 2.077902, 2.071126, 1.523327, 1.276867, 1.282394, 1.618335, 2.069191, 1.932027, 1.341289, 1.267633, 1.315743, 1.819279, 2.094071, 1.971812, 1.371782, 1.278225, 1.304094, 1.735915, 2.07161, 1.998246, 1.398802, 1.28031, 1.301276, 1.737057, 2.079354, 2.035726, 1.434043, 1.279313, 1.302731, 1.696694, 2.068707, 2.046941, 1.444218, 1.270438, 1.290921, 1.644932, 2.071997, 2.073159, 1.5237, 1.278316, 1.286384, 1.62578, 2.09688, 2.092328, 1.576962, 1.280944, 1.279675, 1.605342, 2.07887, 2.095427, 1.595278, 1.283029, 1.284298, 1.570957, 2.06203, 2.139328, 1.682573, 1.27886, 1.273968, 1.530612, 2.039979, 2.139231, 1.708267, 1.288199, 1.272067, 1.483176, 2.003458, 2.145631, 1.780019, 1.288108, 1.268718, 1.416127, 1.944061, 2.108602, 1.741813, 1.2804, 1.265824, 1.296279, 1.840335, 2.222013, 1.93761, 1.397145, 1.367929, 1.597441, 2.138843, 2.333668, 2.067449, 1.413914, 1.295915, 1.3562, 1.895392, 2.10153, 1.946276, 1.344305, 1.284208, 1.330148, 2.043266, 2.115578, 1.666197, 1.28321, 1.273154, 1.490988, 2.000466, 2.123719, 1.733253, 1.291012, 1.270528, 1.424064, 1.950803, 2.129923, 1.790421, 1.291466, 1.274783, 1.378207, 1.921924, 2.111799, 1.853364, 1.297187, 1.270528, 1.350616, 1.882236, 2.094846, 1.885788, 1.304731, 1.27424, 1.322851, 1.843687, 2.060482, 1.911922, 1.329326, 1.274059, 1.320754, 1.838802, 2.075869, 1.954271, 1.360413, 1.274602, 1.304367, 1.749998, 2.053517, 1.967185, 1.383075, 1.275327, 1.286203, 1.678406, 2.033309, 1.947817, 1.393096, 1.267, 1.286112, 1.64125, 2.041526, 1.969691, 1.438112, 1.275508, 1.273244, 1.61033, 2.01495, 2.027607, 1.456629, 1.271343, 1.276232, 1.572927, 2.014467, 2.046844, 1.532387, 1.276142, 1.278769, 1.557085, 2.019877, 2.11083, 1.601109, 1.281125, 1.291375, 1.567675, 2.050616, 2.149122, 1.692901, 1.289106, 1.27261, 1.5209, 2.045877, 2.140588, 1.748285, 1.290921, 1.289016, 1.696599, 2.118292, 2.079838, 1.541267, 1.272067, 1.287473, 1.671685, 2.086712, 2.095233, 1.546787, 1.275327, 1.280853, 1.636909, 2.08342, 2.106179, 1.594808, 1.282032, 1.287201, 1.57152, 2.047908, 2.117613, 1.622858, 1.279947, 1.277682, 1.571614, 2.031666, 2.141267, 1.679068, 1.284117, 1.277591, 1.510826, 2.02838, 2.13128, 1.733157, 1.283482, 1.275327, 1.441164, 1.979141, 2.134286, 1.795195, 1.289651, 1.279222, 1.391901, 1.976537, 2.1402, 1.869953, 1.304549, 1.278135, 1.347323, 1.944253, 2.120812, 1.904424, 1.32203, 1.276051, 1.331425, 1.878876, 2.115094, 1.923752, 1.349518, 1.279494, 1.331882, 1.838515, 2.09688, 1.939054, 1.37325, 1.275327, 1.308006, 1.788703, 2.084775, 1.959089, 1.367746, 1.273878, 1.294553, 1.736296, 2.078095, 2.009252, 1.430808, 1.282032, 1.302094, 1.737152, 2.099786, 2.05729, 1.480945, 1.277772, 1.283664, 1.693849, 2.080806, 2.008962, 1.314741, 1.275961, 1.356291, 1.888477, 2.140006, 1.951285, 1.352172, 1.281306, 1.33599, 1.846273, 2.123041, 1.944831, 1.384637, 1.279766, 1.314195, 1.812108, 2.118679, 1.993999, 1.4358, 1.2804, 1.313922, 1.763619, 2.105017, 2.008576, 1.363712, 1.2651, 1.267814, 1.584848, 1.976441, 2.169688, 1.551935, 1.301367, 1.428128, 1.938958, 2.332988, 2.313254, 1.689868, 1.304367, 1.308279, 1.722987, 2.072384, 2.129535, 1.557647, 1.277229, 1.288925, 1.630117, 2.085453, 2.117419, 1.609954, 1.271162, 1.287654, 1.562238, 2.050035, 2.110249, 1.620596, 1.276504, 1.285024, 1.491825, 2.045007, 2.106955, 1.709406, 1.287019, 1.280944, 1.456629, 2.02094, 2.109764, 1.778206, 1.285477, 1.270528, 1.437464, 1.969787, 2.111702, 1.804843, 1.303913, 1.274512, 1.369122, 1.950418, 2.108698, 1.854419, 1.303549, 1.278769, 1.373067, 1.8879, 2.108989, 1.891838, 1.314104, 1.273606, 1.340009, 1.918173, 2.097558, 1.606001, 1.271252, 1.27886, 1.474535, 1.994771, 2.086518, 1.666954, 1.276142, 1.271705, 1.403498, 1.961209, 2.062417, 1.711495, 1.290104, 1.262388, 1.36078, 1.907116, 2.040075, 1.740957, 1.288471, 1.268809, 1.338639, 1.880316, 2.079257, 1.798442, 1.304458, 1.268718, 1.34961, 1.890781, 2.09533, 1.875709, 1.320481, 1.263925, 1.34266, 1.859019, 2.121005, 1.937514, 1.361146, 1.28584, 1.333068, 1.849339, 2.109183, 1.977309, 1.388314, 1.274964, 1.315925, 1.792904, 2.108311, 2.020553, 1.420095, 1.285568, 1.307642, 1.776871, 2.102789, 2.054098, 1.433118, 1.283029, 1.296097, 1.73002, 2.088551, 2.064546, 1.476764, 1.273335, 1.300276, 1.701246, 2.110152, 2.100948, 1.5322, 1.272791, 1.29855, 1.631532, 2.099495, 2.114319, 1.577994, 1.278859, 1.281397, 1.600544, 2.084194, 2.105889, 1.63823, 1.278769, 1.269623, 1.564207, 2.064352, 2.115287, 1.685036, 1.289288, 1.290558, 1.745049, 2.07945, 2.059515, 1.431362, 1.279856, 1.301094, 1.744192, 2.119649, 2.090004, 1.496944, 1.283301, 1.291738, 1.682762, 2.090295, 2.101723, 1.541361, 1.28448, 1.300185, 1.627571, 2.08797, 2.094749, 1.596689, 1.280672, 1.285568, 1.590391, 2.070546, 2.101917, 1.659483, 1.281307, 1.274783, 1.559615, 2.061063, 2.135159, 1.675565, 1.286294, 1.275779, 1.489965, 2.027896, 2.108117, 1.721277, 1.275055, 1.272701, 1.455517, 1.985893, 2.136419, 1.796914, 1.295915, 1.271705, 1.431732, 1.953982, 2.1563, 1.854035, 1.296914, 1.277591, 1.388498, 1.94175, 2.120521, 1.8952, 1.321119, 1.276595, 1.364262, 1.899812, 2.151353, 1.929621, 1.335625, 1.282213, 1.34961, 1.893567, 2.11616, 1.979816, 1.351714, 1.275146, 1.322212, 1.847615, 2.117517, 2.003652, 1.386108, 1.277954, 1.31629, 1.720707, 1.997474, 1.865348, 1.308643, 1.265462, 1.336538, 1.847519, 2.23464, 2.321419, 1.513996, 1.33389, 1.604872, 2.131959, 2.232891, 1.949165, 1.335716, 1.279222, 1.363896, 1.921732, 2.121684, 1.912018, 1.321483, 1.27089, 1.343026, 1.882332, 2.078095, 1.927119, 1.319387, 1.280763, 1.325951, 1.855473, 2.09688, 1.960245, 1.345311, 1.274964, 1.314741, 1.797774, 2.087777, 1.978466, 1.377564, 1.271705, 1.316199, 1.725647, 2.081193, 1.994964, 1.430069, 1.28321, 1.30064, 1.702479, 2.092618, 2.039786, 1.47983, 1.276504, 1.290195, 1.673388, 2.079063, 2.073255, 1.503184, 1.276957, 1.28031, 1.614285, 2.064159, 2.075191, 1.538556, 1.279585, 1.277863, 1.59603, 2.038142, 2.077514, 1.554182, 1.27587, 1.279041, 1.537995, 1.996219, 2.07374, 1.589827, 1.274512, 1.275327, 1.473699, 1.977309, 2.071223, 1.628514, 1.27089, 1.270619, 1.433303, 1.937321, 2.064255, 1.67566, 1.274783, 1.274331, 1.384821, 1.937803, 2.090488, 1.79023, 1.283029, 1.272972, 1.372241, 1.956872, 2.088164, 1.541454, 1.282032, 1.28457, 1.623329, 2.075481, 2.128178, 1.603931, 1.27741, 1.283573, 1.605248, 2.071804, 2.154651, 1.670833, 1.27252, 1.273063, 1.557647, 2.063094]
[1.88502, 2.134577, 1.932701, 1.353087, 1.28176, 1.34266, 1.836696, 2.1275, 1.962558, 1.391625, 1.28312, 1.315015, 1.811152, 2.103273, 2.034469, 1.409488, 1.282122, 1.313011, 1.791089, 2.112186, 2.025288, 1.457834, 1.281669, 1.294644, 1.765906, 2.097461, 2.06232, 1.488383, 1.286203, 1.298004, 1.724507, 2.095427, 2.140297, 1.570957, 1.281216, 1.286475, 1.666291, 2.099398, 2.132832, 1.626723, 1.287201, 1.299367, 1.822053, 2.123622, 1.975187, 1.410133, 1.284389, 1.317201, 1.806946, 2.11616, 2.025384, 1.44931, 1.28176, 1.303276, 1.764095, 2.092425, 2.031086, 1.467294, 1.285387, 1.292555, 1.714533, 2.087196, 2.082451, 1.507284, 1.28575, 1.292918, 1.705041, 2.08371, 2.131474, 1.579872, 1.279766, 1.30264, 1.665818, 2.108698, 2.13254, 1.625403, 1.280672, 1.291466, 1.633701, 2.093006, 2.138843, 1.670928, 1.282395, 1.286656, 1.580999, 2.07403, 2.146795, 1.722607, 1.279675, 1.287019, 1.56027, 2.094265, 2.194631, 1.776966, 1.292374, 1.282213, 1.482154, 1.95562, 2.051003, 1.678311, 1.272158, 1.266366, 1.552871, 2.07103, 2.312477, 2.128275, 1.540706, 1.361788, 1.632569, 2.138746, 2.299549, 1.985701, 1.392637, 1.286656, 1.393557, 1.945794, 2.146116, 1.945024, 1.344488, 1.282485, 1.348969, 1.887132, 2.127403, 1.960823, 1.367013, 1.281035, 1.315834, 1.852501, 2.103273, 2.015916, 1.402025, 1.269533, 1.49136, 2.00259, 2.154942, 1.787176, 1.295552, 1.269261, 1.42545, 1.974223, 2.159501, 1.850968, 1.314195, 1.270709, 1.400091, 1.941365, 2.147473, 1.877053, 1.324219, 1.277138, 1.364995, 1.915769, 2.120715, 1.920962, 1.690626, 2.134771, 1.870816, 1.308097, 1.275961, 1.370773, 1.930968, 2.114415, 1.914711, 1.323215, 1.2804, 1.340558, 1.881372, 2.093781, 1.946083, 1.348878, 1.272791, 1.327228, 1.850776, 2.119164, 1.984061, 1.372516, 1.272158, 1.328049, 1.810578, 2.094652, 1.991876, 1.411793, 1.273606, 1.305459, 1.689015, 1.992648, 1.889725, 1.318567, 1.27252, 1.35208, 1.785649, 2.242994, 2.31481, 1.746095, 1.353087, 1.379125, 1.851639, 2.210651, 2.181624, 1.569551, 1.279041, 1.290014, 1.636909, 2.090875, 2.104145, 1.554556, 1.281306, 1.282848, 1.605342, 2.033115, 2.112671, 1.593398, 1.273153, 1.267542, 1.564113, 2.039882, 2.118873, 1.63238, 1.28448, 1.273244, 1.499272, 2.01437, 2.115675, 1.690721, 1.280038, 1.276414, 1.443107, 1.965932, 2.094943, 1.746666, 1.28711, 1.276595, 1.396685, 1.942809, 2.104823, 1.812107, 1.285387, 1.267633, 1.366371, 1.912499, 2.10027, 1.843783, 1.279132, 1.278678, 1.605719, 2.043363, 2.08981, 1.500296, 1.275327, 1.281125, 1.545477, 2.026737, 2.059998, 1.532013, 1.27089, 1.271343, 1.501321, 1.99786, 2.043073, 1.545851, 1.272972, 1.273425, 1.448754, 1.968052, 2.041719, 1.60873, 1.273878, 1.27089, 1.370865, 1.936647, 2.040946, 1.702764, 1.28312, 1.271886, 1.387119, 1.930776, 2.064449, 1.767145, 1.291375, 1.276957, 1.390153, 1.931738, 2.100851, 1.855952, 1.306277, 1.273968, 1.360047, 1.912211, 2.135934, 1.895296, 1.317656, 1.272429, 1.364812, 1.871488, 2.135643, 1.936166, 1.357024, 1.279313, 1.320299, 1.829134, 2.119551, 1.972294, 1.373525, 1.281941, 1.315925, 1.767526, 2.088164, 1.99564, 1.394845, 1.280038, 1.305549, 1.747904, 2.100076, 2.047617, 1.430161, 1.274874, 1.30364, 1.708457, 2.07645, 2.075772, 1.48076, 1.273968, 1.283754, 1.645876, 2.077902, 2.071126, 1.523327, 1.276867, 1.282394, 1.618335, 2.069191, 1.932027, 1.341289, 1.267633, 1.315743, 1.819279, 2.094071, 1.971812, 1.371782, 1.278225, 1.304094, 1.735915, 2.07161, 1.998246, 1.398802, 1.28031, 1.301276, 1.737057, 2.079354, 2.035726, 1.434043, 1.279313, 1.302731, 1.696694, 2.068707, 2.046941, 1.444218, 1.270438, 1.290921, 1.644932, 2.071997, 2.073159, 1.5237, 1.278316, 1.286384, 1.62578, 2.09688, 2.092328, 1.576962, 1.280944, 1.279675, 1.605342, 2.07887, 2.095427, 1.595278, 1.283029, 1.284298, 1.570957, 2.06203, 2.139328, 1.682573, 1.27886, 1.273968, 1.530612, 2.039979, 2.139231, 1.708267, 1.288199, 1.272067, 1.483176, 2.003458, 2.145631, 1.780019, 1.288108, 1.268718, 1.416127, 1.944061, 2.108602, 1.741813, 1.2804, 1.265824, 1.296279, 1.840335, 2.222013, 1.93761, 1.397145, 1.367929, 1.597441, 2.138843, 2.333668, 2.067449, 1.413914, 1.295915, 1.3562, 1.895392, 2.10153, 1.946276, 1.344305, 1.284208, 1.330148, 2.043266, 2.115578, 1.666197, 1.28321, 1.273154, 1.490988, 2.000466, 2.123719, 1.733253, 1.291012, 1.270528, 1.424064, 1.950803, 2.129923, 1.790421, 1.291466, 1.274783, 1.378207, 1.921924, 2.111799, 1.853364, 1.297187, 1.270528, 1.350616, 1.882236, 2.094846, 1.885788, 1.304731, 1.27424, 1.322851, 1.843687, 2.060482, 1.911922, 1.329326, 1.274059, 1.320754, 1.838802, 2.075869, 1.954271, 1.360413, 1.274602, 1.304367, 1.749998, 2.053517, 1.967185, 1.383075, 1.275327, 1.286203, 1.678406, 2.033309, 1.947817, 1.393096, 1.267, 1.286112, 1.64125, 2.041526, 1.969691, 1.438112, 1.275508, 1.273244, 1.61033, 2.01495, 2.027607, 1.456629, 1.271343, 1.276232, 1.572927, 2.014467, 2.046844, 1.532387, 1.276142, 1.278769, 1.557085, 2.019877, 2.11083, 1.601109, 1.281125, 1.291375, 1.567675, 2.050616, 2.149122, 1.692901, 1.289106, 1.27261, 1.5209, 2.045877, 2.140588, 1.748285, 1.290921, 1.289016, 1.696599, 2.118292, 2.079838, 1.541267, 1.272067, 1.287473, 1.671685, 2.086712, 2.095233, 1.546787, 1.275327, 1.280853, 1.636909, 2.08342, 2.106179, 1.594808, 1.282032, 1.287201, 1.57152, 2.047908, 2.117613, 1.622858, 1.279947, 1.277682, 1.571614, 2.031666, 2.141267, 1.679068, 1.284117, 1.277591, 1.510826, 2.02838, 2.13128, 1.733157, 1.283482, 1.275327, 1.441164, 1.979141, 2.134286, 1.795195, 1.289651, 1.279222, 1.391901, 1.976537, 2.1402, 1.869953, 1.304549, 1.278135, 1.347323, 1.944253, 2.120812, 1.904424, 1.32203, 1.276051, 1.331425, 1.878876, 2.115094, 1.923752, 1.349518, 1.279494, 1.331882, 1.838515, 2.09688, 1.939054, 1.37325, 1.275327, 1.308006, 1.788703, 2.084775, 1.959089, 1.367746, 1.273878, 1.294553, 1.736296, 2.078095, 2.009252, 1.430808, 1.282032, 1.302094, 1.737152, 2.099786, 2.05729, 1.480945, 1.277772, 1.283664, 1.693849, 2.080806, 2.008962, 1.314741, 1.275961, 1.356291, 1.888477, 2.140006, 1.951285, 1.352172, 1.281306, 1.33599, 1.846273, 2.123041, 1.944831, 1.384637, 1.279766, 1.314195, 1.812108, 2.118679, 1.993999, 1.4358, 1.2804, 1.313922, 1.763619, 2.105017, 2.008576, 1.363712, 1.2651, 1.267814, 1.584848, 1.976441, 2.169688, 1.551935, 1.301367, 1.428128, 1.938958, 2.332988, 2.313254, 1.689868, 1.304367, 1.308279, 1.722987, 2.072384, 2.129535, 1.557647, 1.277229, 1.288925, 1.630117, 2.085453, 2.117419, 1.609954, 1.271162, 1.287654, 1.562238, 2.050035, 2.110249, 1.620596, 1.276504, 1.285024, 1.491825, 2.045007, 2.106955, 1.709406, 1.287019, 1.280944, 1.456629, 2.02094, 2.109764, 1.778206, 1.285477, 1.270528, 1.437464, 1.969787, 2.111702, 1.804843, 1.303913, 1.274512, 1.369122, 1.950418, 2.108698, 1.854419, 1.303549, 1.278769, 1.373067, 1.8879, 2.108989, 1.891838, 1.314104, 1.273606, 1.340009, 1.918173, 2.097558, 1.606001, 1.271252, 1.27886, 1.474535, 1.994771, 2.086518, 1.666954, 1.276142, 1.271705, 1.403498, 1.961209, 2.062417, 1.711495, 1.290104, 1.262388, 1.36078, 1.907116, 2.040075, 1.740957, 1.288471, 1.268809, 1.338639, 1.880316, 2.079257, 1.798442, 1.304458, 1.268718, 1.34961, 1.890781, 2.09533, 1.875709, 1.320481, 1.263925, 1.34266, 1.859019, 2.121005, 1.937514, 1.361146, 1.28584, 1.333068, 1.849339, 2.109183, 1.977309, 1.388314, 1.274964, 1.315925, 1.792904, 2.108311, 2.020553, 1.420095, 1.285568, 1.307642, 1.776871, 2.102789, 2.054098, 1.433118, 1.283029, 1.296097, 1.73002, 2.088551, 2.064546, 1.476764, 1.273335, 1.300276, 1.701246, 2.110152, 2.100948, 1.5322, 1.272791, 1.29855, 1.631532, 2.099495, 2.114319, 1.577994, 1.278859, 1.281397, 1.600544, 2.084194, 2.105889, 1.63823, 1.278769, 1.269623, 1.564207, 2.064352, 2.115287, 1.685036, 1.289288, 1.290558, 1.745049, 2.07945, 2.059515, 1.431362, 1.279856, 1.301094, 1.744192, 2.119649, 2.090004, 1.496944, 1.283301, 1.291738, 1.682762, 2.090295, 2.101723, 1.541361, 1.28448, 1.300185, 1.627571, 2.08797, 2.094749, 1.596689, 1.280672, 1.285568, 1.590391, 2.070546, 2.101917, 1.659483, 1.281307, 1.274783, 1.559615, 2.061063, 2.135159, 1.675565, 1.286294, 1.275779, 1.489965, 2.027896, 2.108117, 1.721277, 1.275055, 1.272701, 1.455517, 1.985893, 2.136419, 1.796914, 1.295915, 1.271705, 1.431732, 1.953982, 2.1563, 1.854035, 1.296914, 1.277591, 1.388498, 1.94175, 2.120521, 1.8952, 1.321119, 1.276595, 1.364262, 1.899812, 2.151353, 1.929621, 1.335625, 1.282213, 1.34961, 1.893567, 2.11616, 1.979816, 1.351714, 1.275146, 1.322212, 1.847615, 2.117517, 2.003652, 1.386108, 1.277954, 1.31629, 1.720707, 1.997474, 1.865348, 1.308643, 1.265462, 1.336538, 1.847519, 2.23464, 2.321419, 1.513996, 1.33389, 1.604872, 2.131959, 2.232891, 1.949165, 1.335716, 1.279222, 1.363896, 1.921732, 2.121684, 1.912018, 1.321483, 1.27089, 1.343026, 1.882332, 2.078095, 1.927119, 1.319387, 1.280763, 1.325951, 1.855473, 2.09688, 1.960245, 1.345311, 1.274964, 1.314741, 1.797774, 2.087777, 1.978466, 1.377564, 1.271705, 1.316199, 1.725647, 2.081193, 1.994964, 1.430069, 1.28321, 1.30064, 1.702479, 2.092618, 2.039786, 1.47983, 1.276504, 1.290195, 1.673388, 2.079063, 2.073255, 1.503184, 1.276957, 1.28031, 1.614285, 2.064159, 2.075191, 1.538556, 1.279585, 1.277863, 1.59603, 2.038142, 2.077514, 1.554182, 1.27587, 1.279041, 1.537995, 1.996219, 2.07374, 1.589827, 1.274512, 1.275327, 1.473699, 1.977309, 2.071223, 1.628514, 1.27089, 1.270619, 1.433303, 1.937321, 2.064255, 1.67566, 1.274783, 1.274331, 1.384821, 1.937803, 2.090488, 1.79023, 1.283029, 1.272972, 1.372241, 1.956872, 2.088164, 1.541454, 1.282032, 1.28457, 1.623329, 2.075481, 2.128178, 1.603931, 1.27741, 1.283573, 1.605248, 2.071804, 2.154651, 1.670833, 1.27252, 1.273063, 1.557647, 2.063094, 2.143885, 1.728309, 1.283482, 1.275689, 1.472678, 2.020553, 2.126821, 1.786507, 1.295007, 1.278225, 1.434228, 1.984254, 2.130893, 1.839664, 1.294553, 1.271976, 1.403591, 1.973837, 2.133898, 1.874942, 1.310281, 1.271071, 1.354186, 1.919712, 2.130505, 1.918173, 1.334438, 1.281488, 1.357024]
