248226.0
1.255726
1.485233
1.80643
2.176754
2.443949
2.589829
2.61308
2.61983
2.61983
2.545578
2.30332
1.988311
1.57261
1.262101
1.248038
1.248038
1.247851
1.248038
1.248038
1.252726
1.448294
1.769491
2.150128
2.434949
2.592267
2.642331
2.621893
2.551203
2.551203
2.314383
2.000124
1.597736
1.268101
1.248226
1.248038
1.248038
1.248038
1.250663
1.250663
1.350229
1.594924
1.910308
2.150691
2.293758
2.338009
2.272007
2.108877
2.108877
1.861557
1.53961
1.263976
1.248038
1.248601
1.248226
1.247851
1.248038
1.249163
1.249163
1.353229
1.62605
2.146003
2.55214
2.660519
2.660144
2.659956
2.660331
2.660519
2.660519
2.62433
2.28757
1.821056
1.498546
1.31179
1.288164
1.327353
1.524421
1.842431
1.842431
2.117877
2.426136
2.635018
2.661081
2.660706
2.660894
2.659581
2.527015
2.172254
2.172254
1.778304
1.343853
1.249538
1.248038
1.247851
1.248038
1.250663
1.375355
1.375355
1.666926
2.025999
2.323758
2.500014
2.60708
2.618142
2.530765
2.343822
2.015499
2.015499
1.657551
1.289664
1.248226
1.248038
1.248038
1.247851
1.248601
1.329603
1.593236
1.593236
1.944059
2.252131
2.438512
2.560578
2.579329
2.500201
2.321508
2.001249
1.663551
1.663551
1.294915
1.248226
1.248038
1.248038
1.248038
1.248413
1.30354
1.549172
1.896995
1.896995
2.20413
2.406074
2.54089
2.552703
2.489326
2.317196
1.995061
1.667113
1.295665
1.295665
1.248038
1.248038
1.248038
1.248038
1.248413
1.281414
1.501546
1.856869
1.856869
2.168879
2.37401
2.512952
2.538827
2.484826
2.329196
2.003686
1.687551
1.309727
1.309727
1.248226
1.247851
1.248226
1.248038
1.248038
1.271101
1.469295
1.812805
2.13794
2.13794
2.348884
2.492889
2.514827
2.471325
2.310446
2.004999
1.687176
1.309727
1.248226
1.248226
1.248038
1.248038
1.248038
1.247851
1.262289
1.434419
1.765741
2.105502
2.321321
2.321321
2.463638
2.501139
2.45595
2.299008
2.004061
1.690177
1.311978
1.248226
1.248226
1.248038
1.248226
1.248038
1.247851
1.254038
1.39448
1.714552
2.046625
2.263757
2.263757
2.409448
2.4492
2.417136
2.262819
1.971248
1.671988
1.304665
1.248038
1.248038
1.248038
1.248226
1.248226
1.248038
1.249913
1.326791
1.634862
1.966935
2.186504
2.331446
2.331446
2.38451
2.349822
2.203192
1.919309
1.618737
1.284789
1.248038
1.248226
1.248226
1.248226
1.248413
1.248226
1.248413
1.270351
1.500233
1.834743
2.071188
2.226068
2.276695
2.276695
2.252319
2.116752
1.852931
1.549547
1.266976
1.248038
1.248226
1.248413
1.248413
1.248413
1.248038
1.248038
1.258913
1.429169
1.772492
2.014187
2.173754
2.248006
2.248006
2.231131
2.096876
1.855744
1.55686
1.271101
1.248038
1.248226
1.248601
1.248601
1.248601
1.248413
1.248038
1.256288
1.422231
1.771929
2.03575
2.205817
2.290382
2.290195
2.290195
2.175066
1.944997
1.646675
1.309352
1.248226
1.248038
1.248413
1.248226
1.248226
1.248226
1.248226
1.276914
1.515421
1.874307
2.151816
2.324134
2.416949
2.427074
2.427074
2.312133
2.089564
1.794805
1.417356
1.250476
1.247851
1.248038
1.248038
1.248038
1.248038
1.248788
1.330166
1.611799
1.976498
2.254194
2.425761
2.521765
2.531327
2.417699
2.417699
2.206567
1.89362
1.520109
1.257788
1.248038
1.248226
1.248038
1.247851
1.249726
1.249726
1.358479
1.641425
2.002186
2.293195
2.468513
2.560578
2.567328
2.247069
1.939372
1.939372
1.57111
1.267164
1.248413
1.247851
1.248038
1.247851
1.249163
1.344604
1.6238
1.6238
1.984373
2.281382
2.458575
2.565078
2.574641
2.476013
2.278007
1.95906
1.596611
1.596611
1.271101
1.248038
1.248226
1.248038
1.247851
1.248788
1.328478
1.592674
1.942184
1.942184
2.247631
2.426699
2.536577
2.555328
2.463825
2.274257
1.963747
1.618174
1.278227
1.278227
1.248038
1.248038
1.248038
1.247851
1.248601
1.319665
1.586486
1.932621
1.932621
2.230756
2.415824
2.538265
2.550453
2.472826
2.29657
1.97106
1.628862
1.282164
1.282164
1.248038
1.247851
1.248038
1.247851
1.248226
1.302602
1.546735
1.894558
2.21013
2.21013
2.402886
2.531702
2.551953
2.485201
2.312133
1.982873
1.656238
1.296414
1.248226
1.248226
1.247851
1.248038
1.248038
1.248413
1.293602
1.528734
1.878432
2.205067
2.408136
2.408136
2.54314
2.570703
2.513702
2.344947
2.021312
1.694489
1.311978
1.248413
1.248413
1.247851
1.248038
1.247851
1.248413
1.290602
1.521796
1.860057
2.179941
2.38901
2.38901
2.534702
2.55439
2.498326
2.335196
2.016624
1.702552
1.31554
1.248413
1.247851
1.247851
1.248038
1.247851
1.248413
1.269789
1.471357
1.80568
2.133815
2.344572
2.490076
2.490076
2.519514
2.481451
2.330133
2.025249
1.716052
1.325853
1.248413
1.248038
1.248226
1.248226
1.248038
1.248038
1.268101
1.47942
1.817305
2.155191
2.379072
2.534515
2.578579
2.578579
2.54614
2.400073
2.103252
1.79743
1.38473
1.249538
1.247851
1.248038
1.248038
1.247851
1.248038
1.266601
1.482983
1.810743
2.154441
2.381885
2.53489
2.576329
2.576329
2.54989
2.401573
2.113752
1.803618
1.387917
1.249726
1.247851
1.248038
1.248038
1.248038
1.247851
1.258913
1.46217
1.773992
2.116565
2.348509
2.505076
2.566766
2.544453
2.544453
2.400636
2.131752
1.828931
1.416043
1.250288
1.247851
1.247851
1.247851
1.248038
1.248038
1.254976
1.438356
1.753553
2.104002
2.356197
2.519514
2.583079
2.563578
2.426887
2.426887
2.169254
1.863619
1.449607
1.251788
1.248038
1.248038
1.247851
1.247851
1.247851
1.254226
1.435169
1.742866
2.094814
2.351884
2.519702
2.585891
2.569203
2.431387
2.431387
2.178254
1.87337
1.467982
1.252163
1.247851
1.247851
1.248038
1.247851
1.252913
1.252913
1.438919
1.749241
2.101564
2.355822
2.528327
2.61458
2.609892
2.497201
2.262257
2.262257
1.960372
1.548235
1.258538
1.248038
1.248226
1.248226
1.247851
1.248226
1.263789
1.263789
1.440419
1.729553
1.915934
2.05075
2.082251
2.053563
1.954935
1.816368
1.816368
1.748303
1.524421
1.262664
1.248038
1.248038
1.248226
1.247851
1.265101
1.721303
1.721303
2.244631
2.62583
2.660706
2.660519
2.660331
2.660519
2.660519
2.63783
2.426699
2.426699
2.060688
1.601861
1.301477
1.251038
1.249913
1.252726
1.30804
1.612924
1.880307
1.880307
2.212943
2.468325
2.589829
2.597142
2.599392
2.53714
2.313633
1.967123
1.581048
1.581048
1.265289
1.248038
1.248226
1.248038
1.247851
1.248413
1.311603
1.564735
1.564735
1.915558
2.20638
2.38001
2.485763
2.489513
2.395761
2.19663
1.87262
1.515609
1.515609
1.255726
1.248038
1.248413
1.248413
1.248038
1.248038
1.273914
1.479983
1.831743
1.831743
2.135128
2.327508
2.447137
2.457075
2.36951
2.183504
1.855557
1.513171
1.255163
1.255163
1.248038
1.248226
1.248226
1.248226
1.247851
1.262476
1.428044
1.776617
2.088814
2.088814
2.284195
2.408136
2.419949
2.341759
2.161191
1.832306
1.489733
1.254038
1.248038
1.248038
1.248226
1.248413
1.248413
1.247851
1.255726
1.388292
1.742678
2.062376
2.062376
2.254569
2.384698
2.404011
2.341759
2.174129
1.849931
1.519359
1.256288
1.247851
1.247851
1.248226
1.248226
1.248226
1.248038
1.252726
1.353791
1.678739
2.006499
2.213693
2.213693
2.356947
2.379447
2.327321
2.161378
1.842056
1.520671
1.256476
1.248038
1.248226
1.248226
1.248413
1.248226
1.248038
1.250288
1.322103
1.634862
1.970498
2.181817
2.324134
2.324134
2.346634
2.30482
2.147878
1.836619
1.519921
1.257038
1.248038
1.248413
1.248413
1.248413
1.248413
1.248038
1.249163
1.289102
1.575048
1.906933
2.126878
2.272194
2.272194
2.308008
2.263757
2.110189
1.811305
1.498733
1.255538
1.248226
1.248413
1.248601
1.248601
1.248413
1.248038
1.248226
1.265851
1.490296
1.828556
2.047188
2.192129
2.233193
2.233193
2.200567
2.044
1.749616
1.441731
1.251788
1.248038
1.248601
1.248601
1.248601
1.248601
1.248413
1.248038
1.252913
1.38323
1.717927
1.949497
2.104377
2.152003
2.152003
2.131002
1.983998
1.706302
1.403293
1.250288
1.248038
1.248413
1.248976
1.248601
1.248601
1.248601
1.248226
1.249726
1.333728
1.65005
1.897745
2.051875
2.115252
2.099689
2.099689
1.96206
1.693927
1.39673
1.250476
1.248038
1.248413
1.248788
1.248976
1.248413
1.248413
1.248226
1.249538
1.330728
1.658676
1.918559
2.091064
2.163628
2.161378
2.031437
2.031437
1.787304
1.496671
1.259851
1.248038
1.248413
1.248601
1.248413
1.248226
1.247851
1.247851
1.255538
1.419793
1.785054
2.062001
2.245569
2.325071
2.324508
2.206192
2.206192
1.968435
1.668988
1.324165
1.248226
1.248038
1.248413
1.248413
1.248038
1.247851
1.247851
1.272039
1.504921
1.87262
2.144315
2.324321
2.418824
2.421824
2.306133
2.078876
2.078876
1.770804
1.39448
1.249351
1.248038
1.248226
1.248038
1.248038
1.248413
1.29604
1.29604
1.552547
1.911996
2.196442
2.374385
2.473575
2.476201
2.359197
2.136253
1.819555
1.819555
1.441731
1.251226
1.248038
1.248413
1.248038
1.248226
1.248226
1.295477
1.295477
1.544297
1.905808
2.194942
2.374948
2.476951
2.482576
2.375135
2.168129
1.848806
1.848806
1.47717
1.253101
1.248038
1.248226
1.248413
1.248038
1.248038
1.285914
1.519921
1.519921
1.88387
2.179754
2.364822
2.480888
2.493826
2.393136
2.193442
1.870745
1.506234
1.506234
1.254976
1.247851
1.248226
1.248413
1.248038
1.247851
1.269601
1.473045
1.832306
1.832306
2.138128
2.332571
2.451075
2.459325
2.375135
2.185192
1.858744
1.503046
1.503046
1.254226
1.248038
1.248226
1.248413
1.248038
1.248038
1.261163
1.425418
1.778492
1.778492
2.089939
2.284757
2.417699
2.437199
2.36276
2.187254
1.856869
1.512609
1.255351
1.255351
1.248038
1.248038
1.248413
1.248226
1.248038
1.257976
1.404605
1.759366
2.081688
2.081688
2.282882
2.416761
2.43945
2.379635
2.212193
1.886495
1.547485
1.260976
1.248038
1.248038
1.248038
1.248226
1.248038
1.248038
1.258351
1.398418
1.741178
2.067813
2.275194
2.275194
2.416011
2.443012
2.380198
2.219505
1.901871
1.569235
1.264351
1.248038
1.248038
1.248038
1.248413
1.248413
1.248038
1.253851
1.369354
1.710615
2.053938
2.272007
2.272007
2.413199
2.442075
2.398761
2.239756
1.921746
1.605986
1.274101
1.248038
1.248226
1.248226
1.248038
1.248038
1.247851
1.253288
1.368792
1.70649
2.052625
2.281569
2.431949
2.431949
2.470388
2.432887
2.276695
1.963935
1.292664
1.248038
1.248038
1.248226
1.248038
1.247851
1.247851
1.252726
1.380792
1.717552
2.059563
2.287945
2.439262
2.479951
2.447325
2.293383
2.293383
1.992436
1.678551
1.30429
1.248038
1.248038
1.248413
1.248226
1.247851
1.247851
1.249913
1.322665
1.632987
1.982123
2.224193
2.392385
2.441137
2.424262
2.27782
2.27782
1.995998
1.695802
1.318165
1.248226
1.248226
1.248226
1.248226
1.248038
1.249913
1.249913
1.346291
1.664113
2.022999
2.275757
2.447325
2.509202
2.493076
2.352634
2.082251
2.082251
1.774742
1.370667
1.248788
1.247851
1.248038
1.248413
1.247851
1.250101
1.363167
1.363167
1.675176
2.029562
2.281945
2.45895
2.532265
2.512952
2.375885
2.124627
1.820306
1.820306
1.410981
1.249913
1.248038
1.248226
1.248226
1.247851
1.250288
1.371604
1.371604
1.674426
2.037437
2.305758
2.480701
2.555515
2.548578
2.416011
2.165879
1.859307
1.859307
1.451107
1.251226
1.247851
1.248038
1.248038
1.248038
1.249726
1.367104
1.664676
1.664676
2.027124
2.299195
2.472826
2.557953
2.559641
2.439075
2.19888
1.885558
1.483545
1.483545
1.253101
1.248038
1.247851
1.248038
1.248038
1.249163
1.350979
1.648175
2.009124
2.009124
2.287945
2.470013
2.565266
2.570141
2.4582
2.233006
1.923059
1.532484
1.532484
1.257976
1.248038
1.247851
1.248038
1.247851
1.249163
1.352479
1.646113
2.020187
2.020187
2.317946
2.494576
2.568453
2.54839
2.390698
2.114127
1.72224
1.325665
1.248226
1.248226
1.248038
1.248788
1.248788
1.248788
1.248601
1.248038
1.249538
1.358667
1.805492
1.805492
2.22213
2.403448
2.376635
2.243506
2.0365
1.855932
1.621174
1.350979
1.30879
1.30879
1.282727
1.278789
1.341416
1.540359
1.881432
2.174504
2.521952
2.661081
2.661081
2.660706
2.660519
2.660331
2.660894
2.629018
2.351322
1.95006
1.478108
1.257226
1.257226
1.248226
1.248226
1.248038
1.251788
1.378167
1.65005
1.985311
2.287757
2.470388
2.470388
2.580079
2.592642
2.51614
2.320758
1.989811
1.63355
1.278977
1.248038
1.248226
1.248226
1.248038
1.248038
1.248226
1.282164
1.506421
1.859494
2.173941
2.367822
2.500764
2.500764
2.51614
2.446575
2.262444
1.936559
1.595486
1.269414
1.247851
1.248038
1.248413
1.248413
1.248226
1.248038
1.265476
1.449232
1.807743
2.125002
2.334259
2.476201
2.476201
2.493451
2.432512
2.269382
1.941434
1.605611
1.272601
1.248038
1.248038
1.248226
1.248226
1.248038
1.247851
1.257976
1.408168
1.763679
2.101377
2.308946
2.451637
2.480513
2.480513
2.424636
2.266194
1.938059
1.610112
1.274476
1.248038
1.248226
1.248226
1.248413
1.248413
1.247851
1.254601
1.393543
1.752991
2.098001
2.318133
2.469263
2.503201
2.466263
2.466263
2.311945
2.001624
1.682676
1.299602
1.248038
1.247851
1.248226
1.248226
1.247851
1.247851
1.253476
1.381167
1.711365
2.06125
2.281569
2.431012
2.474513
2.444325
2.444325
2.290757
1.985311
1.668613
1.298102
1.248038
1.248038
1.248226
1.248226
1.248038
1.248038
1.251226
1.348916
1.674614
2.025624
2.257569
2.421262
2.4642
2.433449
2.287007
2.287007
1.990186
1.672551
1.302602
1.248038
1.248226
1.248413
1.248413
1.247851
1.249163
1.249163
1.31029
1.604861
1.95081
2.197567
2.361822
2.410011
2.384135
2.235443
1.948934
1.948934
1.638425
1.294165
1.248038
1.248226
1.248413
1.248226
1.248226
1.248226
1.248226
1.273726
1.520296
1.871307
2.114127
2.279695
2.342322
2.321133
2.176941
1.903746
1.903746
1.587236
1.277289
1.247851
1.248226
1.248788
1.248413
1.248413
1.247851
1.255351
1.255351
1.424106
1.773992
2.028437
2.199067
2.275757
2.263757
2.130815
1.87337
1.561735
1.561735
1.270914
1.247851
1.248226
1.248413
1.248601
1.248226
1.247851
1.253476
1.392792
1.392792
1.740803
2.005749
2.183692
2.270882
2.268444
2.135128
1.896995
1.587986
1.587986
1.281602
1.247851
1.248226
1.248601
1.248413
1.248413
1.248038
1.254601
1.402355
1.402355
1.767991
2.045125
2.229818
2.325821
2.330696
2.21913
1.993561
1.696927
1.341791
1.341791
1.248413
1.248226
1.248226
1.248413
1.248038
1.248226
1.271664
1.497608
1.864369
1.864369
2.155378
2.346822
2.450137
2.460638
2.360884
2.145815
1.833243
1.455982
1.251601
1.251601
1.247851
1.248226
1.248226
1.248038
1.248226
1.301477
1.564735
1.931497
1.931497
2.228318
2.415636
2.524202
2.539202
2.436262
2.230568
1.907496
1.531547
1.257976
1.257976
1.248038
1.248038
1.248038
1.248038
1.248413
1.31554
1.579548
1.942184
2.235068
2.235068
2.427449
2.542203
2.557953
2.460263
2.264694
1.943872
1.577298
1.263039
1.248226
1.248226
1.248038
1.248226
1.248038
1.248413
1.30429
1.558173
1.923809
2.232443
2.424824
2.424824
2.544828
2.559828
2.4747
2.287007
1.969935
1.605799
1.271289
1.248038
1.248038
1.248038
1.248038
1.248038
1.248038
1.292852
1.534734
1.89362
2.20863
2.406823
2.406823
2.53639
2.556266
2.484076
2.307258
1.97931
1.630925
1.278977
1.247851
1.247851
1.247851
1.248038
1.248038
1.248038
1.286102
1.516546
1.87637
2.200567
2.411136
2.54614
2.54614
2.567516
2.505264
2.339321
2.011936
1.672739
1.296227
1.248226
1.247851
1.248226
1.248226
1.248038
1.248038
1.280289
1.503233
1.858932
2.187067
2.399886
2.542765
2.568266
2.568266
2.509764
2.353947
2.025624
1.699927
1.31104
1.248226
1.247851
1.248038
1.248038
1.247851
1.248038
1.271289
1.480545
1.829868
2.170754
2.386573
2.533952
2.565828
2.565828
2.520452
2.362385
2.04925
1.724115
1.321165
1.248413
1.248038
1.248038
1.248038
1.248038
1.248038
1.264726
1.472857
1.820868
2.167566
2.391635
2.548203
2.586454
2.54914
2.54914
2.398948
2.089939
1.774554
1.356229
1.248788
1.248038
1.248226
1.248038
1.247851
1.247851
1.262289
1.463857
1.803805
2.155003
2.392385
2.54389
2.590579
2.560391
2.560391
2.412636
2.113377
1.800992
1.373667
1.248976
1.247851
1.248038
1.248038
1.247851
1.247851
1.259288
1.450544
1.784679
2.138315
2.376635
2.536952
2.582891
2.561516
2.420136
2.420136
2.135128
1.825181
1.39598
1.249538
1.247851
1.248038
1.248038
1.248038
1.255351
1.255351
1.428606
1.756929
2.113564
2.36501
2.532452
2.590767
2.572579
2.433824
2.161378
2.161378
1.853307
1.424668
1.250476
1.247851
1.248038
1.248038
1.247851
1.253288
1.253288
1.408168
1.72674
2.087126
2.349259
2.526452
2.593204
2.575391
2.447512
2.188192
2.188192
1.881245
1.448482
1.251226
1.247851
1.248038
1.248038
1.247851
1.251601
1.402168
1.402168
1.714552
2.078126
2.344947
2.518202
2.600517
2.596017
2.472263
2.22063
1.910496
1.910496
1.492171
1.253663
1.248038
1.248038
1.248226
1.247851
1.250476
1.392043
1.702927
1.702927
2.070063
2.343446
2.525515
2.60858
2.614205
2.490638
2.252131
1.934122
1.934122
1.518796
1.255726
1.247851
1.248038
1.248038
1.248038
1.249163
1.354729
1.660176
1.660176
2.022249
2.302758
2.485576
2.578391
2.582141
2.468513
2.248006
1.935059
1.533234
1.533234
1.247851
1.248038
1.248038
1.247851
1.249163
1.357166
1.655863
2.027874
2.322258
2.322258
2.511827
2.612705
2.620018
2.53414
2.325071
2.013061
1.621737
1.273164
1.248038
1.248038
1.248038
1.248038
1.247851
1.249726
1.371979
1.670301
2.041187
2.343071
2.52889
2.52889
2.60558
2.597142
2.557766
2.352447
2.031812
1.654926
1.284227
1.248226
1.248038
1.248038
1.248038
1.248038
1.249351
1.355291
1.652675
2.023749
2.329946
2.525327
2.599767
2.599767
2.594517
2.572954
2.389198
2.062563
1.701614
1.306352
1.248413
1.247851
1.248038
1.248038
1.247663
1.249351
1.357354
1.653425
2.020749
2.336884
2.532265
2.598829
2.598829
2.603329
2.581391
2.416011
2.086001
1.732553
1.32154
1.248601
1.248038
1.247851
1.247851
1.247851
1.249351
1.347229
1.635237
1.999749
2.323571
2.523077
2.599392
2.615517
2.615517
2.587766
2.443199
2.117127
1.772867
1.354916
1.249163
1.248038
1.248038
1.248038
1.248038
1.248976
1.336353
1.628112
1.996186
2.332384
2.557391
2.633705
2.659769
2.589267
2.589267
2.422386
2.04475
1.639738
1.268851
1.248038
1.248413
1.248601
1.248601
1.248413
1.248413
1.248226
1.250663
1.32154
1.602986
1.855369
2.183317
2.432699
2.45595
2.45595
2.265257
1.923434
1.605424
1.334478
1.251976
1.249726
1.271101
1.381542
1.605986
1.605986
1.920246
2.235631
2.546703
2.660894
2.660519
2.660331
2.660331
2.660331
2.660706
2.660706
2.606704
2.297883
1.79893
1.383417
1.256476
1.249163
1.249351
1.262289
1.429731
1.429731
1.736115
2.041562
2.367822
2.572954
2.653206
2.661081
2.650956
2.565078
2.258506
2.258506
1.931684
1.472295
1.253101
1.247851
1.248038
1.247851
1.248601
1.284227
1.284227
1.541109
1.873557
2.227943
2.459325
2.593579
2.596017
2.597142
2.488951
2.193254
2.193254
1.881995
1.441356
1.251038
1.248038
1.247851
1.248038
1.248038
1.263601
1.485983
1.485983
1.816743
2.176754
2.427262
2.585329
2.592454
2.596767
2.486138
2.205067
1.893433
1.893433
1.459169
1.251788
1.247851
1.248038
1.248038
1.248038
1.258538
1.465357
1.794617
1.794617
2.155753
2.410761
2.570328
2.619642
2.598267
2.494764
2.224005
1.912183
1.912183
1.484858
1.253101
1.248038
1.248038
1.247851
1.248038
1.254788
1.441544
1.769116
1.769116
2.13719
2.401011
2.566766
2.612517
2.600892
2.499451
2.240693
1.934122
1.514296
1.514296
1.255163
1.248038
1.247851
1.248038
1.247851
1.252538
1.416231
1.735928
2.110002
2.110002
2.382823
2.560203
2.611392
2.600329
2.522514
2.276132
1.959997
1.544672
1.258538
1.258538
1.247851
1.248226
1.248038
1.248038
1.251413
1.410418
1.717927
2.085251
2.085251
2.36651
2.543328
2.62133
2.600517
2.513139
2.28382
1.964122
1.55086
1.258163
1.258163
1.247851
1.247851
1.248226
1.248038
1.249351
1.360354
1.654363
2.022999
2.314383
2.314383
2.497389
2.587391
2.594892
2.480138
2.259069
1.932246
1.531734
1.256476
1.247851
1.247851
1.248226
1.248038
1.248038
1.248413
1.308227
1.57111
1.942747
2.237506
2.418636
2.418636
2.524952
2.535265
2.428762
2.217068
1.893245
1.497046
1.253288
1.248038
1.248038
1.248226
1.248038
1.248226
1.248038
1.269601
1.486545
1.847869
2.150316
2.346259
2.346259
2.45895
2.476951
2.379072
2.182004
1.854994
1.476795
1.251976
1.248038
1.248413
1.248413
1.248226
1.248226
1.248038
1.259476
1.427481
1.797617
2.114689
2.314383
2.442075
2.442075
2.46195
2.376635
2.190254
1.862119
1.500421
1.253663
1.247851
1.248413
1.248038
1.248038
1.248038
1.248038
1.261163
1.437231
1.810743
2.13419
2.342884
2.480138
2.508077
2.508077
2.444325
2.274444
1.958122
1.610487
1.273539
1.247851
1.247851
1.248226
1.248226
1.247851
1.248226
1.289852
1.537547
1.905996
2.242568
2.46045
2.603892
2.598079
2.598079
2.580829
2.421637
2.103439
1.762929
1.343291
1.248976
1.248038
1.248038
1.247851
1.247851
1.248976
1.332791
1.619674
1.986436
2.327134
2.549515
2.63183
2.661081
2.629393
2.629393
2.53489
2.214255
1.879557
1.426919
1.251788
1.248038
1.247851
1.247851
1.250101
1.250101
1.356791
1.667488
2.031812
2.370822
2.581016
2.661269
2.661081
2.656018
2.656018
2.571266
2.267694
1.941434
1.48017
1.254976
1.248038
1.247851
1.248038
1.250288
1.250288
1.348541
1.662613
2.017374
2.366135
2.575204
2.661269
2.661269
2.661081
2.600517
2.600517
2.313446
1.988873
1.530609
1.259663
1.248413
1.247851
1.247851
1.250288
1.339166
1.339166
1.653425
2.001811
2.356197
2.573328
2.661269
2.660894
2.661269
2.609892
2.333134
2.333134
2.018312
1.561923
1.263414
1.248413
1.247851
1.247663
1.250101
1.325478
1.639175
1.639175
1.981748
2.344759
2.575016
2.661269
2.661081
2.661081
2.62058
2.36501
2.36501
2.047188
1.596611
1.269976
1.248601
1.248038
1.247851
1.249726
1.312915
1.634675
1.634675
1.977435
2.343071
2.587766
2.661081
2.660894
2.661081
2.62358
2.394073
2.075876
2.075876
1.638238
1.284227
1.248788
1.247851
1.248038
1.249726
1.305602
1.629425
1.967498
1.967498
2.334446
2.577829
2.661081
2.661081
2.661081
2.63033
2.435887
2.116752
1.685676
1.685676
1.30054
1.249163
1.247851
1.248038
1.249726
1.29679
1.62605
1.95531
1.95531
2.324508
2.579891
2.661269
2.661081
2.660894
2.641956
2.46345
2.157066
1.725615
1.725615
1.314978
1.249913
1.247851
1.248038
1.249351
1.290602
1.619112
1.947434
2.323196
2.323196
2.579141
2.661081
2.660894
2.660894
2.661081
2.502264
2.203755
1.791055
1.351916
1.351916
1.251226
1.248038
1.248038
1.249913
1.292102
1.622862
1.948372
2.325258
2.584766
2.584766
2.661081
2.660894
2.660894
2.661081
2.528515
2.237693
1.828181
1.377229
1.377229
1.252913
1.248038
1.247851
1.249726
1.285914
1.616674
1.934309
2.311945
2.586829
2.586829
2.657894
2.660894
2.660894
2.661081
2.563016
2.274444
1.870557
1.413231
1.254226
1.254226
1.248226
1.248038
1.249351
1.278602
1.594736
1.911433
2.284382
2.572204
2.659019
2.659019
2.660894
2.660706
2.660894
2.579891
2.294132
1.902058
1.443044
1.256288
1.248226
1.248226
1.248226
1.249351
1.277851
1.580861
1.903558
2.272569
2.567703
2.661081
2.660894
2.660894
2.660706
2.661081
2.601642
2.316633
1.943309
1.473982
1.258913
1.248601
1.248601
1.248038
1.248976
1.275601
1.56811
1.897933
2.269569
2.558141
2.661081
2.660706
2.660706
2.660706
2.661081
2.619455
2.35676
1.989248
1.521234
1.264726
1.248976
1.248226
1.248226
1.249351
1.275414
1.559673
1.887058
2.257944
2.566766
2.661081
2.660706
2.660706
2.660706
2.660894
2.636143
2.386573
2.032562
1.56436
1.273914
1.249163
1.248226
1.249163
1.249163
1.269789
1.536609
1.871495
2.238068
2.556078
2.661081
2.660894
2.660331
2.660331
2.660706
2.645893
2.403073
2.062376
1.598299
1.282914
1.249538
1.248601
1.249351
1.249351
1.271101
1.524609
1.863244
2.227193
2.553078
2.661081
2.660706
2.660894
2.660894
2.660894
2.649081
2.424636
2.082626
1.611424
1.285164
1.249538
1.248226
1.266976
1.496483
1.839994
1.839994
2.195504
2.539202
2.661081
2.660894
2.660706
2.660706
2.658268
2.461575
2.132878
2.132878
1.659426
1.299977
1.250101
1.248226
1.248413
1.261539
1.452419
1.798555
2.153691
2.153691
2.497576
2.641018
2.660894
2.660894
2.660706
2.651893
2.443199
2.11619
1.655488
1.655488
1.294727
1.249538
1.248038
1.248226
1.254976
1.398418
1.747366
2.101002
2.101002
2.473388
2.644018
2.660894
2.660706
2.660706
2.661081
2.480888
2.163441
1.70349
1.70349
1.316478
1.251226
1.248226
1.248788
1.259476
1.428606
1.790867
2.136253
2.498514
2.498514
2.652456
2.660706
2.660706
2.660706
2.661081
2.518014
2.217068
1.763866
1.347041
1.347041
1.252726
1.248413
1.248788
1.258538
1.414731
1.780929
2.116002
2.483326
2.648706
2.648706
2.661081
2.660894
2.660706
2.660894
2.539952
2.240693
1.795555
1.361479
1.361479
1.253288
1.248413
1.248788
1.257976
1.39973
1.772117
2.110564
2.479388
2.644393
2.644393
2.660706
2.660519
2.660519
2.661081
2.567328
2.285695
1.851994
1.40948
1.256851
1.256851
1.248788
1.249163
1.257413
1.389605
1.769679
2.101939
2.475075
2.643456
2.660706
2.660706
2.660706
2.660706
2.660894
2.585516
2.311758
1.876182
1.418106
1.256663
1.248601
1.248601
1.248976
1.257601
1.38248
1.764241
2.090126
2.452762
2.64008
2.660894
2.660894
2.660706
2.660519
2.660706
2.611017
2.357322
1.905996
1.411356
1.252351
1.247851
1.247851
1.247851
1.247851
1.249913
1.325478
1.546172
1.870557
2.110377
2.28757
2.332384
2.332384
2.30482
2.218568
2.174129
2.082814
1.758616
1.329041
1.248788
1.247851
1.248413
1.248413
1.261163
1.543172
2.168504
2.594892
2.660519
2.659956
2.659956
2.659956
2.659769
2.659769
2.659956
2.660331
2.660706
2.485576
2.006311
1.650613
1.419418
1.357166
1.357166
1.413981
1.644613
1.989811
2.271632
2.590017
2.660706
2.660519
2.660519
2.660331
2.660331
2.660706
2.645518
2.46495
2.058063
1.578423
1.286664
1.250288
1.249163
1.252538
1.252538
1.32154
1.667863
1.987936
2.362572
2.619642
2.661081
2.660706
2.660706
2.660706
2.660706
2.626393
2.378697
2.000311
1.525172
1.267726
1.248788
1.248413
1.249726
1.281789
1.281789
1.579173
1.906183
2.278757
2.580829
2.661081
2.660706
2.660706
2.660706
2.626393
2.626393
2.36876
1.999749
1.524421
1.264726
1.248788
1.248226
1.248976
1.265476
1.265476
1.519921
1.850681
2.227193
2.548203
2.661081
2.660894
2.660894
2.661081
2.631643
2.631643
2.383385
2.024874
1.552547
1.269414
1.248788
1.248226
1.248788
1.265851
1.508859
1.508859
1.842994
2.214068
2.54539
2.661081
2.660894
2.660706
2.660706
2.64008
2.401948
2.401948
2.05225
1.577111
1.275039
1.248976
1.248038
1.248601
1.260601
1.47417
1.81768
1.81768
2.187817
2.52889
2.655643
2.660894
2.660894
2.660894
2.646456
2.410198
2.410198
2.075313
1.601486
1.279539
1.249163
1.248038
1.248413
1.257976
1.451669
1.79593
1.79593
2.156128
2.500201
2.643456
2.660706
2.661081
2.660894
2.651518
2.427449
2.090314
2.090314
1.620987
1.286102
1.249351
1.248226
1.248413
1.255913
1.421293
1.766304
2.124815
2.124815
2.481638
2.642706
2.660894
2.660894
2.660894
2.652269
2.432887
2.106814
1.628112
1.628112
1.279164
1.248788
1.247851
1.248038
1.252163
1.365417
1.699739
2.048312
2.048312
2.405886
2.615705
2.661081
2.660894
2.661081
2.630518
2.390886
2.069313
1.607674
1.607674
1.270351
1.248601
1.248038
1.247851
1.249351
1.312353
1.619299
1.961685
2.323571
2.323571
2.567328
2.660331
2.661269
2.661081
2.608017
2.345696
2.022249
1.570735
1.261913
1.261913
1.248226
1.248038
1.247663
1.248601
1.282164
1.560985
1.890808
2.256819
2.518764
2.518764
2.63558
2.661269
2.661269
2.590204
2.342509
2.025812
1.580861
1.260788
1.260788
1.248038
1.247851
1.247851
1.248413
1.265664
1.524796
1.861182
2.238068
2.514827
2.514827
2.635018
2.661081
2.661081
2.622267
2.395386
2.081126
1.644988
1.279914
1.248601
1.248601
1.247851
1.247851
1.248601
1.279352
1.588923
1.926434
2.302383
2.569016
2.659581
2.659581
2.660894
2.661081
2.661081
2.501326
2.222693
1.794055
1.358104
1.251788
1.248038
1.248038
1.248038
1.251226
1.320603
1.685489
2.017936
2.392573
2.636518
2.660894
2.660519
2.660519
2.660706
2.660894
2.595267
2.325446
1.911433
1.450732
1.259851
1.248976
1.248976
1.248788
1.254226
1.357729
1.73649
2.057313
2.440199
2.636143
2.660706
2.660519
2.660519
2.660519
2.660894
2.622267
2.393886
1.981561
1.516734
1.271289
1.249726
1.249163
1.249163
1.254413
1.348541
1.715302
2.039125
2.428012
2.644018
2.661081
2.660706
2.660706
2.660706
2.660706
2.63108
2.410198
2.011561
1.542235
1.276914
1.249726
1.249163
1.253663
1.253663
1.336166
1.702927
2.024874
2.406261
2.639518
2.660894
2.660706
2.660519
2.660519
2.660706
2.633893
2.434012
2.04325
1.570923
1.284414
1.250101
1.249163
1.252913
1.252913
1.328478
1.677051
2.005561
2.384885
2.633518
2.660706
2.660519
2.660519
2.660706
2.660706
2.646081
2.4447
2.064626
1.589111
1.288914
1.250288
1.248976
1.251226
1.306352
1.306352
1.633737
1.965622
2.343071
2.620393
2.660894
2.660706
2.660519
2.660706
2.648893
2.648893
2.4507
2.084314
1.605986
1.291539
1.250101
1.248601
1.250851
1.299415
1.299415
1.605986
1.944997
2.329196
2.617205
2.660706
2.660706
2.660706
2.660519
2.653206
2.653206
2.482201
2.12219
1.64555
1.304477
1.251038
1.248976
1.250476
1.300727
1.605424
1.605424
1.942747
2.318321
2.614017
2.660894
2.660706
2.660519
2.660706
2.658268
2.503014
2.503014
2.159691
1.677426
1.315728
1.251413
1.248788
1.249913
1.287414
1.56061
1.906183
1.906183
2.274819
2.589642
2.661081
2.660706
2.660519
2.660894
2.661081
2.508077
2.174504
2.174504
1.702552
1.330541
1.252163
1.248788
1.249913
1.283289
1.545047
1.900558
1.900558
2.265069
2.589267
2.660894
2.660894
2.660519
2.660706
2.661081
2.536202
2.216693
2.216693
1.748116
1.354541
1.253476
1.249163
1.249726
1.278789
1.518046
1.883495
2.247444
2.247444
2.583829
2.660894
2.660706
2.660331
2.660706
2.661081
2.552328
2.245381
1.773804
1.773804
1.365417
1.254788
1.249163
1.249726
1.272976
1.490483
1.856494
2.209005
2.556828
2.556828
2.660894
2.660706
2.660706
2.660519
2.660894
2.562266
2.270319
1.81018
1.81018
1.387542
1.256663
1.249163
1.249726
1.270351
1.480733
1.852931
2.205442
2.556078
2.556078
2.661081
2.660706
2.660519
2.660706
2.660894
2.593954
2.319633
1.864932
1.424668
1.424668
1.260601
1.249538
1.250101
1.273351
1.475857
1.856307
2.198505
2.55439
2.661081
2.661081
2.660331
2.660519
2.660519
2.660706
2.606892
2.346259
1.89287
1.442482
1.262851
1.262851
1.249351
1.249913
1.267351
1.444732
1.831556
2.164566
2.526452
2.660894
2.660894
2.660519
2.660706
2.660706
2.660706
2.620955
2.384885
1.940122
1.485045
1.269414
1.269414
1.249726
1.250288
1.266226
1.827243
2.160628
2.528702
2.661081
2.660706
2.660519
2.660519
2.660519
2.660706
2.621518
2.405136
1.971623
1.506421
1.272039
1.249913
1.250476
1.263226
1.263226
1.417731
1.80868
2.14169
2.514827
2.661081
2.660519
2.660519
2.660519
2.660519
2.660706
2.627517
2.427824
2.001061
1.530609
1.279914
1.250101
1.250101
1.259476
1.259476
1.38848
1.768554
2.099127
2.478826
2.656581
2.660706
2.660519
2.660519
2.660519
2.660519
2.638393
2.448637
2.032749
1.555172
1.285727
1.250288
1.250101
1.257788
1.375729
1.375729
1.741928
2.068563
2.455575
2.652643
2.660706
2.660519
2.660519
2.660706
2.641393
2.641393
2.45445
2.044187
1.56661
1.287414
1.250663
1.250101
1.255913
1.368417
1.738553
1.738553
2.065188
2.447137
2.651331
2.660706
2.660519
2.660519
2.660706
2.646643
2.646643
2.464013
2.065188
1.588736
1.290414
1.250476
1.249351
1.252726
1.323978
1.668801
1.668801
1.997311
2.37926
2.63258
2.660894
2.660706
2.660519
2.660706
2.645518
2.4492
2.4492
2.065001
1.586111
1.287602
1.250476
1.249351
1.252351
1.323978
1.665238
2.005936
2.005936
2.396886
2.642706
2.660706
2.660519
2.660519
2.660519
2.659394
2.516702
2.147503
2.147503
1.665426
1.326041
1.252726
1.249913
1.253288
1.332791
1.664113
2.008186
2.008186
2.390323
2.642893
2.660894
2.660519
2.660519
2.660706
2.660894
2.533952
2.180129
2.180129
1.700677
1.343479
1.253663
1.250101
1.253663
1.332791
1.65005
1.992623
2.375135
2.375135
2.638206
2.660706
2.660519
2.660519
2.660519
2.660894
2.561141
2.230193
1.751116
1.751116
1.373104
1.257601
1.250851
1.253663
1.333916
1.645925
1.994498
2.36651
2.635768
2.635768
2.660894
2.660519
2.660519
2.660519
2.660894
2.583454
2.260944
1.782992
1.782992
1.39073
1.258726
1.250476
1.252913
1.321728
1.622675
1.973873
2.346447
2.632768
2.632768
2.660706
2.660331
2.660331
2.660331
2.660706
2.60633
2.29582
1.824618
1.420168
1.420168
1.263226
1.251976
1.254601
1.325665
1.592486
1.924559
2.237318
2.535265
2.646081
2.646081
2.661081
2.660894
2.636331
2.482201
2.12069
1.759554
1.332791
1.248226
1.248038
1.248038
1.248413
1.248038
1.256288
1.453919
1.785617
2.107189
2.466825
2.652643
2.660519
2.660519
2.660144
2.659769
2.659769
2.660144
2.660706
2.520827
2.097064
1.80943
1.80943
1.667301
1.658676
1.821431
2.098564
2.457075
2.646831
2.660519
2.659956
2.659769
2.659769
2.659956
2.659769
2.660331
2.660706
2.575954
2.112064
1.625487
1.343853
1.260601
1.260601
1.262289
1.349854
1.609549
1.983061
2.326009
2.625643
2.660706
2.660519
2.660144
2.660144
2.660331
2.660331
2.635768
2.441512
1.978373
1.517484
1.282164
1.251601
1.252163
1.252163
1.286477
1.506796
1.893245
2.229256
2.572016
2.660894
2.660519
2.660519
2.660519
2.660519
2.660706
2.626018
2.400073
1.950997
1.495733
1.273351
1.250288
1.250851
1.250851
1.271289
1.459169
1.846369
2.183692
2.545203
2.660894
2.660706
2.660519
2.660331
2.660331
2.660519
2.625268
2.400073
1.961685
1.494983
1.272226
1.249913
1.250101
1.264164
1.264164
1.419606
1.811493
2.145253
2.515764
2.661081
2.660894
2.660519
2.660519
2.660706
2.660706
2.632018
2.427074
1.991311
1.514671
1.274664
1.250101
1.249913
1.261163
1.261163
1.405918
1.792742
2.123877
2.502826
2.661081
2.660706
2.660331
2.660519
2.660519
2.660519
2.638206
2.435887
2.013624
1.536609
1.279727
1.250101
1.249538
1.257788
1.383605
1.383605
1.764241
2.093689
2.476013
2.655081
2.660706
2.660331
2.660331
2.660706
2.644581
2.644581
2.444325
2.025812
1.54561
1.280289
1.250101
1.249351
1.255351
1.354166
1.722615
1.722615
2.055438
2.445075
2.650018
2.660706
2.660519
2.660519
2.660706
2.644581
2.4462
2.4462
2.044
1.559485
1.278414
1.249538
1.249163
1.252163
1.319478
1.671614
1.671614
2.002561
2.384885
2.636893
2.660706
2.660519
2.660519
2.660706
2.642143
2.412824
2.412824
2.018499
1.529484
1.267164
1.248788
1.248226
1.249726
1.279164
1.584236
1.915371
1.915371
2.293758
2.588517
2.661081
2.660706
2.660894
2.660894
2.632205
2.367635
1.982123
1.982123
1.496858
1.259851
1.248226
1.248038
1.248226
1.260788
1.506984
1.836994
2.214818
2.214818
2.542203
2.661269
2.660894
2.660894
2.660894
2.61608
2.335009
1.965435
1.965435
1.485608
1.257038
1.248038
1.247851
1.248226
1.255913
1.452982
1.793867
2.176379
2.176379
2.516327
2.651143
2.660894
2.660894
2.660894
2.618705
2.338196
1.980998
1.503608
1.503608
1.258726
1.248038
1.248038
1.248226
1.257413
1.465357
1.806618
2.194379
2.543703
2.543703
2.658456
2.660706
2.660706
2.660894
2.655643
2.465513
2.120315
1.648925
1.301665
1.301665
1.250476
1.248601
1.249726
1.283477
1.56211
1.918934
2.30182
2.618892
2.660894
2.660894
2.660706
2.660519
2.660331
2.660894
2.586266
2.260569
1.781867
1.386042
1.386042
1.257226
1.250663
1.252913
1.32154
1.620612
1.98006
2.354697
2.638768
2.660706
2.660706
2.660519
2.660331
2.660519
2.660706
2.622643
2.344759
1.861932
1.450169
1.268289
1.268289
1.252163
1.254788
1.338041
1.6328
1.999186
2.364635
2.636893
2.660894
2.660331
2.660331
2.660519
2.660144
2.660706
2.628455
2.37701
1.900745
1.476608
1.273351
1.252351
1.252351
1.254226
1.322478
1.599986
1.97481
2.337634
2.630893
2.660706
2.660519
2.660519
2.660331
2.660519
2.660706
2.626205
2.392198
1.917621
1.472857
1.271101
1.251413
1.251413
1.252913
1.307665
1.568485
1.946872
2.30407
2.626018
2.660894
2.660519
2.660331
2.660331
2.660331
2.660519
2.62358
2.417324
1.950435
1.497233
1.276726
1.251413
1.252351
1.252351
1.292664
1.532109
1.911246
2.263007
2.599954
2.660894
2.660706
2.660331
2.660519
2.660519
2.660894
2.627143
2.412824
1.955122
1.498358
1.275976
1.250851
1.251413
1.281602
1.281602
1.496858
1.885558
2.231693
2.580079
2.661081
2.660519
2.660519
2.660331
2.660331
2.660706
2.635393
2.431012
1.98456
1.519734
1.279164
1.250663
1.251226
1.275226
1.275226
1.473607
1.866057
2.209755
2.561703
2.661081
2.660331
2.660331
2.660331
2.660519
2.660519
2.639706
2.449762
2.004436
1.536609
1.283664
1.250663
1.250851
1.269601
1.452232
1.452232
1.840744
2.177504
2.54614
2.660894
2.660519
2.660331
2.660519
2.660519
2.645518
2.645518
2.464575
2.02825
1.553485
1.291352
1.251226
1.251413
1.268476
1.434981
1.434981
1.823306
2.156878
2.530952
2.660894
2.660519
2.660331
2.660519
2.660519
2.648143
2.648143
2.498701
2.076251
1.595861
1.308227
1.252538
1.252163
1.265289
1.427106
1.819931
1.819931
2.152941
2.530202
2.660894
2.660519
2.660331
2.660519
2.660331
2.654144
2.514077
2.514077
2.100439
1.6223
1.31479
1.252538
1.251601
1.263414
1.411543
1.79668
2.131752
2.131752
2.514452
2.660894
2.660706
2.660331
2.660331
2.660519
2.658268
2.534702
2.534702
2.135503
1.650613
1.327916
1.253476
1.251601
1.261913
1.40048
1.776804
2.10869
2.10869
2.661081
2.660331
2.660331
2.660331
2.660519
2.660706
2.548765
2.169254
1.686427
1.345916
1.345916
1.254413
1.251413
1.259663
1.388667
1.752991
2.098001
2.483701
2.660706
2.660519
2.660519
2.660519
2.660331
2.660519
2.660894
2.568453
2.212568
1.722053
1.364667
1.256663
1.256663
1.252163
1.259476
1.386417
1.734428
2.082063
2.469263
2.658456
2.660706
2.660144
2.660144
2.660144
2.660519
2.660894
2.589454
2.253819
1.764429
1.392792
1.259476
1.259476
1.252538
1.259101
1.38923
1.733678
2.086564
2.475826
2.659769
2.660519
2.660519
2.660519
2.660144
2.660331
2.660519
2.610455
2.285507
1.797992
1.415106
1.261913
1.252913
1.252913
1.258351
1.37873
1.708927
2.05525
2.43945
2.653956
2.660706
2.660519
2.660331
2.660331
2.660519
2.660706
2.615517
2.302945
1.809805
1.414356
1.261726
1.251788
1.255913
1.255913
1.354729
1.677614
2.028999
2.405324
2.649081
2.660706
2.660331
2.660144
2.660331
2.660331
2.660706
2.624518
2.333696
1.846931
1.434231
1.264726
1.251788
1.255351
1.255351
1.344791
1.652488
2.013249
2.39201
2.647581
2.660519
2.660519
2.660331
2.660331
2.660331
2.660519
2.618892
2.330696
1.848806
1.434044
1.263976
1.251226
1.252538
1.31104
1.31104
1.588923
1.95756
2.322821
2.626393
2.660706
2.660519
2.660331
2.660331
2.660519
2.660519
2.61758
2.329946
1.856307
1.433294
1.263226
1.250851
1.252351
1.303727
1.568485
1.568485
1.952872
2.321321
2.626768
2.660706
2.660331
2.660144
2.660331
2.660519
2.660519
2.629955
2.399698
1.924934
1.484295
1.274851
1.251788
1.253101
1.31029
1.569048
1.569048
1.949309
2.310258
2.62583
2.660894
2.660331
2.660331
2.660331
2.660519
2.635393
2.635393
2.417699
1.947622
1.500421
1.279164
1.251976
1.252913
1.30279
1.543547
1.934872
1.934872
2.293195
2.621143
2.660706
2.660331
2.660331
2.660331
2.660519
2.633143
2.4477
2.4477
1.982873
1.525547
1.288727
1.252351
1.253101
1.299602
1.535484
1.926246
1.926246
2.271257
2.61008
2.660894
2.660331
2.660144
2.660331
2.660519
2.643456
2.475075
2.475075
2.016999
1.54861
1.29529
1.252351
1.253101
1.292852
1.514671
1.905433
2.247444
2.247444
2.594704
2.660894
2.660519
2.660331
2.660331
2.660519
2.658831
2.512577
2.071563
2.071563
1.588173
1.30954
1.253476
1.255351
1.300727
1.534547
1.933934
2.272757
2.60558
2.60558
2.660894
2.660519
2.660519
2.660519
2.660894
2.556266
2.235068
1.737053
1.737053
1.285914
1.248226
1.248226
1.248226
1.248038
1.249538
1.506234
2.086189
2.557953
2.557953
2.661081
2.660706
2.660519
2.660706
2.660519
2.660519
2.660519
2.631455
2.316821
2.316821
1.97331
1.72674
1.673114
1.760116
2.005186
2.379447
2.626393
2.660519
2.659956
2.659956
2.659769
2.659769
2.659769
2.659956
2.660331
2.658643
2.412636
1.90112
1.526859
1.526859
1.300915
1.271851
1.318353
1.535297
1.903558
2.214255
2.564891
2.660706
2.660519
2.660519
2.660144
2.660331
2.660519
2.660894
2.544078
2.14244
1.650988
1.323415
1.323415
1.252538
1.250851
1.258351
1.380417
1.752053
2.089001
2.47395
2.655831
2.660519
2.660519
2.660519
2.660331
2.660331
2.656394
2.512577
2.11619
1.624175
1.303165
1.250851
1.250851
1.249726
1.253851
1.344229
1.701989
2.039125
2.427449
2.645893
2.660894
2.660331
2.660331
2.660331
2.660519
2.656581
2.510514
2.120127
1.628112
1.30429
1.250851
1.249538
1.249538
1.252726
1.327541
1.672364
2.010249
2.402136
2.641581
2.660706
2.660519
2.660519
2.660519
2.660519
2.660894
2.517827
2.143378
1.650988
1.304665
1.250663
1.248976
1.248976
1.251038
1.303352
1.6298
1.976685
2.366322
2.633143
2.660894
2.660706
2.660519
2.660519
2.660706
2.657894
2.517452
2.154253
1.663738
1.310103
1.250663
1.248601
1.250101
1.250101
1.290227
1.594361
1.941434
2.327696
2.62508
2.660706
2.660706
2.660519
2.660706
2.660706
2.660894
2.529265
2.176379
1.683051
1.317978
1.251038
1.248788
1.250101
1.250101
1.286102
1.568673
1.920246
2.300695
2.613267
2.661081
2.660706
2.660519
2.660706
2.660706
2.660894
2.526077
2.183129
1.696927
1.319478
1.251038
1.248601
1.249351
1.275039
1.275039
1.527797
1.884058
2.266194
2.590767
2.660894
2.660706
2.660519
2.660894
2.660894
2.660894
2.523639
2.185754
1.699552
1.313665
1.250101
1.248226
1.248601
1.260788
1.460295
1.460295
1.81918
2.185942
2.536577
2.661081
2.660894
2.660706
2.660706
2.661081
2.477701
2.477701
2.13869
1.649675
1.284602
1.248976
1.248226
1.248226
1.251976
1.376667
1.376667
1.723553
2.089751
2.454825
2.637081
2.661081
2.660894
2.660894
2.649268
2.437199
2.437199
2.101002
1.62155
1.274851
1.248601
1.247851
1.248038
1.249913
1.335791
1.673676
1.673676
2.036312
2.406823
2.620393
2.660894
2.660894
2.660894
2.652456
2.434762
2.107002
2.107002
1.639925
1.277664
1.248788
1.247851
1.247851
1.249726
1.323978
1.664113
2.025999
2.025999
2.404198
2.634455
2.660894
2.660706
2.660894
2.661081
2.501701
2.196255
2.196255
1.741553
1.328665
1.250851
1.248038
1.248413
1.253663
1.376292
1.762929
2.123315
2.123315
2.503389
2.660894
2.660894
2.660331
2.660706
2.660894
2.606892
2.352259
1.89737
1.89737
1.441544
1.262101
1.249351
1.249726
1.266601
1.452419
1.852556
2.205067
2.563391
2.563391
2.661081
2.660706
2.660331
2.660144
2.660331
2.638018
2.453512
1.999936
1.528734
1.528734
1.284977
1.251226
1.251413
1.281227
1.48917
1.88312
2.227193
2.586079
2.661081
2.661081
2.660519
2.660519
2.660519
2.660331
2.641956
2.480888
2.038
1.557047
1.557047
1.293039
1.251788
1.251976
1.277101
1.471357
1.869244
2.208067
2.569578
2.660894
2.660894
2.660519
2.660331
2.660519
2.660519
2.653394
2.498139
2.0575
1.577111
1.296602
1.296602
1.251601
1.251601
1.269789
1.441356
1.836806
2.176941
2.54764
2.660894
2.660519
2.660519
2.660144
2.660331
2.660331
2.647956
2.504701
2.085064
1.600924
1.309165
1.252351
1.252351
1.251788
1.266789
1.438169
1.827243
2.164004
2.539577
2.661081
2.660519
2.660519
2.660331
2.660331
2.660519
2.658831
2.52589
2.118065
1.630175
1.319103
1.252351
1.252351
1.251413
1.262664
1.414356
1.789555
2.129315
2.513327
2.661081
2.660519
2.660331
2.660331
2.660331
2.660331
2.659394
2.522889
2.122377
1.631675
1.310853
1.251788
1.250663
1.250663
1.257038
1.373854
1.752241
2.092564
2.482576
2.660706
2.660706
2.660331
2.660331
2.660331
2.660519
2.657331
2.535452
2.137565
1.6463
1.314228
1.251788
1.250476
1.250476
1.255913
1.365417
1.732928
2.074751
2.467763
2.659581
2.660519
2.660331
2.660144
2.660144
2.660519
2.659769
2.551203
2.183879
1.697677
1.344041
1.253851
1.250663
1.256288
1.256288
1.367667
1.724115
2.066688
2.461013
2.654894
2.660706
2.660519
2.660331
2.660331
2.660331
2.660706
2.568078
2.217818
1.72674
1.359792
1.254976
1.250851
1.255726
1.362042
1.362042
1.70799
2.056938
2.44545
2.653769
2.660706
2.660331
2.660519
2.660706
2.575954
2.575954
2.246694
1.748303
1.368417
1.255351
1.250663
1.254601
1.345541
1.678926
2.03725
2.03725
2.426512
2.649456
2.660706
2.660519
2.660331
2.660331
2.660519
2.598454
2.275382
2.275382
1.782054
1.38623
1.257788
1.250851
1.254226
1.344979
1.664301
2.021687
2.402698
2.402698
2.645331
2.660519
2.660331
2.660331
2.660331
2.660519
2.605017
2.300133
1.81093
1.81093
1.407418
1.259851
1.251226
1.253476
1.331291
1.6388
2.000499
2.379635
2.379635
2.640643
2.660706
2.660331
2.660144
2.660331
2.660706
2.614017
2.320008
1.831556
1.831556
1.418668
1.262101
1.251038
1.253288
1.329041
1.625862
1.985311
2.36276
2.636331
2.636331
2.660706
2.660519
2.660144
2.660331
2.660706
2.624143
2.344572
1.862307
1.433294
1.433294
1.264164
1.250851
1.251976
1.307477
1.589674
1.963935
2.328821
2.630143
2.660894
2.660894
2.660519
2.660519
2.660331
2.660519
2.628268
2.373635
1.897183
1.458045
1.458045
1.267351
1.251413
1.252726
1.313102
1.587986
1.973123
2.341009
2.634643
2.660519
2.660519
2.660331
2.660331
2.660331
2.660519
2.63183
2.405136
1.929059
1.48392
1.273726
1.273726
1.251413
1.252163
1.299977
1.556672
1.941997
2.295445
2.61983
2.660706
2.660519
2.660519
2.660144
2.660331
2.660706
2.634268
2.415449
1.941997
1.482608
1.269976
1.250476
1.250476
1.251038
1.279539
1.497796
1.884807
2.243506
2.586079
2.660894
2.660519
2.660519
2.660519
2.660519
2.660519
2.628643
2.38601
1.924746
1.457482
1.264539
1.249538
1.249538
1.249726
1.265851
1.454857
1.850119
2.207692
2.569203
2.660894
2.660519
2.660331
2.660331
2.660519
2.660519
2.634268
2.426512
1.968623
1.503608
1.276539
1.250101
1.250851
1.250851
1.270726
1.469107
1.866432
2.21613
2.576329
2.660894
2.660519
2.660331
2.660331
2.660331
2.660519
2.638581
2.462513
2.013811
1.534547
1.282352
1.250476
1.250851
1.269789
1.269789
1.451482
1.850869
2.193442
2.556641
2.660894
2.660331
2.660519
2.660519
2.660519
2.660706
2.642143
2.4747
2.032749
1.550485
1.286289
1.250663
1.250851
1.266601
1.266601
1.429731
1.824806
2.171691
2.545953
2.661081
2.660519
2.660519
2.660331
2.660519
2.660519
2.652456
2.493076
2.062001
1.577111
1.294915
1.250851
1.250663
1.262851
1.417731
1.417731
1.812055
2.144315
2.52589
2.661081
2.660519
2.660331
2.660519
2.660519
2.660519
2.651893
2.499826
2.082251
1.593424
1.302415
1.251601
1.251226
1.264351
1.414356
1.414356
1.790305
2.11394
2.496264
2.660894
2.660706
2.660331
2.660144
2.660519
2.649456
2.649456
2.469075
2.013999
1.460857
1.252913
1.247851
1.248038
1.247851
1.248413
1.290789
1.290789
1.528359
1.898683
2.177316
2.336321
2.489138
2.574829
2.641206
2.609892
2.353009
2.353009
1.902808
1.459357
1.260226
1.252351
1.262289
1.421293
1.873745
2.354697
2.62958
2.62958
2.660519
2.659956
2.659769
2.659581
2.659769
2.659581
2.659956
2.660519
2.660519
2.580079
2.102127
1.701989
1.439856
1.368417
1.423543
1.629612
1.96656
2.272569
2.272569
2.589829
2.660706
2.660331
2.660331
2.660144
2.660519
2.660706
2.581766
2.20863
2.20863
1.708552
1.342916
1.253476
1.250476
1.254226
1.347791
1.693177
2.03575
2.422761
2.422761
2.648143
2.660706
2.660519
2.660519
2.660519
2.661081
2.535077
2.167379
1.672739
1.672739
1.316853
1.251226
1.248976
1.250663
1.298665
1.616862
1.964872
2.350384
2.350384
2.633518
2.660894
2.660519
2.660519
2.660519
2.660894
2.523077
2.167004
1.670488
1.670488
1.308602
1.250663
1.248788
1.250101
1.288352
1.587048
1.937122
2.323196
2.623393
2.623393
2.660894
2.660706
2.660519
2.660519
2.660894
2.530202
2.180692
1.685489
1.312353
1.312353
1.250476
1.248601
1.249538
1.277664
1.54936
1.906183
2.290945
2.615517
2.660894
2.660894
2.660519
2.660519
2.660519
2.660894
2.548015
2.205442
1.71474
1.328291
1.328291
1.251413
1.248788
1.249538
1.275039
1.529672
1.897558
2.272944
2.602954
2.660894
2.660894
2.660519
2.660519
2.660706
2.660894
2.556453
2.230381
1.740991
1.341228
1.251976
1.251976
1.248788
1.248976
1.270164
1.505671
1.879182
2.245756
2.585329
2.660894
2.660519
2.660519
2.660331
2.660706
2.660894
2.560766
2.239193
1.753741
1.338978
1.251226
1.248226
1.248226
1.248601
1.262101
1.460857
1.834181
2.20488
2.55514
2.661081
2.660706
2.660706
2.660706
2.660519
2.660706
2.551578
2.240693
1.763116
1.336541
1.251413
1.248226
1.248226
1.248413
1.255913
1.419231
1.796117
2.155566
2.52439
2.661081
2.660706
2.660519
2.660519
2.660706
2.660894
2.52514
2.208067
1.72674
1.313102
1.249726
1.247851
1.248038
1.248038
1.250851
1.344416
1.705927
2.061813
2.444325
2.636518
2.660894
2.660894
2.660894
2.660894
2.660894
2.483701
2.162128
1.690927
1.293227
1.248976
1.248038
1.248038
1.249351
1.249351
1.304477
1.642738
1.997311
2.384323
2.623955
2.660894
2.660706
2.660894
2.660894
2.661081
2.478076
2.163253
1.700489
1.29679
1.248976
1.247851
1.247851
1.248976
1.248976
1.290602
1.62155
1.973685
2.362947
2.61908
2.660894
2.660894
2.660706
2.660894
2.660894
2.52589
2.229068
1.776992
1.338791
1.250663
1.248038
1.248226
1.250663
1.323415
1.323415
1.694864
2.047188
2.443762
2.649831
2.660706
2.660706
2.660706
2.660894
2.605017
2.605017
2.339134
1.893808
1.422043
1.255913
1.248413
1.248601
1.253851
1.360729
1.360729
1.751678
2.103064
2.493451
2.658456
2.660706
2.660519
2.660331
2.660706
2.639518
2.639518
2.425574
1.986248
1.509233
1.272789
1.249538
1.249726
1.258913
1.399168
1.801555
1.801555
2.144503
2.531702
2.660894
2.660519
2.660331
2.660331
2.660519
2.649456
2.482576
2.482576
2.04775
1.55686
1.284602
1.250101
1.249726
1.259476
1.39823
1.781117
2.12744
2.12744
2.511264
2.660894
2.660519
2.660331
2.660331
2.660706
2.648143
2.486513
2.062001
2.062001
1.569798
1.284977
1.250101
1.249726
1.257226
1.375355
1.762179
2.104002
2.104002
2.489701
2.661081
2.660519
2.660331
2.660331
2.660706
2.653394
2.508827
2.095189
2.095189
1.594174
1.292477
1.250476
1.249913
1.255913
1.365604
1.742866
2.080751
2.477513
2.477513
2.655269
2.660519
2.660331
2.660519
2.660519
2.654331
2.513139
2.098564
1.602799
1.602799
1.293414
1.250476
1.249351
1.253663
1.342541
1.704802
2.048687
2.443574
2.648331
2.648331
2.660519
2.660144
2.660519
2.660519
2.657144
2.514452
2.120127
1.626425
1.626425
1.299227
1.250663
1.248976
1.251788
1.322478
1.678551
2.017749
2.406823
2.647581
2.647581
2.660706
2.660519
2.660519
2.660706
2.660706
2.53039
2.139815
1.641988
1.30354
1.30354
1.250288
1.249163
1.251038
1.310103
1.652113
2.001998
2.397073
2.644206
2.660706
2.660706
2.660331
2.660519
2.660519
2.660894
2.536577
2.155941
1.658676
1.307102
1.250663
1.250663
1.248976
1.250851
1.30504
1.628487
1.985686
2.373635
2.63483
2.660894
2.660331
2.660331
2.660519
2.660519
2.545578
2.188004
1.690739
1.321915
1.251226
1.248976
1.250476
1.295477
1.295477
1.601486
1.955685
2.346071
2.633893
2.660706
2.660519
2.660519
2.660519
2.660519
2.660706
2.549328
2.208442
1.71474
1.332791
1.252163
1.249163
1.250101
1.293039
1.293039
1.586861
1.944622
2.329571
2.627705
2.660706
2.660519
2.660331
2.660331
2.660894
2.660894
2.573516
2.238443
1.741178
1.343104
1.252538
1.248976
1.250476
1.289289
1.57036
1.57036
1.938059
2.318696
2.626768
2.660894
2.660519
2.660331
2.660519
2.660706
2.586454
2.586454
2.265632
1.773804
1.360354
1.253476
1.248976
1.249726
1.281977
1.54486
1.54486
1.910308
2.293383
2.617017
2.660894
2.660519
2.660331
2.660519
2.660894
2.586454
2.586454
2.272382
1.785242
1.362604
1.253101
1.248788
1.249538
1.274289
1.515421
1.897558
1.897558
2.277257
2.609517
2.660894
2.660331
2.660519
2.660519
2.660894
2.586829
2.294508
2.294508
1.809805
1.376104
1.254226
1.248601
1.249351
1.269414
1.485983
1.863807
2.234131
2.234131
2.584204
2.661081
2.660706
2.660331
2.660331
2.660894
2.596017
2.310258
2.310258
1.824431
1.381355
1.254413
1.248601
1.249351
1.266601
1.468545
1.851807
2.21388
2.21388
2.572579
2.660894
2.660519
2.660331
2.660519
2.660706
2.600142
2.315508
1.838306
1.838306
1.382855
1.254226
1.248601
1.248601
1.257038
1.406855
1.783742
2.148441
2.524015
2.524015
2.660331
2.660706
2.660519
2.660519
2.660519
2.586641
2.298258
1.832493
1.377417
1.377417
1.253288
1.248413
1.248413
1.254976
1.389792
1.778679
2.138503
2.513514
2.658643
2.658643
2.660519
2.660519
2.660519
2.660706
2.615892
2.355072
1.890808
1.420543
1.420543
1.256663
1.248601
1.248601
1.256101
1.388292
1.783367
2.130627
2.513139
2.659581
2.659581
2.660706
2.660706
2.660519
2.660894
2.621893
2.370447
1.911246
1.433669
1.257601
1.257601
1.248601
1.248601
1.254788
1.371979
1.762179
2.114127
2.504326
2.657519
2.660706
2.660706
2.660519
2.660519
2.660894
2.623768
2.392573
1.940684
1.458795
1.260226
1.248601
1.248601
1.248601
1.254413
1.361854
1.753928
2.105689
2.490263
2.658268
2.660706
2.660706
2.660519
2.660331
2.660706
2.63108
2.402886
1.958872
1.467045
1.260601
1.248788
1.248788
1.248601
1.252726
1.340291
1.723553
2.073626
2.46945
2.651706
2.660706
2.660331
2.660331
2.660519
2.660706
2.635768
2.418449
1.985498
1.500796
1.265664
1.248788
1.248788
1.248788
1.251976
1.320603
1.698802
2.053188
2.4507
2.653581
2.660706
2.660519
2.660519
2.660519
2.661081
2.599579
2.273694
1.783742
1.305227
1.248226
1.248226
1.248038
1.248038
1.248226
1.247851
1.256476
1.40048
1.736303
2.088814
2.368385
2.639143
2.660894
2.660894
2.658456
2.510327
2.227568
1.886495
1.54786
1.337103
1.30204
1.476233
1.657551
1.657551
1.933559
2.319071
2.594517
2.660519
2.660144
2.659956
2.659769
2.659769
2.659956
2.659956
2.660331
2.660894
2.437762
1.916121
1.530234
1.299602
1.266976
1.291727
1.461982
1.461982
1.799867
2.108315
2.471513
2.657144
2.660706
2.660519
2.660519
2.660706
2.650581
2.650581
2.470201
2.064813
1.566235
1.273914
1.249163
1.248226
1.249163
1.275414
1.275414
1.576923
1.913121
2.30332
2.600142
2.660894
2.660706
2.660706
2.660894
2.641956
2.641956
2.401761
2.002936
1.505858
1.258538
1.248226
1.248038
1.248226
1.260038
1.507546
1.507546
1.850494
2.236568
2.566953
2.661081
2.660894
2.660706
2.660894
2.635018
2.395198
2.395198
2.013999
1.518796
1.260038
1.248226
1.247851
1.248226
1.256663
1.479233
1.822743
1.822743
2.210692
2.54764
2.660894
2.660706
2.660894
2.660706
2.638581
2.404573
2.404573
2.034625
1.527422
1.260413
1.248413
1.247851
1.248038
1.253851
1.436294
1.784305
1.784305
2.170754
2.519327
2.651893
2.660894
2.660894
2.660894
2.643643
2.388823
2.021312
2.021312
1.524234
1.260038
1.248226
1.247851
1.248038
1.252913
1.412481
1.758804
2.14244
2.14244
2.505264
2.650206
2.660706
2.660894
2.660894
2.647768
2.408136
2.054688
1.559485
1.559485
1.263414
1.248226
1.248038
1.248226
1.251788
1.392417
1.730865
2.112627
2.112627
2.480701
2.637455
2.661081
2.660519
2.660894
2.648706
2.402886
2.04775
1.554985
1.554985
1.260601
1.248226
1.248038
1.248038
1.250288
1.355479
1.687364
2.065751
2.432699
2.432699
2.631455
2.660894
2.660706
2.660894
2.627143
2.390323
2.041375
1.548985
1.257976
1.257976
1.248226
1.247851
1.248038
1.249163
1.320415
1.627362
2.001249
2.370635
2.599017
2.599017
2.661081
2.660894
2.660894
2.626393
2.336884
1.993186
1.506984
1.252913
1.252913
1.248038
1.248038
1.247851
1.248038
1.276726
1.532484
1.897933
2.27707
2.532077
2.532077
2.647581
2.661081
2.650393
2.574454
2.278195
1.937497
1.457107
1.250663
1.248038
1.248038
1.248038
1.248226
1.248038
1.262101
1.475483
1.837931
2.215568
2.482951
2.620768
2.620768
2.661269
2.646456
2.574454
2.282695
1.947809
1.475295
1.251226
1.248038
1.248038
1.248038
1.248038
1.248038
1.258913
1.469857
1.835118
2.21913
2.494764
2.636143
2.636143
2.661269
2.654144
2.599017
2.342696
2.013811
1.55386
1.257226
1.248038
1.248226
1.248226
1.248038
1.248038
1.270539
1.549922
1.916121
2.311758
2.571453
2.661081
2.660894
2.660894
2.660894
2.651706
2.467013
2.148441
1.688489
1.290039
1.248976
1.247851
1.247851
1.247851
1.248976
1.293602
1.633925
1.991873
2.38526
2.628455
2.661081
2.660706
2.660706
2.660706
2.660894
2.54239
2.242568
1.78768
1.341791
1.250288
1.247851
1.248038
1.250101
1.250101
1.311978
1.671988
2.024124
2.418636
2.638206
2.660894
2.660706
2.660706
2.660706
2.661081
2.562828
2.275007
1.820681
1.356979
1.250663
1.247851
1.248038
1.249351
1.249351
1.296602
1.653988
2.002374
2.398011
2.631268
2.660894
2.660706
2.660519
2.660894
2.660894
2.586079
2.301258
1.853119
1.37798
1.251601
1.248038
1.248226
1.249351
1.288914
1.288914
1.630737
1.974435
2.364447
2.618705
2.660894
2.660894
2.660706
2.661081
2.576329
2.576329
2.286257
1.849369
1.374604
1.251038
1.247851
1.247851
1.248788
1.271101
1.271101
1.585361
1.926246
2.328821
2.60558
2.660706
2.660706
2.660706
2.660894
2.587579
2.587579
2.29882
1.866807
1.39073
1.251413
1.248038
1.247851
1.248601
1.267539
1.567548
1.567548
1.906558
2.302945
2.588704
2.660894
2.660894
2.660894
2.660894
2.591516
2.294883
2.294883
1.869807
1.38998
1.251038
1.247851
1.247851
1.248413
1.259476
1.526109
1.867182
1.867182
2.261694
2.568266
2.661081
2.660894
2.660894
2.661081
2.590204
2.296945
1.881995
1.881995
1.399168
1.251226
1.248226
1.247851
1.248413
1.258163
1.513359
1.860994
1.860994
2.257194
2.568266
2.661081
2.660894
2.660706
2.660894
2.604267
2.318883
1.911808
1.911808
1.421106
1.252726
1.248226
1.248038
1.248226
1.256288
1.490671
1.835868
2.231693
2.231693
2.552328
2.661081
2.660706
2.660894
2.661081
2.614767
2.338384
1.935247
1.253101
1.248038
1.248038
1.247851
1.247851
1.255351
1.473607
1.812055
2.206192
2.53939
2.658643
2.660894
2.660894
2.660706
2.660894
2.623768
2.337446
1.952497
1.453544
1.253851
1.248226
1.248226
1.247851
1.248038
1.254038
1.45992
1.802493
2.192504
2.53564
2.652831
2.660894
2.660894
2.660894
2.660706
2.63108
2.355634
1.980623
1.485045
1.254788
1.248038
1.248038
1.248038
1.248038
1.252538
1.432919
1.777742
2.170191
2.521577
2.648518
2.660894
2.660894
2.660894
2.660894
2.635205
2.368385
1.991873
1.496296
1.255538
1.247851
1.248038
1.248038
1.248038
1.251976
1.414918
1.757116
2.143565
2.507139
2.64008
2.660894
2.660706
2.660706
2.660894
2.640643
2.382073
2.014374
1.519734
1.257601
1.248038
1.248038
1.248038
1.248038
1.251601
1.39973
1.747928
2.13119
2.491951
2.642706
2.660706
2.660894
2.660894
2.660894
2.642706
2.393698
2.0365
1.537172
1.258913
1.248038
1.247851
1.248038
1.251038
1.251038
1.38023
1.721678
2.104564
2.469638
2.635955
2.661081
2.660706
2.660894
2.645518
2.645518
2.391448
2.036125
1.531734
1.257413
1.248038
1.248038
1.247851
1.249726
1.345729
1.345729
1.670864
2.05075
2.420511
2.625268
2.661081
2.660706
2.661081
2.62808
2.62808
2.371572
2.024124
1.532109
1.256851
1.248038
1.248038
1.247851
1.249163
1.330916
1.330916
1.653988
2.030687
2.412824
2.61683
2.661081
2.660894
2.660706
2.651518
2.422574
2.422574
2.082814
1.593236
1.265851
1.248413
1.248038
1.247851
1.249538
1.332228
1.661113
1.661113
2.031625
2.412074
2.62808
2.660894
2.660894
2.660706
2.651706
2.433074
2.087126
2.087126
1.609924
1.269414
1.248413
1.247851
1.247851
1.249163
1.322853
1.655113
1.655113
2.023562
2.403448
2.624892
2.661081
2.660894
2.660894
2.659769
2.456325
2.11919
2.11919
1.640675
1.275601
1.248413
1.248038
1.248038
1.248976
1.309165
1.636737
2.003311
2.003311
2.38901
2.624143
2.660894
2.660894
2.660706
2.661081
2.473388
2.141315
1.667301
1.667301
1.281977
1.248413
1.247851
1.248038
1.248788
1.295477
1.614612
1.973873
2.359385
2.359385
2.603517
2.660894
2.660894
2.660894
2.661081
2.480326
2.162503
1.699927
1.699927
1.295665
1.248976
1.247851
1.247851
1.248601
1.283102
1.596424
1.957747
2.348134
2.348134
2.611017
2.661081
2.660894
2.660894
2.63033
2.38976
1.999749
1.481858
1.249538
1.249538
1.248038
1.248413
1.248788
1.248413
1.248226
1.250476
1.324915
1.705177
2.019062
2.019062
2.391635
2.620205
2.650393
2.54539
2.28907
1.995248
1.685489
1.349479
1.262289
1.262289
1.274476
1.376667
1.546922
1.845806
2.224943
2.542578
2.660706
2.660144
2.660144
2.660144
2.659956
2.659956
2.660144
2.660706
2.600704
2.160628
1.6403
1.321728
1.321728
1.251601
1.250101
1.255538
1.345353
1.694114
2.010436
2.38451
2.629205
2.660894
2.660894
2.660706
2.661081
2.660894
2.54089
2.234881
1.788055
1.329416
1.249351
1.248038
1.248038
1.247851
1.248226
1.258351
1.511109
1.850681
2.240506
2.545765
2.642706
2.661081
2.661081
2.661081
2.651143
2.498139
2.173379
1.740803
1.306727
1.248601
1.247851
1.247851
1.248038
1.248038
1.253288
1.458232
1.797805
2.197005
2.505076
2.638768
2.661081
2.661081
2.660894
2.652831
2.500952
2.176191
1.746616
1.311603
1.248601
1.247851
1.248038
1.248038
1.248038
1.251038
1.433669
1.766491
2.164379
2.483888
2.636518
2.660894
2.660894
2.660894
2.646643
2.506951
2.176566
1.755991
1.316665
1.248413
1.248038
1.248226
1.248038
1.248038
1.250288
1.413043
1.746428
2.141128
2.472075
2.636143
2.661081
2.661081
2.656956
2.656956
2.515389
2.185942
1.772304
1.328478
1.248788
1.248038
1.248038
1.248038
1.248038
1.250288
1.400105
1.729365
2.128002
2.457263
2.632393
2.661081
2.661081
2.658643
2.658643
2.526077
2.203755
1.80193
1.341978
1.248601
1.248038
1.248226
1.248038
1.249538
1.249538
1.37648
1.704427
2.101189
2.436074
2.624518
2.661081
2.660894
2.655269
2.53264
2.53264
2.203567
1.80418
1.347041
1.248601
1.248038
1.248038
1.247851
1.248788
1.350979
1.350979
1.657926
2.050188
2.39126
2.588329
2.661081
2.661081
2.64008
2.524765
2.524765
2.181442
1.79068
1.338228
1.248601
1.248038
1.248226
1.248038
1.248413
1.31704
1.31704
1.604299
1.989623
2.332759
2.55214
2.636143
2.661269
2.616455
2.470575
2.127627
2.127627
1.740803
1.314415
1.248226
1.248038
1.248226
1.248226
1.248038
1.274101
1.501171
1.501171
1.88537
2.240318
2.472263
2.601267
2.594892
2.582141
2.417886
2.079251
1.70649
1.70649
1.299602
1.248038
1.248226
1.248413
1.248226
1.248038
1.262289
1.458607
1.843744
1.843744
2.198692
2.432137
2.591329
2.615705
2.577641
2.407948
2.057875
1.692989
1.692989
1.294165
1.248226
1.248226
1.248413
1.248226
1.247851
1.258351
1.432356
1.81393
1.81393
2.185379
2.432512
2.591892
2.601642
2.589829
2.449575
2.122002
1.773617
1.337478
1.337478
1.248413
1.248226
1.248226
1.248038
1.248038
1.276726
1.522171
1.914621
2.289257
2.289257
2.54014
2.641393
2.661081
2.643643
2.575954
2.264132
1.915934
1.434231
1.250288
1.250288
1.248038
1.248038
1.247851
1.248788
1.311978
1.608987
1.999186
2.380198
2.380198
2.605767
2.660894
2.660706
2.660894
2.62733
2.367447
2.014187
1.529297
1.256851
1.256851
1.248038
1.247851
1.247851
1.249163
1.330728
1.650988
2.030124
2.404761
2.623768
2.623768
2.660894
2.660894
2.661081
2.632955
2.409636
2.072313
1.583861
1.263601
1.248226
1.248226
1.248038
1.247851
1.249351
1.331853
1.665988
2.037812
2.409448
2.62583
2.660706
2.660706
2.660706
2.661081
2.640455
2.424636
2.088439
1.606924
1.266414
1.248226
1.248226
1.248038
1.247851
1.249163
1.318165
1.637487
1.998811
2.376447
2.607455
2.661081
2.661081
2.660894
2.660894
2.638956
2.419386
2.084126
1.603362
1.263789
1.248038
1.248038
1.248038
1.248038
1.248413
1.291727
1.595674
1.96131
2.349822
2.593204
2.661081
2.660894
2.660894
2.661081
2.64308
2.433449
2.092752
1.62155
1.267164
1.248226
1.247851
1.247851
1.247851
1.248226
1.279727
1.576173
1.936184
2.325634
2.582141
2.661081
2.660706
2.660706
2.660706
2.646456
2.438887
2.113752
1.6463
1.272976
1.248038
1.247851
1.248038
1.248038
1.248413
1.273351
1.55911
1.919684
2.306133
2.569203
2.661081
2.660894
2.660894
2.660894
2.639706
2.449762
2.125752
1.658113
1.277664
1.248413
1.248038
1.248038
1.248226
1.248226
1.269226
1.555735
1.903746
2.294508
2.564516
2.661081
2.660894
2.660894
2.655269
2.655269
2.468888
2.145815
1.683239
1.284414
1.248226
1.248038
1.247851
1.248601
1.263414
1.263414
1.538297
1.890995
2.284007
2.560953
2.661081
2.660894
2.661081
2.657894
2.657894
2.479576
2.162128
1.711552
1.29529
1.248413
1.247851
1.247851
1.248226
1.261913
1.261913
1.524984
1.868682
2.266757
2.55289
2.661269
2.660894
2.661081
2.659956
2.493826
2.493826
2.177129
1.72899
1.304852
1.248788
1.247851
1.248226
1.257788
1.515421
1.863807
2.262444
2.262444
2.559453
2.660144
2.660894
2.660894
2.661081
2.509764
2.202817
1.761804
1.320228
1.320228
1.248976
1.248038
1.248038
1.248038
1.257601
1.506608
1.846931
2.250256
2.55214
2.55214
2.654894
2.660894
2.660894
2.661081
2.521952
2.217255
1.785617
1.332603
1.332603
1.249163
1.247851
1.248038
1.248038
1.254413
1.48842
1.830243
2.223818
2.537327
2.537327
2.653206
2.661081
2.660894
2.661081
2.536202
2.232256
1.808118
1.344979
1.249163
1.249163
1.248038
1.247851
1.248038
1.253851
1.476045
1.820493
2.21913
2.538265
2.645143
2.645143
2.660894
2.660706
2.661081
2.554953
2.232818
1.81693
1.351729
1.249163
1.247851
1.247851
1.247851
1.248038
1.251038
1.428231
1.763116
2.160066
2.477138
2.630143
2.661081
2.661081
2.660894
2.644018
2.520827
2.205255
1.793492
1.338978
1.248976
1.248038
1.248038
1.247851
1.247851
1.250851
1.414356
1.749053
2.156878
2.495701
2.626205
2.661081
2.661081
2.660894
2.661269
2.571078
2.257194
1.850869
1.374042
1.249538
1.247851
1.247851
1.247851
1.247851
1.250851
1.413606
1.755991
2.163066
2.503389
2.632768
2.660894
2.660706
2.660706
2.660894
2.574454
2.275194
1.87787
1.398418
1.250476
1.247851
1.247851
1.248038
1.248038
1.250101
1.394668
1.730303
2.129315
2.480513
2.632955
2.660894
2.660894
2.660894
2.660894
2.593767
2.285882
1.901495
1.410418
1.250476
1.247851
1.248038
1.247851
1.247851
1.250288
1.393355
1.72074
2.10869
2.459888
2.638206
2.660894
2.660894
2.661081
2.661081
2.580266
2.296757
1.921559
1.426356
1.251226
1.248226
1.247851
1.248038
1.249913
1.249913
1.373667
1.704427
2.098564
2.453512
2.620205
2.660894
2.661081
2.661081
2.594517
2.594517
2.313446
1.949122
1.461982
1.252913
1.247851
1.248038
1.248226
1.250101
1.250101
1.373854
1.698614
2.099876
2.470575
2.635955
2.661081
2.660894
2.660144
2.54614
2.54614
2.182004
1.763304
1.307852
1.248038
1.248226
1.248601
1.248788
1.248413
1.248226
1.248226
1.266976
1.532297
2.064626
2.518014
2.661269
2.661081
2.605205
2.497951
2.217255
2.217255
2.013811
1.672926
1.495171
1.418293
1.375729
1.398043
1.586861
1.89887
2.241818
2.241818
2.567516
2.660706
2.660331
2.659956
2.660331
2.660144
2.660519
2.631643
2.348322
2.348322
1.829681
1.387542
1.256288
1.248601
1.248413
1.254038
1.399168
1.735553
1.735553
2.098939
2.440199
2.596392
2.660894
2.660894
2.660894
2.61083
2.354884
1.993373
1.993373
1.486358
1.253663
1.248038
1.248038
1.248038
1.248413
1.291727
1.566235
1.942747
1.942747
2.326759
2.560391
2.638206
2.661081
2.661081
2.582891
2.29207
1.953997
1.456544
1.456544
1.250663
1.248038
1.248226
1.247851
1.248226
1.270914
1.500233
1.893808
2.273694
2.273694
2.527015
2.63033
2.661269
2.627517
2.577641
2.274257
1.937497
1.46667
1.46667
1.250851
1.248038
1.248038
1.248038
1.248226
1.268101
1.482795
1.854807
2.233193
2.233193
2.499451
2.630518
2.661269
2.657706
2.568453
2.275382
1.944434
1.468357
1.251601
1.251601
1.248226
1.248226
1.248038
1.248038
1.259663
1.475108
1.839056
2.221568
2.484263
2.484263
2.627705
2.661269
2.641393
2.579516
2.28682
1.937872
1.467982
1.251226
1.248226
1.248226
1.248038
1.248038
1.248038
1.254976
1.441544
1.802305
2.196442
2.463263
2.587579
2.587579
2.626393
2.646268
2.565453
2.291132
1.949685
1.473045
1.250663
1.248038
1.248038
1.248038
1.248226
1.248038
1.252726
1.389792
1.754116
2.145628
2.440387
2.584954
2.584954
2.644581
2.597704
2.545578
2.266382
1.945184
1.474358
1.250851
1.248038
1.248226
1.248226
1.248413
1.248038
1.250288
1.360729
1.700302
2.080939
2.371385
2.566578
2.586454
2.586454
2.592454
2.511452
2.223255
1.898495
1.450919
1.250663
1.248226
1.248226
1.248601
1.248601
1.248038
1.248601
1.323415
1.621924
2.012874
2.285882
2.475263
2.571078
2.571078
2.585704
2.438887
2.177691
1.828931
1.386042
1.248788
1.248226
1.248413
1.248601
1.248601
1.248226
1.248226
1.270164
1.530047
1.928121
2.213318
2.404573
2.491014
2.502639
2.502639
2.386385
2.131752
1.791617
1.373292
1.248601
1.248226
1.248601
1.248413
1.248413
1.248413
1.248038
1.259851
1.473232
1.870745
2.187067
2.374573
2.481076
2.491388
2.36801
2.36801
2.132128
1.811118
1.39373
1.248976
1.248413
1.248601
1.248601
1.248413
1.248413
1.248038
1.262101
1.492733
1.88837
2.21238
2.421824
2.55289
2.563016
2.461763
2.461763
2.215005
1.89737
1.47942
1.251601
1.248038
1.248413
1.248413
1.248226
1.248413
1.248413
1.313478
1.610674
2.014187
2.324696
2.53564
2.603329
2.641393
2.571453
2.36951
2.36951
2.034812
1.601674
1.266601
1.248226
1.248226
1.248038
1.248226
1.248976
1.362604
1.362604
1.697677
2.112439
2.426136
2.592267
2.659019
2.661081
2.62283
2.477888
2.477888
2.143565
1.721303
1.293227
1.248226
1.248038
1.248038
1.248038
1.249913
1.38698
1.38698
1.72074
2.130815
2.463263
2.617767
2.661081
2.660894
2.639893
2.508827
2.176566
2.176566
1.768179
1.320415
1.248601
1.248038
1.248038
1.248038
1.250851
1.387917
1.715677
1.715677
2.098752
2.434012
2.60858
2.661081
2.660894
2.638018
2.487263
2.166441
1.769866
1.769866
1.329416
1.248976
1.248038
1.248038
1.248038
1.249163
1.366729
1.685676
2.078314
2.078314
2.412449
2.596017
2.661081
2.661269
2.638956
2.515389
2.167941
1.752803
1.752803
1.32304
1.248601
1.248038
1.248038
1.248038
1.248788
1.345729
1.661301
2.070813
2.070813
2.402136
2.586266
2.659769
2.661081
2.626768
2.542015
2.183879
1.788242
1.324915
1.324915
1.248413
1.248038
1.248226
1.248038
1.248788
1.326791
1.6223
2.029562
2.38226
2.38226
2.593579
2.661081
2.661081
2.618142
2.520264
2.187067
1.815055
1.345541
1.248601
1.248601
1.247851
1.248413
1.248038
1.249538
1.32979
1.625675
2.009874
2.36276
2.36276
2.574641
2.658831
2.661269
2.635955
2.512202
2.183879
1.811305
1.354166
1.248976
1.248976
1.248038
1.248038
1.248038
1.248413
1.319665
1.612362
2.001061
2.354697
2.564703
2.564703
2.656769
2.661269
2.638393
2.547265
2.205067
1.817493
1.368979
1.249163
1.248038
1.248038
1.248038
1.248038
1.248413
1.312728
1.608612
2.013436
2.362947
2.576516
2.651518
2.651518
2.661269
2.649456
2.584016
2.245756
1.878995
1.38698
1.249351
1.247851
1.248038
1.248038
1.248038
1.248413
1.305227
1.585923
1.983811
2.356197
2.584391
2.657706
2.657706
2.661081
2.651518
2.575766
2.260944
1.915746
1.418856
1.250288
1.248038
1.248038
1.248038
1.247851
1.249163
1.309915
1.603736
1.978373
2.347759
2.565641
2.661081
2.661081
2.661081
2.657894
2.565078
2.277632
1.931684
1.449607
1.252163
1.247851
1.248038
1.248038
1.248038
1.248413
1.302602
1.607299
1.96956
2.340071
2.568266
2.661081
2.661081
2.661081
2.661081
2.588704
2.29132
1.923059
1.449232
1.251038
1.247663
1.248038
1.248038
1.248038
1.248413
1.539235
1.932809
2.305195
2.553078
2.624518
2.661269
2.659581
2.582516
2.275382
2.275382
1.930184
1.434231
1.249913
1.247851
1.248038
1.248226
1.248038
1.274476
1.515609
1.515609
1.906558
2.29582
2.568828
2.654894
2.661081
2.661081
2.594329
2.323008
2.000311
2.000311
1.502108
1.253663
1.248038
1.247851
1.248038
1.249163
1.284227
1.556298
1.556298
1.922309
2.303508
2.562078
2.661269
2.661081
2.661081
2.593204
2.335384
2.010062
2.010062
1.537359
1.262101
1.248226
1.248226
1.248038
1.248226
1.280477
1.566048
1.924746
1.924746
2.309883
2.559266
2.660144
2.661081
2.661081
2.624518
2.37176
2.014374
1.546735
1.546735
1.257226
1.248038
1.247851
1.247851
1.248601
1.271664
1.54336
1.920434
2.304445
2.304445
2.568078
2.654144
2.661081
2.661081
2.62883
2.399886
2.055438
1.57186
1.57186
1.256476
1.247851
1.248038
1.248038
1.248038
1.269039
1.517296
1.890995
2.279882
2.279882
2.551203
2.659019
2.661081
2.661081
2.63258
2.406823
2.088064
1.615924
1.265289
1.265289
1.248413
1.248038
1.247851
1.249351
1.271476
1.549547
1.889683
2.275382
2.560391
2.560391
2.657331
2.660706
2.660894
2.62583
2.419199
2.071563
1.581423
1.258538
1.248038
1.248038
1.248226
1.248601
1.248226
1.248038
1.256476
1.369354
1.733678
1.968435
1.968435
2.119002
2.250256
2.402136
2.493826
2.330884
1.965247
1.459545
1.251226
1.248038
1.248038
1.248038
1.248038
1.301665
1.654176
2.118627
2.482201
2.661081
2.660331
2.660144
2.660144
2.660144
2.660144
2.660331
2.660706
2.592642
2.143565
1.592299
1.300165
1.251038
1.251038
1.251788
1.257976
1.368417
1.704802
2.036125
2.397636
2.612517
2.661081
2.660894
2.660894
2.660706
2.651518
2.489138
2.176941
1.720178
1.292664
1.248601
1.248038
1.248038
1.248038
1.248226
1.255163
1.466295
1.800805
2.190442
2.494201
2.633705
2.661081
2.661081
2.660894
2.618517
2.422011
2.101377
1.662426
1.281602
1.248038
1.247851
1.248038
1.248038
1.247851
1.250476
1.417731
1.748491
2.147503
2.446387
2.616267
2.661081
2.661269
2.661269
2.618892
2.431762
2.083189
1.6403
1.274851
1.248226
1.248038
1.248038
1.248038
1.248038
1.249538
1.383042
1.72374
2.131002
2.430449
2.586266
2.653581
2.661081
2.614767
2.614767
2.451825
2.093876
1.666176
1.273351
1.248038
1.248038
1.248226
1.248038
1.248038
1.249538
1.356604
1.694302
2.096876
2.432512
2.602392
2.661269
2.656206
2.610267
2.610267
2.447137
2.114502
1.694114
1.286289
1.248413
1.248038
1.248038
1.248038
1.249351
1.249351
1.358854
1.675739
2.060875
2.393886
2.580079
2.659206
2.661269
2.602204
2.426887
2.426887
2.101752
1.692802
1.292477
1.248038
1.248226
1.248038
1.248038
1.248601
1.352479
1.352479
1.658863
2.053
2.375135
2.570516
2.658831
2.661081
2.614767
2.457638
2.457638
2.104752
1.682114
1.291914
1.248226
1.248038
1.248226
1.248038
1.248601
1.316665
1.316665
1.615174
2.033687
2.353572
2.560016
2.611392
2.657519
2.599954
2.453887
2.098939
2.098939
1.695614
1.282352
1.248038
1.248226
1.248038
1.248038
1.248038
1.288727
1.556298
1.556298
1.957747
2.306508
2.516889
2.603517
2.581954
2.566391
2.392198
2.053563
1.665988
1.665988
1.276164
1.248038
1.248413
1.248413
1.248226
1.248413
1.267914
1.483733
1.483733
1.859307
2.209192
2.433262
2.570328
2.612517
2.541078
2.322821
1.987936
1.609362
1.609362
1.265476
1.248038
1.248038
1.248413
1.248226
1.247851
1.264351
1.438356
1.823868
1.823868
2.170191
2.390136
2.54164
2.581766
2.511452
2.329759
1.976873
1.586861
1.264164
1.264164
1.248038
1.248413
1.248413
1.248413
1.248038
1.255913
1.420918
1.826118
2.166441
2.166441
2.399323
2.55139
2.598454
2.550828
2.394823
2.050937
1.692427
1.286289
1.247851
1.247851
1.248226
1.248226
1.248226
1.248038
1.271476
1.488983
1.899808
2.273507
2.273507
2.523452
2.620768
2.632955
2.602767
2.515389
2.185754
1.837181
1.366917
1.249351
1.249351
1.248226
1.248038
1.248038
1.249538
1.325853
1.630737
2.012499
2.385823
2.599579
2.599579
2.661081
2.660894
2.660894
2.572204
2.297132
1.944434
1.460857
1.251976
1.247851
1.247851
1.248038
1.248038
1.249351
1.348541
1.669738
2.053375
2.418074
2.61833
2.661081
2.661081
2.660894
2.660894
2.628268
2.343634
1.978935
1.487295
1.253663
1.247851
1.247851
1.248038
1.247851
1.249351
1.339728
1.662988
2.043062
2.402886
2.611017
2.661081
2.661081
2.661081
2.661269
2.623393
2.348134
1.996373
1.502483
1.253663
1.248226
1.247851
1.247851
1.247851
1.248976
1.323228
1.631862
2.015874
2.389573
2.601079
2.661081
2.660894
2.660894
2.661081
2.618892
2.343259
1.985686
1.497983
1.253476
1.248038
1.247851
1.247851
1.247851
1.248601
1.309915
1.612362
1.986811
2.359385
2.572391
2.661269
2.660894
2.660894
2.661081
2.593579
2.340634
2.001624
1.512984
1.254226
1.248226
1.248038
1.247851
1.247851
1.248413
1.292664
1.581986
1.95681
2.331259
2.571453
2.661081
2.661081
2.661081
2.661081
2.590767
2.317758
1.95231
1.489733
1.252726
1.248413
1.248038
1.247851
1.248413
1.248413
1.278414
1.557423
1.946122
2.315883
2.567703
2.630518
2.661081
2.660894
2.614205
2.614205
2.368947
2.016249
1.519171
1.252913
1.248038
1.248038
1.248038
1.248226
1.248226
1.274476
1.523484
1.912371
2.310071
2.572766
2.655831
2.660894
2.661081
2.61983
2.61983
2.37251
2.056188
1.560798
1.258726
1.248038
1.247851
1.248226
1.249163
1.276164
1.276164
1.548985
1.903746
2.28457
2.550828
2.656956
2.661081
2.661081
2.597329
2.383385
2.383385
2.064813
1.589861
1.265101
1.247851
1.247851
1.248038
1.248226
1.273726
1.553672
1.553672
1.915746
2.30107
2.559078
2.660894
2.660894
2.661081
2.632393
2.415261
2.077939
2.077939
1.612549
1.266414
1.248038
1.248038
1.247851
1.248226
1.266976
1.53811
1.53811
1.896245
2.285695
2.558141
2.653394
2.661081
2.661081
2.62883
2.429324
2.102877
2.102877
1.634487
1.269414
1.248226
1.248038
1.248038
1.248038
1.266414
1.530422
1.882183
1.882183
2.276507
2.559453
2.652831
2.661081
2.661081
2.633705
2.437012
2.106252
1.646488
1.646488
1.274664
1.248226
1.248038
1.247851
1.248038
1.259101
1.514109
1.869619
2.263381
2.263381
2.553078
2.653018
2.661081
2.661081
2.62883
2.445075
2.122377
1.666551
1.277476
1.277476
1.248226
1.247851
1.248038
1.247851
1.257976
1.498733
1.846744
2.246319
2.246319
2.53339
2.642893
2.661081
2.661081
2.635955
2.436074
2.103627
1.652488
1.272789
1.272789
1.248226
1.248038
1.248038
1.248038
1.252913
1.451669
1.792367
2.183879
2.480513
2.480513
2.624518
2.661269
2.660894
2.632393
2.437574
2.107002
1.663738
1.277289
1.248226
1.248226
1.248038
1.248226
1.247851
1.253288
1.457857
1.803055
2.206755
2.514827
2.640268
2.640268
2.661081
2.660894
2.642331
2.483513
2.157629
1.711365
1.29454
1.248601
1.248601
1.248038
1.248038
1.247851
1.252913
1.455232
1.802118
2.192879
2.502826
2.660894
2.661081
2.661081
2.641206
2.485576
2.171129
1.734991
1.307102
1.248413
1.248038
1.248038
1.248038
1.248038
1.252538
1.454294
1.79743
2.195879
2.511639
2.63558
2.660894
2.660894
2.658268
2.658268
2.503764
2.185942
1.762179
1.31929
1.248601
1.247851
1.247851
1.247851
1.251413
1.251413
1.439669
1.783929
2.179941
2.498889
2.629955
2.661081
2.660894
2.656206
2.656206
2.515014
2.205817
1.779804
1.327165
1.248788
1.248038
1.248226
1.248038
1.251226
1.251226
1.423543
1.767804
2.168879
2.493451
2.63783
2.661081
2.660894
2.661269
2.544265
2.544265
2.229443
1.796492
1.334103
1.248976
1.248038
1.247851
1.248038
1.251226
1.415856
1.415856
1.716052
2.078126
2.340071
2.506951
2.572954
2.550265
2.382635
2.102314
1.71474
1.71474
1.321353
1.248038
1.248788
1.248976
1.249163
1.248788
1.248038
1.281039
1.531922
1.531922
1.860244
2.223068
2.492701
2.661269
2.660894
2.660706
2.660706
2.649831
2.649831
2.454075
1.95531
1.571673
1.346291
1.292289
1.320603
1.527234
1.904308
2.222505
2.222505
2.570516
2.660894
2.660519
2.660519
2.660331
2.660519
2.651893
2.471888
2.022999
2.022999
1.490296
1.254413
1.248226
1.247851
1.248038
1.251226
1.40123
1.727303
2.122752
2.122752
2.462325
2.632768
2.661081
2.660894
2.661081
2.559266
2.234693
1.844681
1.364667
1.364667
1.248976
1.247851
1.248226
1.248038
1.248788
1.335978
1.6403
2.029187
2.029187
2.37776
2.582704
2.661081
2.661081
2.632768
2.53039
2.196067
1.81693
1.355479
1.355479
1.248788
1.248038
1.248226
1.247851
1.248601
1.31929
1.606362
2.001998
2.351697
2.351697
2.569578
2.659769
2.661081
2.635018
2.532827
2.191942
1.819368
1.357916
1.248788
1.248788
1.248226
1.248226
1.248038
1.248413
1.309727
1.586486
1.977623
2.332196
2.556266
2.556266
2.647206
2.661269
2.629393
2.523077
2.190817
1.821806
1.360167
1.248788
1.248226
1.248226
1.248226
1.248038
1.248226
1.30129
1.571673
1.955685
2.315696
2.54689
2.54689
2.650393
2.661456
2.631268
2.542015
2.202817
1.840369
1.366917
1.248788
1.248226
1.248226
1.248038
1.248038
1.248226
1.290414
1.549735
1.934122
2.296757
2.535452
2.641768
2.641768
2.661269
2.628455
2.54014
2.208817
1.850119
1.377792
1.248976
1.248038
1.248038
1.248038
1.248038
1.248038
1.285164
1.535297
1.917058
2.282882
2.521952
2.642331
2.659956
2.659956
2.628643
2.531327
2.20038
1.846369
1.376104
1.248788
1.248038
1.248226
1.248226
1.248226
1.248038
1.270164
1.496858
1.880307
2.247819
2.485576
2.597704
2.643268
2.643268
2.611767
2.502451
2.168691
1.818056
1.358479
1.248413
1.248038
1.248413
1.248226
1.248226
1.248038
1.257226
1.425981
1.794617
2.166441
2.415824
2.579329
2.599392
2.578579
2.578579
2.4417
2.115627
1.769304
1.331103
1.248226
1.248226
1.248226
1.248413
1.248038
1.248038
1.251413
1.362417
1.722053
2.098752
2.355822
2.528515
2.581766
2.554203
2.554203
2.403448
2.083376
1.740241
1.319853
1.248226
1.248226
1.248601
1.248226
1.247851
1.247851
1.250101
1.342166
1.699364
2.075501
2.332571
2.514077
2.573891
2.545953
2.407386
2.407386
2.101752
1.756929
1.334666
1.248226
1.248226
1.248413
1.248038
1.248038
1.250476
1.250476
1.357166
1.72449
2.111502
2.38601
2.569766
2.601642
2.600329
2.497389
2.197755
2.197755
1.865869
1.40948
1.249538
1.248038
1.248226
1.248038
1.248038
1.257038
1.450732
1.450732
1.818993
2.209192
2.484451
2.62133
2.661269
2.659581
2.585141
2.311571
2.311571
1.981748
1.511859
1.254038
1.248038
1.247851
1.248038
1.248038
1.268101
1.520859
1.520859
1.885745
2.276507
2.541078
2.649643
2.660894
2.661081
2.609517
2.38301
2.050375
2.050375
1.577861
1.261539
1.248038
1.248038
1.248038
1.248038
1.269976
1.540172
1.902996
1.902996
2.286445
2.556641
2.656018
2.661081
2.661081
2.628643
2.401948
2.068563
1.603174
1.603174
1.263789
1.248226
1.247851
1.248038
1.248226
1.265101
1.524796
1.88312
1.88312
2.269944
2.548203
2.647581
2.661081
2.661081
2.62583
2.410386
2.083376
1.612737
1.612737
1.262476
1.248226
1.247851
1.247851
1.247851
1.260226
1.498921
1.860619
2.253069
2.253069
2.53789
2.649831
2.661081
2.661081
2.628643
2.416386
2.082814
1.621737
1.266226
1.266226
1.248226
1.248038
1.248038
1.248038
1.256663
1.483733
1.834556
2.223068
2.516702
2.516702
2.632018
2.661081
2.661269
2.620955
2.416574
2.084126
1.628862
1.266601
1.266601
1.247851
1.248038
1.248038
1.248226
1.255726
1.469857
1.81618
2.211255
2.511639
2.511639
2.629768
2.661081
2.661081
2.62883
2.433449
2.098377
1.649863
1.272226
1.248226
1.248226
1.248038
1.248038
1.248226
1.254601
1.47267
1.822743
2.223443
2.52664
2.644018
2.644018
2.660894
2.660894
2.639706
2.4672
2.14319
1.693364
1.284789
1.248226
1.248038
1.248038
1.248038
1.248226
1.254413
1.470607
1.822181
2.222505
2.530765
2.644956
2.661081
2.661081
2.661081
2.642893
2.485951
2.158566
1.720365
1.298477
1.248413
1.248038
1.248038
1.248038
1.247851
1.253663
1.462732
1.810743
2.21013
2.519327
2.635393
2.661081
2.661081
2.660894
2.643643
2.484451
2.171691
1.73274
1.30879
1.248413
1.248038
1.248038
1.248038
1.247851
1.252538
1.456544
1.80343
2.195692
2.508264
2.63258
2.661081
2.660894
2.660894
2.652643
2.503201
2.174879
1.749616
1.315353
1.248601
1.247663
1.247851
1.248038
1.248038
1.251413
1.439106
1.78918
2.191942
2.509764
2.633518
2.661081
2.661081
2.661081
2.654144
2.507514
2.188567
1.768929
1.321728
1.248601
1.247851
1.247851
1.248038
1.248038
1.251601
1.433294
1.771179
2.169629
2.489513
2.63183
2.660894
2.660894
2.654519
2.654519
2.513139
2.189879
1.782992
1.332416
1.248788
1.248038
1.247851
1.248038
1.250851
1.250851
1.417918
1.750741
2.14694
2.474325
2.631268
2.661269
2.661081
2.645331
2.520264
2.520264
2.202067
1.788242
1.334666
1.248601
1.248038
1.248038
1.248038
1.249913
1.385105
1.385105
1.707052
2.105314
2.435699
2.615142
2.661081
2.661081
2.642331
2.514077
2.514077
2.175066
1.765929
1.323415
1.248601
1.248038
1.248038
1.248038
1.249163
1.367854
1.367854
1.686802
2.090689
2.427824
2.611955
2.661081
2.661081
2.655831
2.534515
2.21538
2.21538
1.81918
1.356604
1.248976
1.248038
1.248038
1.248038
1.249726
1.374042
1.698614
1.698614
2.105502
2.444512
2.615892
2.661269
2.661081
2.661269
2.543328
2.22588
1.834369
1.834369
1.371604
1.249163
1.247851
1.248038
1.248038
1.249538
1.368417
1.690364
1.690364
2.081876
2.433262
2.619642
2.661269
2.660894
2.656769
2.55364
2.245944
1.862682
1.862682
1.384355
1.249726
1.248038
1.248038
1.248038
1.249351
1.362229
1.683426
2.083564
2.083564
2.433262
2.629393
2.661081
2.661081
2.661081
2.567141
2.248756
1.872245
1.393167
1.393167
1.249913
1.248038
1.248038
1.248038
1.249163
1.351166
1.663926
2.054688
2.405136
2.405136
2.600704
2.661081
2.661081
2.569016
2.261882
1.887245
1.396543
1.249726
1.248038
1.248038
1.248038
1.248038
1.249726
1.366729
1.692052
2.071001
2.413386
2.611392
2.660894
2.660894
2.661081
2.661081
2.605392
2.296757
1.906746
1.395793
1.249163
1.248038
1.248226
1.248226
1.248226
1.248038
1.249163
1.275601
1.509609
1.815805
2.026187
2.111127
2.13869
2.13869
2.114315
2.076438
1.949309
1.675739
1.287977
1.247663
1.248226
1.248226
1.248226
1.248038
1.258913
1.659051
2.176754
2.569578
2.660894
2.660331
2.660144
2.660144
2.660144
2.659956
2.660519
2.658268
2.444137
1.922121
1.484108
1.267726
1.250663
1.251601
1.251601
1.288164
1.54636
1.875807
2.21238
2.53714
2.654144
2.660894
2.660894
2.661081
2.661081
2.620018
2.337446
1.97031
1.466482
1.251413
1.248226
1.247851
1.247851
1.248601
1.248601
1.304852
1.594549
1.975373
2.332571
2.567516
2.661081
2.661081
2.659019
2.659019
2.572954
2.255694
1.902433
1.416793
1.249726
1.248226
1.248038
1.248038
1.248038
1.248038
1.273726
1.518984
1.886683
2.254756
2.509202
2.612142
2.659581
2.636331
2.523452
2.523452
2.19888
1.873932
1.411356
1.250288
1.248038
1.248413
1.248226
1.248038
1.268476
1.268476
1.501733
1.87112
2.241256
2.4672
2.630705
2.659019
2.633143
2.54089
2.229443
2.229443
1.815618
1.389605
1.249163
1.248226
1.248226
1.248226
1.248226
1.257226
1.448669
1.448669
1.844119
2.218755
2.483138
2.594704
2.594704
2.622267
2.541265
2.242193
2.242193
1.911808
1.424668
1.249913
1.248038
1.248226
1.248226
1.248038
1.265101
1.451482
1.451482
1.792555
2.161753
2.44995
2.602767
2.655081
2.621518
2.528515
2.185942
1.88312
1.88312
1.421293
1.250851
1.248038
1.248226
1.248413
1.248038
1.254788
1.440231
1.809055
1.809055
2.191567
2.450512
2.572391
2.620018
2.627143
2.54839
2.260194
1.905996
1.38323
1.38323
1.248788
1.248226
1.248226
1.248413
1.248226
1.252726
1.369917
1.758054
1.758054
2.153691
2.4417
2.583454
2.605392
2.583079
2.495514
2.220255
1.902058
1.433294
1.433294
1.250851
1.247851
1.248226
1.248226
1.248226
1.250851
1.383605
1.71849
2.079438
2.079438
2.352072
2.55139
2.599017
2.579516
2.495889
2.169441
1.785242
1.368229
1.248601
1.248601
1.248038
1.248413
1.248226
1.248226
1.248788
1.309352
1.649863
2.030312
2.30932
2.30932
2.474513
2.520264
2.534515
2.415261
2.144128
1.812243
1.359604
1.248413
1.248413
1.248226
1.248413
1.248413
1.248226
1.248226
1.275039
1.533984
1.949122
2.242381
2.242381
2.4537
2.548578
2.528327
2.35901
2.079626
1.777179
1.359792
1.248976
1.248413
1.248413
1.248601
1.248601
1.248226
1.248226
1.284414
1.592299
1.963185
2.241443
2.427074
2.427074
2.546515
2.574829
2.4507
2.197567
1.836056
1.357729
1.248601
1.248038
1.248413
1.248413
1.248226
1.248226
1.248413
1.311415
1.651925
2.068563
2.367635
2.577454
2.578579
2.578579
2.582516
2.54464
2.30407
1.996561
1.555547
1.254226
1.248226
1.248413
1.248413
1.248038
1.248038
1.251788
1.410231
1.753179
2.143565
2.454638
2.626205
2.661081
2.661081
2.661081
2.630518
2.410011
2.082626
1.644238
1.273726
1.248413
1.248038
1.247851
1.247851
1.248038
1.254038
1.472857
1.828368
2.227943
2.523827
2.629768
2.661081
2.660894
2.660894
2.641018
2.472826
2.146753
1.687364
1.290039
1.248413
1.248038
1.248038
1.248226
1.248226
1.254601
1.478483
1.827243
2.228131
2.530202
2.628643
2.661081
2.661081
2.661081
2.650581
2.481263
2.158753
1.710615
1.293789
1.248413
1.248226
1.248038
1.248038
1.248038
1.252913
1.463857
1.806993
2.201505
2.511452
2.635018
2.661269
2.661081
2.64308
2.64308
2.488014
2.165879
1.729178
1.29904
1.248226
1.248038
1.248038
1.248038
1.252538
1.252538
1.449419
1.79218
2.185942
2.497951
2.636893
2.661081
2.661081
2.642518
2.490826
2.490826
2.162316
1.731803
1.304665
1.248413
1.248038
1.247851
1.247851
1.251226
1.251226
1.428981
1.767054
2.158941
2.476951
2.625268
2.661081
2.661269
2.627517
2.487263
2.487263
2.164941
1.740428
1.308602
1.248413
1.247851
1.248038
1.247851
1.250288
1.413981
1.413981
1.750366
2.149566
2.467763
2.624705
2.661081
2.661081
2.639893
2.496264
2.162691
2.162691
1.746428
1.315915
1.248413
1.248038
1.248038
1.248038
1.250101
1.398043
1.73724
1.73724
2.135878
2.460638
2.614767
2.661269
2.661081
2.650956
2.517639
2.185754
2.185754
1.776242
1.327541
1.248601
1.247851
1.248038
1.248038
1.250288
1.39823
1.727115
1.727115
2.123877
2.457075
2.632205
2.661081
2.661081
2.653394
2.524015
2.195879
1.784492
1.784492
1.336916
1.248976
1.248038
1.247851
1.248038
1.250101
1.39073
1.720552
2.115439
2.115439
2.449575
2.620018
2.661081
2.660894
2.649456
2.523077
2.19888
1.79968
1.346291
1.346291
1.248976
1.247851
1.248038
1.247851
1.249726
1.385105
1.715302
2.112627
2.112627
2.447512
2.63033
2.661081
2.660894
2.661269
2.548015
2.222318
1.819368
1.358854
1.358854
1.249163
1.248226
1.248038
1.247851
1.249538
1.37648
1.700302
2.097626
2.439825
2.439825
2.62133
2.661081
2.660894
2.661269
2.550828
2.235443
1.842806
1.366729
1.249163
1.249163
1.248038
1.248038
1.247851
1.249538
1.371417
1.693364
2.085626
2.434949
2.621143
2.621143
2.661081
2.661081
2.661269
2.560203
2.243131
1.854244
1.377604
1.249538
1.249538
1.247851
1.247851
1.248038
1.249163
1.357541
1.684926
2.075313
2.426887
2.621893
2.621893
2.661081
2.661081
2.661081
2.563203
2.252131
1.88012
1.392792
1.249726
1.248038
1.248038
1.248038
1.247851
1.249351
1.353979
1.665426
2.057125
2.404198
2.602392
2.661081
2.661081
2.661269
2.649456
2.556641
2.226255
1.844119
1.377604
1.249538
1.247851
1.248038
1.248038
1.248226
1.248413
1.318728
1.614799
2.009311
2.362947
2.573516
2.650018
2.661081
2.661081
2.639331
2.563203
2.237318
1.87262
1.393917
1.249726
1.248038
1.248038
1.248038
1.247851
1.248788
1.330916
1.642738
2.036125
2.393698
2.595079
2.661081
2.661081
2.661081
2.659019
2.585704
2.280445
1.919684
1.428794
1.250851
1.248038
1.248038
1.248038
1.248038
1.248788
1.331666
1.637675
2.021124
2.38076
2.591704
2.661081
2.660894
2.661081
2.661081
2.578016
2.290007
1.933371
1.445294
1.251413
1.247851
1.248226
1.248038
1.248601
1.248601
1.32529
1.6283
2.014936
2.378323
2.590767
2.661081
2.661081
2.661269
2.661269
2.589642
2.296008
1.935059
1.449794
1.251601
1.248038
1.248038
1.248038
1.248976
1.248976
1.320415
1.617237
2.004436
2.369885
2.582891
2.661081
2.661081
2.661081
2.599204
2.599204
2.30707
1.956997
1.464982
1.251601
1.247851
1.248038
1.247851
1.248601
1.31104
1.31104
1.602986
1.990373
2.360322
2.579704
2.661269
2.661081
2.660894
2.623018
2.338009
2.338009
1.983061
1.490296
1.253288
1.248038
1.247851
1.247851
1.248788
1.311603
1.585923
1.585923
1.933746
2.243131
2.447512
2.576704
2.589079
2.508264
2.293195
1.883495
1.883495
1.500983
1.248226
1.248788
1.249163
1.248976
1.248038
1.262476
1.440794
1.736115
2.077751
2.077751
2.324134
2.629018
2.660894
2.660706
2.660331
2.660894
2.519139
2.104752
1.660738
1.660738
1.391292
1.285539
1.281039
1.39298
1.686989
2.070063
2.419949
2.628643
2.660706
2.660706
2.660331
2.660519
2.660519
2.661081
2.559266
2.206942
1.671051
1.270164
1.248413
1.248413
1.248038
1.248038
1.248976
1.291539
1.560985
1.937872
2.311758
2.564891
2.653956
2.653956
2.661081
2.653956
2.61008
2.346259
2.009874
1.524609
1.254038
1.248226
1.248226
1.248038
1.248038
1.248038
1.269226
1.510734
1.871682
2.248006
2.512202
2.638206
2.638206
2.661269
2.648331
2.578579
2.296383
1.962435
1.494233
1.252163
1.248038
1.248038
1.248038
1.248038
1.248038
1.259663
1.47417
1.839244
2.214443
2.482013
2.620955
2.657894
2.657894
2.653581
2.575016
2.296757
1.95906
1.498358
1.252726
1.248038
1.248226
1.248038
1.248038
1.248038
1.256288
1.453544
1.815243
2.199255
2.471513
2.597329
2.655643
2.655643
2.647768
2.572579
2.29882
1.960372
1.494983
1.252163
1.247851
1.248226
1.248038
1.248038
1.247851
1.254413
1.438919
1.794805
2.184067
2.46345
2.611767
2.658643
2.62583
2.62583
2.571641
2.303695
1.97706
1.507359
1.252351
1.248226
1.248038
1.248226
1.248038
1.248038
1.252538
1.416418
1.760679
2.136815
2.410949
2.580829
2.621893
2.63333
2.552703
2.552703
2.250631
1.941622
1.493296
1.252726
1.248413
1.248226
1.248226
1.248038
1.251038
1.251038
1.394668
1.751866
2.12219
2.389948
2.570891
2.608205
2.618517
2.582516
2.582516
2.275194
1.914246
1.46067
1.250851
1.248038
1.248226
1.248038
1.248038
1.249351
1.249351
1.344416
1.678364
2.078314
2.369135
2.541828
2.590017
2.61083
2.498139
2.241256
2.241256
1.917246
1.456544
1.249726
1.248038
1.248226
1.248038
1.248226
1.248788
1.290789
1.290789
1.595861
1.990748
2.286445
2.498139
2.552703
2.542015
2.404948
2.155566
1.841494
1.841494
1.416793
1.249351
1.248226
1.248413
1.248226
1.248226
1.248413
1.272976
1.272976
1.518234
1.889683
2.193067
2.401761
2.503014
2.527015
2.378697
2.108127
1.790492
1.790492
1.380042
1.248788
1.248226
1.248601
1.248601
1.248413
1.248038
1.270164
1.524796
1.524796
1.894558
2.193442
2.384135
2.491763
2.51614
2.414699
2.149941
1.81018
1.382292
1.382292
1.249163
1.247851
1.248413
1.248413
1.248226
1.248038
1.277851
1.55311
1.960747
1.960747
2.276132
2.469638
2.569391
2.598267
2.499639
2.27707
1.960935
1.520109
1.520109
1.252726
1.247851
1.248226
1.248038
1.248038
1.248601
1.323978
1.648738
2.065751
2.065751
2.390698
2.573141
2.654331
2.619642
2.586641
2.393511
2.079251
1.672551
1.284602
1.284602
1.248226
1.248226
1.248038
1.248038
1.251976
1.425981
1.751866
2.135878
2.460075
2.460075
2.632018
2.661269
2.661081
2.623018
2.447887
2.125752
1.720178
1.307477
1.249351
1.249351
1.247851
1.247851
1.247851
1.251976
1.449232
1.789742
2.165129
2.475826
2.475826
2.623393
2.661269
2.661269
2.640268
2.490263
2.155378
1.719427
1.310477
1.248601
1.248601
1.248038
1.248038
1.248226
1.250288
1.407793
1.748866
2.151253
2.471325
2.60483
2.60483
2.657519
2.661081
2.635018
2.515764
2.182754
1.753179
1.304102
1.248226
1.248038
1.248038
1.248038
1.248226
1.250101
1.38248
1.708552
2.113564
2.443574
2.600517
2.661269
2.661269
2.661269
2.606704
2.485951
2.159316
1.767429
1.326228
1.248601
1.248038
1.248038
1.248038
1.247851
1.250476
1.390355
1.710615
2.074938
2.405511
2.598454
2.661269
2.661269
2.661081
2.626768
2.465513
2.13194
1.747741
1.32229
1.249163
1.248038
1.248038
1.248038
1.248226
1.249163
1.370479
1.700302
2.086564
2.405511
2.590767
2.661081
2.661269
2.661269
2.621143
2.487263
2.149191
1.723928
1.319103
1.248601
1.248038
1.248038
1.248038
1.248038
1.248976
1.345541
1.669926
2.072126
2.414136
2.578579
2.623205
2.661269
2.627517
2.627517
2.503201
2.177879
1.768554
1.322478
1.248601
1.248038
1.248038
1.248226
1.248226
1.249351
1.342166
1.640675
2.044562
2.386948
2.586079
2.661269
2.661081
2.608955
2.608955
2.509202
2.174129
1.808493
1.350979
1.248976
1.248226
1.248038
1.248038
1.250288
1.250288
1.359979
1.660551
2.030312
2.377385
2.581204
2.661269
2.661269
2.644206
2.506202
2.506202
2.166816
1.802493
1.356604
1.250476
1.248038
1.248038
1.248038
1.248788
1.347979
1.347979
1.685301
2.055438
2.389385
2.575954
2.661269
2.661269
2.631455
2.524952
2.199255
2.199255
1.783929
1.358104
1.248976
1.248038
1.248038
1.247851
1.249351
1.340853
1.340853
1.64705
2.059938
2.415261
2.601642
2.635768
2.660331
2.645143
2.54764
2.230756
2.230756
1.840369
1.364667
1.248413
1.247851
1.248038
1.248226
1.248976
1.319478
1.591924
1.591924
2.006311
2.36876
2.576329
2.661081
2.661081
2.61983
2.556641
2.225693
1.87487
1.87487
1.401418
1.249913
1.248226
1.247851
1.248038
1.250101
1.348166
1.638613
2.008561
2.008561
2.362385
2.579704
2.661081
2.661269
2.648143
2.530015
2.199255
1.857432
1.857432
1.38923
1.252163
1.248226
1.248226
1.248038
1.248226
1.311603
1.609924
1.990373
1.990373
2.335571
2.541265
2.648143
2.661269
2.623768
2.533952
2.202067
1.809993
1.372542
1.372542
1.249351
1.248038
1.248038
1.248038
1.248601
1.307102
1.597174
1.988123
2.365385
2.365385
2.572391
2.650956
2.661081
2.661269
2.577641
2.270694
1.917246
1.437606
1.251038
1.251038
1.248038
1.247851
1.247851
1.249163
1.334666
1.633925
2.012686
2.38526
2.595454
2.595454
2.661081
2.661081
2.660894
2.602392
2.30257
1.954372
1.473232
1.252726
1.252726
1.248038
1.248038
1.248038
1.248976
1.329978
1.644988
2.022624
2.38901
2.602204
2.602204
2.661081
2.661081
2.661081
2.604267
2.318696
1.976498
1.494983
1.254038
1.248038
1.248038
1.248038
1.248038
1.249163
1.333541
1.65305
2.027499
2.393136
2.600704
2.661081
2.661081
2.661081
2.660894
2.62208
2.339884
1.997686
1.515609
1.255538
1.248038
1.248038
1.248038
1.248038
1.249351
1.323228
1.633175
2.010062
2.379822
2.601642
2.660894
2.660894
2.661081
2.661081
2.625268
2.358259
2.019624
1.545235
1.258726
1.248038
1.247851
1.247851
1.247851
1.249351
1.326603
1.64855
2.029562
2.407198
2.629955
2.660894
2.661081
2.661081
2.661081
2.62883
2.356197
1.96131
1.446982
1.249538
1.247851
1.248413
1.248226
1.248226
1.248038
1.248413
1.268851
1.504546
1.885932
2.137565
2.480138
2.648518
2.661081
2.661081
2.602579
2.28007
1.913871
1.479608
1.263789
1.251038
1.264539
1.375917
1.375917
1.631675
1.903371
2.249694
2.551578
2.660706
2.660331
2.660144
2.659956
2.659956
2.659956
2.660144
2.660894
2.489701
1.990936
1.514859
1.276164
1.250101
1.250288
1.266414
1.266414
1.438356
1.785804
2.116002
2.4687
2.642331
2.661081
2.660894
2.660894
2.643831
2.643831
2.424262
2.086564
1.607487
1.265289
1.248226
1.248038
1.248413
1.287039
1.579923
1.579923
1.937309
2.307445
2.560766
2.660144
2.661081
2.661081
2.616455
2.361634
2.024499
2.024499
1.554235
1.258351
1.248038
1.248038
1.247851
1.248226
1.271101
1.537734
1.888558
1.888558
2.269194
2.53714
2.641956
2.660894
2.661081
2.625643
2.375323
2.035187
1.565298
1.565298
1.258538
1.247851
1.248038
1.248038
1.248413
1.267914
1.521796
1.868119
2.260569
2.260569
2.53489
2.645331
2.661081
2.661081
2.617955
2.36801
2.032937
1.570923
1.570923
1.258538
1.248038
1.248038
1.247851
1.248226
1.263414
1.508109
1.860619
2.251569
2.251569
2.529077
2.640643
2.661081
2.661269
2.615892
2.379447
2.04625
1.592111
1.261163
1.261163
1.248038
1.248038
1.247851
1.248226
1.260976
1.508859
1.857057
2.242193
2.526452
2.526452
2.644768
2.661081
2.660894
2.616267
2.388823
2.058063
1.599986
1.263601
1.248038
1.248038
1.248226
1.247851
1.248038
1.258538
1.497046
1.839994
2.227193
2.516327
2.63783
2.63783
2.661269
2.661081
2.614017
2.385635
2.056375
1.600174
1.263414
1.248226
1.248226
1.248038
1.248226
1.248038
1.255726
1.47267
1.818056
2.20413
2.494201
2.627705
2.627705
2.661081
2.661269
2.612705
2.384885
2.053188
1.601299
1.263414
1.248226
1.248038
1.248038
1.248038
1.247851
1.252163
1.431981
1.768366
2.155378
2.441512
2.596204
2.655081
2.655081
2.655831
2.577079
2.335571
1.993561
1.54786
1.255913
1.248226
1.248226
1.248226
1.248226
1.248038
1.249351
1.358479
1.683051
2.070813
2.363135
2.553265
2.599392
2.599392
2.588142
2.52664
2.281007
1.945559
1.507359
1.252913
1.247851
1.248038
1.248413
1.248413
1.248038
1.248601
1.334291
1.64705
2.037437
2.339134
2.537327
2.60858
2.598079
2.598079
2.527952
2.278944
1.949685
1.523109
1.254226
1.247851
1.248226
1.248226
1.248226
1.248226
1.248788
1.346291
1.667676
2.065376
2.37551
2.573704
2.629205
2.655269
2.586454
2.586454
2.375885
2.048125
1.631112
1.274476
1.248226
1.248226
1.248038
1.248038
1.252538
1.252538
1.459357
1.805118
2.207505
2.523077
2.642706
2.661081
2.661081
2.661269
2.661269
2.520264
2.21763
1.80793
1.350416
1.250288
1.248038
1.248038
1.248601
1.270914
1.270914
1.583673
1.920434
2.312696
2.600704
2.661081
2.660706
2.660706
2.661081
2.606142
2.606142
2.326759
1.900183
1.424481
1.253851
1.248226
1.248226
1.249726
1.293602
1.641988
1.641988
1.982686
2.377573
2.635393
2.660894
2.660706
2.660706
2.660706
2.616455
2.37326
2.37326
1.963372
1.475857
1.259101
1.248413
1.248413
1.249913
1.293414
1.64105
1.64105
1.980435
2.375323
2.63558
2.660894
2.660706
2.660519
2.660894
2.631643
2.38601
2.38601
1.97631
1.489545
1.260038
1.248601
1.248226
1.249913
1.288164
1.6238
1.969185
1.969185
2.36276
2.632205
2.660894
2.660706
2.660519
2.660706
2.631455
2.38151
1.977435
1.977435
1.486358
1.258913
1.248226
1.248226
1.249351
1.280102
1.603549
1.938997
2.329571
2.329571
2.61383
2.660894
2.660519
2.660706
2.660894
2.629955
2.368385
1.97406
1.97406
1.479795
1.257226
1.248413
1.248226
1.248976
1.274289
1.576548
1.919684
2.311196
2.311196
2.60708
2.660894
2.660706
2.660519
2.660894
2.62058
2.364447
1.972185
1.489358
1.489358
1.258538
1.248226
1.248038
1.248601
1.266789
1.550485
1.907683
2.284007
2.571266
2.571266
2.656394
2.660706
2.660706
2.660894
2.629955
2.372885
1.946872
1.478108
1.257788
1.257788
1.249163
1.248226
1.248788
1.263039
1.523484
1.88687
2.293758
2.601454
2.661081
2.661081
2.660894
2.660519
2.660706
2.632205
2.408699
2.010436
1.503233
1.256476
1.256476
1.248226
1.248038
1.249351
1.267164
1.539235
1.867932
2.269007
2.593017
2.660894
2.660894
2.660706
2.660706
2.661081
2.637268
2.407011
2.060688
1.539047
1.264539
1.248788
1.248788
1.247851
1.248788
1.279164
1.55011
1.906558
2.287195
2.588892
2.660894
2.660519
2.660519
2.660706
2.660706
2.638393
2.422199
2.058063
1.570923
1.276351
1.248976
1.248413
1.248413
1.249163
1.272039
1.55011
1.903558
2.294883
2.604079
2.661081
2.660706
2.660706
2.660519
2.660519
2.648518
2.462325
2.086564
1.599236
1.276914
1.248976
1.248226
1.248226
1.248976
1.269976
1.542235
1.899808
2.290007
2.60708
2.660894
2.660706
2.660706
2.660706
2.660894
2.648893
2.462138
2.094814
1.603549
1.279539
1.249163
1.248226
1.249163
1.249163
1.270351
1.536234
1.885745
2.269382
2.585891
2.661081
2.660706
2.660706
2.660519
2.660519
2.651518
2.478638
2.118815
1.623987
1.285914
1.249538
1.248226
1.248601
1.248601
1.268476
1.519546
1.873745
2.255881
2.586266
2.660894
2.660706
2.660519
2.660706
2.660706
2.659581
2.479013
2.129315
1.644238
1.291352
1.249538
1.248413
1.248788
1.267726
1.267726
1.513171
1.873932
2.250818
2.589079
2.660894
2.660706
2.660519
2.660894
2.661081
2.661081
2.494576
2.140378
1.648363
1.288727
1.249351
1.248226
1.248601
1.261726
1.473982
1.473982
1.834181
2.21088
2.565078
2.660894
2.660894
2.660706
2.660894
2.659019
2.47395
2.47395
2.12369
1.619299
1.264539
1.248413
1.248226
1.248976
1.261913
1.443044
1.443044
1.773617
2.167379
2.542015
2.661269
2.660519
2.660706
2.660894
2.661081
2.480513
2.480513
2.154066
1.692802
1.300727
1.249913
1.247851
1.248413
1.260788
1.482045
1.841494
1.841494
2.20338
2.536202
2.660894
2.660519
2.660519
2.660706
2.657894
2.4597
2.160254
2.160254
1.691864
1.315165
1.251976
1.248038
1.248601
1.257601
1.452794
1.838494
2.229443
2.229443
2.554203
2.658268
2.660706
2.660706
2.660706
2.660894
2.513702
2.172441
2.172441
1.659051
1.30654
1.250476
1.248976
1.249163
1.260226
1.417918
1.808493
2.194942
2.194942
2.540515
2.661081
2.660706
2.660519
2.660519
2.661081
2.541453
2.224193
1.72974
1.72974
1.309165
1.249351
1.248226
1.249163
1.264914
1.444357
1.799492
2.163628
2.537702
2.537702
2.660331
2.660894
2.660519
2.660706
2.661081
2.533015
2.21763
1.763116
1.337666
1.337666
1.252163
1.248226
1.248601
1.264726
1.478295
1.837368
2.178816
2.527202
2.657706
2.657706
2.660519
2.660706
2.660519
2.660706
2.495889
2.169254
1.654363
1.271101
1.271101
1.248413
1.248038
1.248226
1.248038
1.249538
1.30954
1.605424
1.900183
2.092564
2.092564
2.263194
2.344384
2.458575
2.558703
2.337446
1.969935
1.48242
1.256851
1.249163
1.249163
1.249913
1.251976
1.444919
1.867932
2.355259
2.638581
2.660331
2.659956
2.659769
2.659769
2.659956
2.659769
2.659956
2.660519
2.617205
2.217818
1.680051
1.379105
1.267164
1.267164
1.278789
1.39673
1.626237
1.956622
2.260944
2.593954
2.661081
2.660519
2.660519
2.660519
2.660519
2.660894
2.578391
2.288695
1.839431
1.378355
1.253476
1.248601
1.248601
1.248413
1.255913
1.40573
1.782242
2.12369
2.476388
2.647581
2.660706
2.660706
2.660706
2.660706
2.660894
2.495889
2.209192
1.764429
1.338603
1.251413
1.248038
1.248413
1.248413
1.250288
1.328478
1.704239
2.449387
2.622267
2.660706
2.660706
2.660706
2.660894
2.52439
2.52439
2.212943
1.710052
1.318728
1.250101
1.248413
1.248413
1.250851
1.298852
1.672364
1.672364
2.039125
2.4462
2.630143
2.660894
2.660894
2.660706
2.661269
2.548015
2.548015
2.240131
1.777179
1.324353
1.249351
1.247851
1.248038
1.252726
1.318353
1.662613
1.662613
1.988498
2.397073
2.63258
2.660894
2.660706
2.660894
2.661269
2.528702
2.226443
2.226443
1.791617
1.337853
1.250288
1.248038
1.247851
1.249726
1.31854
1.662238
2.002374
2.002374
2.365197
2.621893
2.660894
2.660894
2.660706
2.660894
2.492326
2.194942
1.777554
1.777554
1.342916
1.253663
1.248038
1.247851
1.248976
1.287227
1.63805
2.007436
2.384323
2.384323
2.610267
2.660894
2.660894
2.660519
2.661081
2.54014
2.234131
1.71774
1.71774
1.316478
1.249913
1.248413
1.248226
1.249163
1.268851
1.581611
1.954185
2.37251
2.37251
2.613267
2.660894
2.660894
2.661081
2.660894
2.54239
2.241068
1.78918
1.332791
1.332791
1.248976
1.247851
1.248038
1.249913
1.274664
1.572986
1.879557
2.295445
2.577266
2.577266
2.661081
2.660894
2.660894
2.62508
2.499451
2.179379
1.757866
1.314603
1.248976
1.248976
1.248038
1.247851
1.248038
1.262851
1.509233
1.845806
2.228318
2.518014
2.518014
2.639893
2.661081
2.661081
2.636143
2.471513
2.130065
1.70724
1.291352
1.248226
1.248226
1.248038
1.248038
1.248038
1.252913
1.455607
1.79368
2.186129
2.492701
2.614017
2.614017
2.661269
2.661269
2.626018
2.46045
2.122752
1.690739
1.288727
1.248413
1.248038
1.248038
1.247851
1.247851
1.251788
1.444732
1.773804
2.169254
2.475826
2.629768
2.661081
2.661081
2.660894
2.623205
2.482013
2.157254
1.720552
1.304102
1.248601
1.247851
1.247851
1.247851
1.248038
1.255726
1.488983
1.825556
2.230006
2.545765
2.652269
2.661081
2.661081
2.660894
2.659581
2.54689
2.246319
1.833618
1.372167
1.250476
1.248038
1.247851
1.247851
1.248413
1.265101
1.559298
1.90112
2.309695
2.591329
2.661081
2.660706
2.660706
2.660706
2.660894
2.600892
2.324883
1.917808
1.434419
1.253851
1.248038
1.248038
1.249163
1.249163
1.272789
1.592486
1.935622
2.331821
2.617392
2.660894
2.660706
2.660706
2.660706
2.660894
2.616267
2.346259
1.928684
1.441544
1.254413
1.248038
1.248038
1.248976
1.248976
1.268289
1.571486
1.917621
2.319446
2.600892
2.661081
2.660519
2.660894
2.660894
2.660894
2.61908
2.349447
1.941809
1.446982
1.255913
1.248038
1.247851
1.248601
1.265101
1.265101
1.551797
1.881057
2.282132
2.582516
2.661081
2.660519
2.660519
2.661081
2.615892
2.615892
2.336134
1.940872
1.450732
1.254601
1.248226
1.247851
1.248413
1.262851
1.262851
1.536234
1.878807
2.269944
2.580454
2.661081
2.660894
2.661081
2.661081
2.611392
2.611392
2.327696
1.937684
1.449044
1.253851
1.248038
1.248038
1.248413
1.257413
1.497421
1.497421
1.840369
2.230193
2.548203
2.653018
2.660894
2.660894
2.660894
2.61008
2.313633
2.313633
1.908808
1.415106
1.251976
1.248038
1.248038
1.248038
1.255351
1.448294
1.808118
1.808118
2.20938
2.528702
2.658456
2.660706
2.660894
2.661081
2.601829
2.318508
1.930934
1.930934
1.442857
1.251038
1.248038
1.248038
1.248413
1.255913
1.449419
1.731053
1.731053
2.11844
2.498889
2.641768
2.660894
2.660894
2.635018
2.562078
2.278382
1.917996
1.917996
1.454669
1.257038
1.248038
1.248038
1.247851
1.251226
1.415481
1.785804
2.153503
2.153503
2.480326
2.598079
2.661269
2.661081
2.660894
2.603892
2.310258
1.838869
1.367479
1.367479
1.251601
1.247851
1.248226
1.248038
1.251601
1.333353
1.70499
2.120127
2.479013
2.479013
2.626768
2.660894
2.661081
2.661081
2.598829
2.303695
1.947997
1.484483
1.484483
1.252726
1.248413
1.247851
1.247851
1.251226
1.416606
1.743053
2.107377
2.420324
2.420324
2.633705
2.661081
2.660894
2.661081
2.625268
2.267319
1.852556
1.448482
1.251976
1.251976
1.248226
1.248038
1.248038
1.248976
1.372167
1.705177
2.098564
2.483513
2.62958
2.62958
2.661081
2.661269
2.661081
2.612142
2.338196
2.001436
1.475857
1.253101
1.248038
1.248038
1.248038
1.247851
1.253663
1.383792
1.714552
2.010436
2.418824
2.62883
2.62883
2.660894
2.660894
2.660894
2.584579
2.240318
1.950622
1.48017
1.254976
1.249163
1.249163
1.247851
1.248038
1.248976
1.352291
1.689801
2.107939
2.451637
2.583829
2.642706
2.642706
2.661081
2.660894
2.626205
2.373073
1.989248
1.430669
1.249538
1.248038
1.248038
1.248038
1.248413
1.250476
1.324915
1.589861
2.038187
2.412636
2.620205
2.661081
2.661081
2.661081
2.629393
2.590017
2.324883
1.991123
1.523109
1.261726
1.248038
1.248038
1.248038
1.247851
1.249351
1.347229
1.710802
2.049062
2.375135
2.581766
2.661081
2.661081
2.661081
2.661081
2.598642
2.308758
1.853307
1.435731
1.251976
1.247851
1.248413
1.248038
1.248038
1.248226
1.287414
1.588173
1.979873
2.369135
2.573891
2.661269
2.608955
2.660144
2.660144
2.587579
2.30407
1.985686
1.497233
1.253851
1.248038
1.247851
1.247851
1.250851
1.250851
1.312353
1.601674
1.915371
2.339696
2.591516
2.661269
2.661081
2.661081
2.575954
2.575954
2.254756
1.974435
1.519359
1.258538
1.248413
1.248038
1.248226
1.248413
1.248413
1.30204
1.615362
2.016062
2.37401
2.570141
2.63483
2.661081
2.661081
2.626018
2.626018
2.381698
1.982873
1.426169
1.252913
1.248038
1.247851
1.248601
1.248976
1.273726
1.273726
1.544485
1.960185
2.351322
2.594517
2.661081
2.661081
2.647206
2.610267
2.36576
2.36576
2.046813
1.573548
1.260038
1.248413
1.248038
1.247851
1.248601
1.311415
1.619674
1.619674
1.955122
2.284195
2.567516
2.661269
2.661081
2.660894
2.620018
2.308758
2.308758
1.960372
1.541109
1.258913
1.248788
1.248038
1.248038
1.248413
1.279914
1.580111
1.580111
1.952872
2.370635
2.584391
2.624892
2.661081
2.660894
2.637081
2.443199
2.097251
2.097251
1.601486
1.254601
1.247851
1.247851
1.248038
1.249351
1.296977
1.566985
1.946497
1.946497
2.315696
2.561516
2.61233
2.649456
2.574079
2.390698
2.041562
1.638425
1.269226
1.269226
1.248226
1.248601
1.248976
1.249163
1.248788
1.248413
1.258351
1.595299
1.595299
2.04775
2.262819
2.449575
2.559641
2.631643
2.652081
2.537327
2.446387
2.149003
2.149003
1.739303
1.491045
1.312353
1.326228
1.468732
1.72749
2.088439
2.443762
2.650018
2.650018
2.660519
2.660331
2.660331
2.660331
2.660706
2.634268
2.377198
1.877307
1.383605
1.383605
1.251976
1.248038
1.248038
1.249351
1.29829
1.623237
1.95306
2.322258
2.568828
2.568828
2.655456
2.660894
2.660894
2.629205
2.445075
2.111315
1.642363
1.272414
1.248038
1.248038
1.247851
1.248038
1.248226
1.262476
1.520296
1.867745
2.251569
2.529077
2.529077
2.647206
2.661081
2.661081
2.624143
2.386948
2.0575
1.596799
1.262851
1.248038
1.248038
1.248226
1.248038
1.248038
1.257038
1.48392
1.823493
2.209942
2.498326
2.632205
2.660894
2.660894
2.589454
2.372135
2.039875
1.587986
1.261163
1.248038
1.248038
1.248038
1.248038
1.248038
1.252726
1.451669
1.796305
2.187067
2.475826
2.630893
2.661081
2.661081
2.661081
2.592829
2.371197
2.03725
1.592674
1.261913
1.248038
1.248226
1.248038
1.248038
1.248038
1.252163
1.441919
1.776992
2.170566
2.463263
2.602767
2.661269
2.661081
2.597517
2.597517
2.373073
2.045125
1.599799
1.262851
1.248038
1.248038
1.248226
1.247851
1.251038
1.251038
1.420356
1.764991
2.153691
2.4522
2.626018
2.661081
2.661269
2.599204
2.384698
2.384698
2.057313
1.622862
1.268664
1.248038
1.248038
1.248038
1.248038
1.250851
1.419606
1.419606
1.744928
2.135315
2.440949
2.606892
2.661269
2.661269
2.581579
2.383198
2.383198
2.049062
1.616299
1.266789
1.248038
1.248038
1.248038
1.248038
1.249538
1.385105
1.385105
1.719427
2.110189
2.407761
2.578766
2.646268
2.659956
2.582516
2.357884
2.017187
2.017187
1.590049
1.263226
1.247851
1.248038
1.248038
1.248226
1.248601
1.341228
1.655676
1.655676
2.04175
2.337071
2.54014
2.601642
2.593204
2.53789
2.303133
1.964497
1.534547
1.534547
1.254788
1.247851
1.248226
1.248226
1.248038
1.248038
1.293602
1.572235
1.572235
1.965435
2.275569
2.47395
2.585891
2.593579
2.487076
2.257194
1.917808
1.502108
1.502108
1.252538
1.248226
1.248413
1.248038
1.248226
1.247851
1.277851
1.528172
1.920996
1.920996
2.234881
2.443199
2.554203
2.568641
2.468138
2.244631
1.914246
1.509984
1.253101
1.253101
1.248038
1.248413
1.248413
1.248226
1.248038
1.284977
1.551422
1.951184
2.275194
2.275194
2.484263
2.607455
2.60558
2.539015
2.330696
1.994686
1.604111
1.264351
1.248038
1.248038
1.248226
1.248038
1.248038
1.248413
1.336541
1.64105
2.044
2.37326
2.37326
2.569578
2.654894
2.661269
2.615142
2.448637
2.123127
1.719802
1.30279
1.248601
1.248601
1.247851
1.248038
1.247851
1.250288
1.396168
1.730115
2.122377
2.456887
2.623393
2.623393
2.661081
2.661081
2.644206
2.535265
2.210692
1.80793
1.346291
1.249351
1.247851
1.247851
1.248038
1.247851
1.251038
1.415481
1.749803
2.14694
2.475263
2.633893
2.661081
2.661081
2.661081
2.650393
2.53714
2.227193
1.834931
1.367854
1.249726
1.247851
1.247851
1.248038
1.248038
1.251601
1.421481
1.759179
2.153878
2.479388
2.634268
2.660894
2.660894
2.661081
2.654706
2.557203
2.233381
1.840744
1.371417
1.249538
1.247851
1.247851
1.247851
1.248038
1.250288
1.39898
1.728053
2.122565
2.46495
2.617392
2.661081
2.661081
2.661081
2.657519
2.556266
2.235818
1.846931
1.371792
1.249726
1.248038
1.248038
1.248038
1.248038
1.250288
1.38323
1.713052
2.11094
2.451262
2.63108
2.661269
2.660894
2.661081
2.661081
2.566203
2.245381
1.865494
1.388292
1.250101
1.247851
1.248038
1.248038
1.248038
1.249726
1.375167
1.703677
2.086939
2.431762
2.623205
2.661081
2.661081
2.649643
2.649643
2.551203
2.244444
1.869995
1.392043
1.249538
1.248038
1.248038
1.248038
1.249538
1.249538
1.368979
1.695802
2.085626
2.433074
2.623018
2.661269
2.661081
2.661081
2.566578
2.566578
2.245944
1.870932
1.398418
1.250288
1.248038
1.248038
1.247851
1.249538
1.365604
1.365604
1.687364
2.082626
2.428012
2.604455
2.661269
2.661081
2.661269
2.571453
2.571453
2.261882
1.899433
1.412856
1.250476
1.247851
1.247851
1.248038
1.249538
1.359604
1.359604
1.680426
2.067813
2.420887
2.611017
2.661081
2.661081
2.661269
2.583079
2.272007
2.272007
1.908246
1.425418
1.250851
1.247851
1.248038
1.248038
1.249538
1.351729
1.664863
1.664863
2.05
2.413761
2.608205
2.661081
2.661081
2.661081
2.582329
2.296945
1.936559
1.936559
1.449232
1.251788
1.247851
1.247851
1.247851
1.249726
1.350979
1.663926
1.663926
2.04475
2.405699
2.609142
2.661081
2.661081
2.661081
2.609517
2.290757
1.934497
1.934497
1.450544
1.252163
1.248038
1.247851
1.247851
1.248976
1.338978
1.655676
2.035375
2.035375
2.401198
2.600892
2.661081
2.660894
2.661081
2.605205
2.299757
1.950997
1.462357
1.462357
1.251788
1.247851
1.247851
1.248038
1.249163
1.326978
1.630175
2.009874
2.37701
2.37701
2.593767
2.661269
2.661081
2.661269
2.605205
2.308571
1.964872
1.473982
1.252163
1.252163
1.247851
1.248038
1.248038
1.248788
1.31704
1.621737
1.995623
2.35976
2.35976
2.581766
2.659206
2.661081
2.660894
2.592079
2.313258
1.96356
1.478295
1.252538
1.252538
1.248038
1.247851
1.248038
1.248601
1.31404
1.608799
1.983436
2.358259
2.582516
2.582516
2.659019
2.661081
2.661081
2.608955
2.320383
1.979873
1.496483
1.253101
1.247851
1.247851
1.247851
1.247851
1.248601
1.296414
1.585173
1.951184
2.312508
2.555703
2.648893
2.648893
2.661081
2.656018
2.575766
2.285507
1.945559
1.458795
1.250851
1.247851
1.247851
1.248038
1.248038
1.248038
1.278414
1.54486
1.915746
2.277632
2.540703
2.640643
2.640643
2.661081
2.648893
2.584954
2.287757
1.951935
1.48242
1.252163
1.248038
1.248038
1.248038
1.248038
1.248413
1.288914
1.578048
1.943309
2.320196
2.566203
2.656769
2.661081
2.661081
2.657894
2.588329
2.320758
1.988498
1.512984
1.253476
1.247663
1.248038
1.248038
1.248038
1.248226
1.279539
1.557423
1.922121
2.30407
2.556828
2.647206
2.661081
2.661081
2.661081
2.587954
2.323758
1.988498
1.510359
1.253851
1.248038
1.248038
1.248038
1.248038
1.248226
1.267914
1.530422
1.890058
2.267694
2.52739
2.627705
2.661081
2.661081
2.661081
2.587016
2.312883
1.978935
1.502858
1.253288
1.248038
1.248038
1.248038
1.248038
1.248038
1.261163
1.499858
1.858182
2.239568
2.509952
2.633518
2.661269
2.658456
2.577266
2.577266
2.30257
1.973873
1.505296
1.252913
1.247851
1.248038
1.248038
1.248038
1.258351
1.258351
1.483358
1.846556
2.227943
2.503389
2.636518
2.661269
2.657331
2.582516
2.582516
2.322446
1.981748
1.527422
1.254413
1.248038
1.248038
1.248226
1.248038
1.249726
1.249726
1.320228
1.602049
1.940684
2.180504
2.30707
2.310821
2.251944
2.084126
1.780742
1.780742
1.455232
1.251226
1.247851
1.247851
1.248038
1.248226
1.248038
1.248601
1.357729
1.357729
1.808118
2.346822
2.654144
2.660331
2.660144
2.660144
2.660519
2.658268
2.496826
2.496826
2.032
1.543922
1.292852
1.251413
1.250663
1.264726
1.411731
1.776804
2.096127
2.096127
2.449012
2.633705
2.661081
2.660894
2.660894
2.621143
2.381885
2.0365
2.0365
1.566235
1.257038
1.247851
1.248226
1.248226
1.247851
1.250476
1.381167
1.706865
1.706865
2.080189
2.36201
2.542765
2.614767
2.599954
2.489326
2.209942
1.87112
1.428044
1.428044
1.249538
1.248038
1.248413
1.248226
1.248038
1.248601
1.304102
1.608424
1.990936
1.990936
2.278195
2.4642
2.546515
2.547265
2.421074
2.165691
1.831743
1.401043
1.248976
1.248976
1.248226
1.248601
1.248413
1.248038
1.248038
1.275601
1.538484
1.920809
1.920809
2.205067
2.400823
2.494389
2.492701
2.36276
2.120502
1.366167
1.248226
1.248226
1.248601
1.248601
1.248601
1.248413
1.248038
1.263789
1.490483
1.87937
2.169629
2.438512
2.619642
2.619642
2.661269
2.650581
2.520827
2.265632
1.878245
1.450732
1.262101
1.249163
1.249913
1.249913
1.262851
1.446794
2.0605
2.53639
2.660519
2.659956
2.659581
2.659206
2.659394
2.659394
2.659206
2.659581
2.659769
2.660144
2.661081
2.567141
2.442075
2.510702
2.621705
2.621705
2.660519
2.659769
2.659206
2.658831
2.658456
2.658456
2.657894
2.657706
2.657706
2.657894
2.657894
2.658456
2.659019
2.659581
2.660144
2.660519
2.660331
2.660144
2.660144
2.659769
2.659394
2.658643
2.658081
2.657894
2.657519
2.657519
2.657519
2.657519
2.657519
2.657894
2.658268
2.659019
2.659394
2.659956
2.660144
2.660144
2.659956
2.659581
2.659581
2.659019
2.658831
2.658268
2.657894
2.657519
2.657331
2.657519
2.657706
2.657894
2.657894
2.658456
2.658831
2.659394
2.659956
2.660331
2.660331
2.660144
2.659581
2.659581
2.659206
2.658456
2.658456
2.658081
2.657706
2.657706
2.657519
2.657519
2.657894
2.657894
2.658268
2.659019
2.659581
2.660144
2.660331
2.660331
2.660144
2.659956
2.659394
2.659394
2.658831
2.658456
2.658081
2.657894
2.657706
2.657706
2.657894
2.657894
2.658268
2.658268
2.659019
2.659769
2.660144
2.660519
2.660519
2.660331
2.660144
2.659581
2.659019
2.659019
2.658456
2.658268
2.657894
2.657706
2.657706
2.657894
2.658081
2.658643
2.659019
2.659019
2.659581
2.660331
2.660519
2.660706
2.660519
2.660144
2.659581
2.659019
2.659019
2.658456
2.658268
2.657894
2.657894
2.657706
2.657894
2.658081
2.658643
2.659206
2.659206
2.659581
2.659956
2.660519
2.660519
2.660519
2.659956
2.659394
2.658831
2.658456
2.658456
2.658081
2.657894
2.657519
2.657519
2.657706
2.657894
2.658456
2.658831
2.659581
2.659581
2.660144
2.660519
2.660331
2.660331
2.659956
2.659394
2.659019
2.658456
2.658081
2.658081
2.657894
2.657706
2.657706
2.657706
2.657894
2.658456
2.658831
2.659581
2.659581
2.660144
2.660706
2.660706
2.660519
2.660144
2.659394
2.659019
2.658456
2.658268
2.658268
2.657894
2.657894
2.657706
2.657894
2.658081
2.658643
2.659019
2.659581
2.659956
2.659956
2.660519
2.660706
2.660519
2.660144
2.659581
2.659206
2.658643
2.658081
2.657894
2.657894
2.657706
2.657894
2.657894
2.658081
2.658643
2.659019
2.659769
2.660519
2.660706
2.660706
2.660706
2.660519
2.660144
2.659769
2.659394
2.658831
2.658456
2.658081
2.657894
2.657894
2.657894
2.658081
2.658268
2.658643
2.659019
2.659956
2.660519
2.660706
2.660706
2.661081
2.661081
2.660519
2.660144
2.659394
2.659019
2.658456
2.658081
2.658081
2.658081
2.658081
2.658081
2.658081
2.658643
2.659206
2.659769
2.660519
2.661081
2.661081
2.661081
2.661081
2.660519
2.659956
2.659581
2.658831
2.658643
2.658268
2.658456
2.658081
2.658081
2.658081
2.658456
2.658643
2.659206
2.660144
2.660706
2.661081
2.642706
2.654519
2.654519
2.660706
2.660144
2.659769
2.659206
2.658643
2.658456
2.658081
2.658268
2.658268
2.658268
2.658268
2.658643
2.659394
2.660144
2.660706
2.643456
2.60558
2.620018
2.620018
2.660894
2.660331
2.659769
2.659019
2.658831
2.658456
2.658081
2.658268
2.658268
2.658268
2.658268
2.658831
2.659019
2.660144
2.660706
2.640455
2.606142
2.619455
2.660894
2.660894
2.660331
2.659769
2.659394
2.658831
2.658456
2.658268
2.658268
2.658456
2.658456
2.658456
2.659019
2.659581
2.660144
2.660894
2.63258
2.580454
2.605767
2.660894
2.660331
2.660331
2.659581
2.659206
2.658831
2.658456
2.658268
2.658268
2.658268
2.658643
2.658643
2.659019
2.659394
2.660144
2.660894
2.616642
2.545015
2.578579
2.661081
2.660519
2.660519
2.659769
2.659581
2.658831
2.658643
2.658268
2.658268
2.658268
2.658456
2.659019
2.659019
2.659394
2.660144
2.660894
2.598454
2.512952
2.55439
2.649268
2.660519
2.659769
2.659769
2.659394
2.659019
2.658643
2.658456
2.658268
2.658456
2.658643
2.658643
2.659394
2.659394
2.660144
2.661081
2.568453
2.459888
2.494576
2.63408
2.660706
2.659956
2.659956
2.659581
2.659019
2.658643
2.658456
2.658456
2.658643
2.658643
2.658831
2.659581
2.659581
2.660331
2.651143
2.522139
2.397823
2.432699
2.612142
2.660706
2.660331
2.659394
2.659394
2.659019
2.658643
2.658643
2.658456
2.658643
2.658643
2.659019
2.659394
2.660331
2.660331
2.655081
2.538265
2.416949
2.445075
2.615705
2.660706
2.660144
2.659581
2.659019
2.659019
2.658831
2.658643
2.658643
2.658456
2.658643
2.659019
2.659581
2.660519
2.660519
2.651893
2.514827
2.371947
2.400636
2.585141
2.660894
2.659956
2.659769
2.659206
2.659206
2.659019
2.658643
2.658643
2.658456
2.658831
2.659206
2.659581
2.660144
2.647768
2.647768
2.475451
2.323008
2.350009
2.538265
2.660894
2.660331
2.659769
2.659394
2.658831
2.658831
2.658831
2.658456
2.658643
2.658643
2.659394
2.659769
2.660144
2.635768
2.436074
2.436074
2.278007
2.299757
2.491014
2.648331
2.660331
2.659769
2.659206
2.659019
2.658831
2.658831
2.658643
2.658643
2.658831
2.659206
2.659769
2.660519
2.62583
2.398011
2.398011
2.227943
2.248194
2.44245
2.635205
2.660519
2.659769
2.659206
2.659019
2.658643
2.658643
2.658831
2.658643
2.659019
2.659394
2.659769
2.660331
2.612517
2.377385
2.209942
2.209942
2.212193
2.37551
2.606704
2.660894
2.660144
2.659769
2.659394
2.659206
2.659206
2.659206
2.659206
2.659394
2.659956
2.660519
2.55589
2.12594
1.901495
1.964685
2.136815
2.136815
2.320008
2.53264
2.660894
2.660331
2.659394
2.659206
2.658643
2.658081
2.658081
2.658081
2.658081
2.658643
2.659019
2.659769
2.660331
2.660894
2.613267
2.604642
2.604642
2.654519
2.660519
2.660144
2.659581
2.659206
2.658643
2.658643
2.658456
2.658456
2.658456
2.658831
2.659394
2.659769
2.660519
2.586641
2.299008
2.090689
2.082438
2.236193
2.236193
2.505076
2.660894
2.660144
2.659769
2.659206
2.659019
2.659019
2.658643
2.659206
2.659206
2.659394
2.659956
2.660519
2.47245
2.159316
1.955497
1.964872
2.117877
2.398198
2.398198
2.656018
2.660519
2.659956
2.659394
2.659206
2.659019
2.659206
2.659019
2.659019
2.659581
2.660144
2.660894
2.419761
2.095564
1.89512
1.907871
2.052813
2.326946
2.326946
2.643268
2.660519
2.659769
2.659581
2.659206
2.659206
2.659206
2.659206
2.659581
2.659581
2.660144
2.647581
2.370635
2.042687
1.842431
1.850119
1.986811
2.259069
2.614392
2.614392
2.660706
2.659956
2.659769
2.659581
2.659206
2.659206
2.659394
2.659956
2.660144
2.660144
2.643643
2.338946
2.007999
1.79668
1.80643
1.935622
2.20788
2.586829
2.586829
2.660706
2.660144
2.659581
2.659206
2.659206
2.659394
2.659206
2.659769
2.660331
2.660331
2.642143
2.303508
1.966373
1.752241
1.749428
1.878245
2.14619
2.54239
2.660894
2.660894
2.660331
2.659956
2.659394
2.659394
2.659394
2.659581
2.659769
2.660331
2.637455
2.637455
2.270882
1.706115
1.70349
1.819931
2.089376
2.502076
2.658456
2.660331
2.659769
2.659769
2.659394
2.659394
2.659206
2.659394
2.659769
2.660331
2.629205
2.224005
1.872432
1.872432
1.6508
1.64405
1.756366
2.020562
2.429137
2.647206
2.660519
2.659956
2.659581
2.659581
2.659394
2.659394
2.659769
2.659769
2.660331
2.597517
2.157441
1.805868
1.577673
1.577673
1.55761
1.656426
1.919121
2.332196
2.615892
2.660519
2.659956
2.659769
2.659581
2.659581
2.659581
