1.743428
1.743428
2.085064
2.450325
2.640831
2.665019
2.664831
2.602579
2.358072
2.041187
1.689989
1.689989
1.366354
1.246163
1.240725
1.240538
1.240538
1.242413
1.429356
1.915558
2.255694
2.255694
2.536015
2.660519
2.664644
2.664269
2.664456
2.664456
2.664644
2.63783
2.37476
2.37476
2.076251
1.803243
1.656238
1.568673
1.621174
1.822368
2.131002
2.439075
2.649643
2.649643
2.664644
2.664269
2.664269
2.664644
2.662769
2.502639
2.159503
1.820868
1.533047
1.533047
1.30879
1.250851
1.243725
1.248601
1.329041
1.62905
1.982686
2.36951
2.36951
2.626955
2.664644
2.664644
2.664831
2.563953
2.29207
1.97406
1.676114
1.417356
1.417356
1.261539
1.246163
1.242225
1.245038
1.303915
1.596424
1.950435
2.341197
2.61608
2.61608
2.664831
2.664644
2.665019
2.556641
2.288507
1.975748
1.689052
1.429356
1.265851
1.265851
1.245788
1.242413
1.244663
1.300727
1.578423
1.936934
2.327696
2.599392
2.664644
2.664644
2.664831
2.664831
2.565641
2.309133
1.994123
1.702739
1.443419
1.267351
1.267351
1.246163
1.242413
1.245038
1.29679
1.567735
1.925684
2.30707
2.585704
2.664831
2.664831
2.664644
2.664831
2.578204
2.313071
1.997123
1.714365
1.446794
1.269601
1.246726
1.246726
1.242038
1.243913
1.283102
1.545985
1.895495
2.281195
2.577079
2.665019
2.664831
2.664831
2.664831
2.582891
2.324508
2.016812
1.730678
1.456544
1.277289
1.247101
1.2426
1.2426
1.243913
1.278414
1.517859
1.884058
2.263944
2.565828
2.664831
2.664831
2.664831
2.664831
2.588517
2.329196
2.007249
1.713615
1.443232
1.271476
1.246351
1.242225
1.242225
1.242975
1.269414
1.49292
1.845994
2.22663
2.534702
2.665019
2.664831
2.665019
2.665019
2.570703
2.318883
2.011749
1.715865
1.429356
1.264351
1.244663
1.241663
1.241475
1.241475
1.258163
1.446419
1.804368
2.174504
2.507139
2.664831
2.665206
2.664831
2.555703
2.555703
2.296195
1.977998
1.678739
1.394293
1.256663
1.242788
1.2411
1.241288
1.247663
1.247663
1.378167
1.732553
2.096689
2.429324
2.616642
2.665019
2.645706
2.506764
2.506764
2.229443
1.913683
1.610487
1.340853
1.248226
1.241288
1.240538
1.240725
1.243163
1.243163
1.312353
1.648738
2.023562
2.366697
2.600142
2.644393
2.62808
2.481263
2.20713
2.20713
1.898308
1.588173
1.32154
1.246538
1.241288
1.240725
1.24035
1.242413
1.303165
1.303165
1.633175
2.000124
2.345134
2.589079
2.641581
2.507514
2.232443
1.930559
1.626612
1.626612
1.349291
1.249351
1.241663
1.240725
1.240725
1.243351
1.313665
1.656988
2.033124
2.033124
2.378323
2.614767
2.665019
2.665206
2.564141
2.323008
2.030874
1.736678
1.457107
1.457107
1.279727
1.245788
1.241475
1.241475
1.249163
1.387917
1.758804
2.126503
2.479763
2.479763
2.651893
2.664831
2.664831
2.63783
2.4567
2.162503
1.860057
1.576361
1.576361
1.345353
1.255726
1.245038
1.243913
1.264914
1.450357
1.827806
2.181817
2.533202
2.533202
2.664831
2.664831
2.664644
2.665019
2.530577
2.230381
1.925121
1.6403
1.40273
1.40273
1.269226
1.247851
1.246163
1.274851
1.473607
1.829493
2.190629
2.536765
2.664831
2.664831
2.664644
2.664456
2.665019
2.536015
2.239193
1.945747
1.647425
1.398605
1.269976
1.269976
1.248788
1.245038
1.264914
1.436106
1.795742
2.153503
2.508452
2.659019
2.659019
2.664831
2.664644
2.665019
2.531515
2.239381
1.932246
1.648925
1.403293
1.263601
1.263601
1.246726
1.243913
1.257226
1.404605
1.746428
2.107002
2.470201
2.648893
2.664831
2.664831
2.664644
2.663519
2.527765
2.223068
1.926434
1.63505
1.390918
1.260788
1.245413
1.245413
1.243163
1.252538
1.382855
1.72149
2.076251
2.45295
2.653769
2.664831
2.664644
2.664644
2.663144
2.521577
2.236943
1.925309
1.628487
1.38623
1.261163
1.244851
1.242788
1.242788
1.250476
1.362229
1.692802
2.048312
2.419949
2.642893
2.664644
2.664644
2.664644
2.664831
2.534702
2.251569
1.936747
1.645363
1.399543
1.260038
1.245975
1.242788
1.242788
1.249726
1.350416
1.670864
2.033312
2.412824
2.638956
2.664644
2.664644
2.664831
2.664831
2.54914
2.279507
1.973498
1.675176
1.421481
1.266039
1.246726
1.243163
1.249726
1.249726
1.349854
1.675551
2.022249
2.399886
2.628455
2.664831
2.664644
2.665019
2.556828
2.556828
2.287757
1.98006
1.687927
1.426731
1.264914
1.246163
1.242788
1.247288
1.333541
1.333541
1.647613
1.996561
2.374573
2.62658
2.664644
2.664831
2.662956
2.539577
2.539577
2.265819
1.948372
1.654176
1.398605
1.258726
1.244851
1.242225
1.245413
1.30729
1.30729
1.605986
1.961497
2.350572
2.620955
2.664831
2.664831
2.664831
2.585516
2.319071
2.319071
2.004249
1.718302
1.467982
1.276726
1.248038
1.243163
1.247101
1.320228
1.611237
1.611237
1.975185
2.361072
2.628455
2.664831
2.664644
2.665019
2.601642
2.343822
2.040437
2.040437
1.741178
1.473795
1.285727
1.250101
1.243913
1.247851
1.328665
1.622675
1.622675
1.967498
2.348697
2.624518
2.664644
2.664644
2.664831
2.613455
2.361259
2.043625
2.043625
1.755616
1.497796
1.297165
1.252351
1.244475
1.248038
1.321353
1.605986
1.961872
1.961872
2.340822
2.615142
2.664831
2.664456
2.664644
2.63258
2.398198
2.081126
1.787304
1.787304
1.517109
1.308227
1.255163
1.244475
1.247476
1.316103
1.592111
1.945559
2.334446
2.334446
2.61158
2.664644
2.664831
2.664644
2.632205
2.397448
2.086376
1.790867
1.790867
1.523109
1.313478
1.254038
1.244475
1.246351
1.30654
1.562485
1.932621
2.313446
2.313446
2.61083
2.664831
2.664644
2.664644
2.629205
2.416199
2.108315
1.818993
1.540735
1.540735
1.327916
1.258351
1.244475
1.244663
1.277476
1.466107
1.791055
2.124627
2.416949
2.416949
2.601079
2.597329
2.575016
2.334071
2.028437
1.708365
1.392792
1.252163
1.243913
1.243913
1.257413
1.266789
1.259851
1.318353
1.56586
1.914433
2.404761
2.655643
2.664081
2.664081
2.663706
2.663706
2.663894
2.664456
2.580641
2.292258
2.001061
1.748491
1.748491
1.592111
1.465545
1.422981
1.550485
1.774179
2.103627
2.437949
2.647206
2.664456
2.664456
2.664456
2.664456
2.656206
2.499451
2.150128
1.819555
1.521046
1.30279
1.248038
1.248038
1.242225
1.242413
1.257601
1.427294
1.79893
2.169441
2.511077
2.665019
2.665019
2.665019
2.664831
2.624143
2.398011
2.083564
1.785429
1.500796
1.296977
1.247851
1.242225
1.242225
1.242225
1.253476
1.40498
1.770804
2.136628
2.487826
2.661831
2.664456
2.664456
2.664831
2.633518
2.414136
2.108502
1.80718
1.517484
1.305227
1.248413
1.242413
1.242413
1.242225
1.251976
1.401605
1.766491
2.119002
2.462138
2.653956
2.664831
2.664831
2.664831
2.633143
2.421824
2.126315
1.820118
1.528734
1.311228
1.248413
1.2426
1.241663
1.241663
1.251413
1.384542
1.740991
2.097814
2.447887
2.647581
2.665019
2.665019
2.632393
2.632393
2.444325
2.146753
1.838681
1.546735
1.32304
1.249351
1.242975
1.242038
1.242038
1.249726
1.370479
1.724865
2.081501
2.437574
2.650018
2.664831
2.665019
2.636518
2.636518
2.453325
2.148066
1.833993
1.545422
1.318165
1.248601
1.242788
1.242038
1.248226
1.248226
1.355291
1.700302
2.056938
2.416011
2.634643
2.664644
2.664831
2.641393
2.453887
2.453887
2.154816
1.843181
1.55011
1.320978
1.248226
1.242413
1.24185
1.246538
1.335603
1.335603
1.665801
2.019999
2.382823
2.626393
2.665019
2.665019
2.636893
2.4477
2.149003
2.149003
1.836994
1.545047
1.31704
1.246913
1.242038
1.241475
1.244475
1.308415
1.308415
1.617987
1.974435
2.343259
2.605392
2.665019
2.665019
2.628643
2.414886
2.118252
2.118252
1.80043
1.508484
1.288914
1.244475
1.241475
1.240913
1.242225
1.273351
1.541297
1.541297
1.890995
2.263944
2.548765
2.637081
2.665019
2.583266
2.364447
2.073438
1.755429
1.755429
1.455607
1.266039
1.242413
1.240725
1.240725
1.2411
1.253476
1.467982
1.833431
1.833431
2.211817
2.521014
2.609892
2.659769
2.575391
2.341197
2.053
1.740241
1.740241
1.445107
1.267164
1.242038
1.240725
1.240538
1.2411
1.252538
1.460857
1.815993
1.815993
2.19813
2.507514
2.609142
2.665019
2.589454
2.379072
2.088439
1.771179
1.479608
1.479608
1.278789
1.243351
1.240913
1.240725
1.241288
1.257788
1.491233
1.850119
2.241818
2.241818
2.54089
2.665019
2.665019
2.644768
2.488014
2.202817
1.886308
1.609362
1.363542
1.363542
1.251788
1.243351
1.241663
1.243913
1.294727
1.585736
1.946497
2.326946
2.608205
2.608205
2.664831
2.664644
2.665019
2.579891
2.324134
2.012686
1.731053
1.464232
1.464232
1.281039
1.249163
1.243538
1.247476
1.337478
1.642738
1.994498
2.375323
2.628455
2.628455
2.664644
2.664456
2.664644
2.621705
2.380573
2.062188
1.770804
1.506608
1.298852
1.298852
1.252351
1.244475
1.248226
1.334666
1.627175
1.978748
2.360135
2.623955
2.664831
2.664831
2.664644
2.664644
2.62283
2.385448
2.06725
1.779242
1.502296
1.297915
1.251601
1.251601
1.244475
1.246913
1.31554
1.597736
1.949309
2.329571
2.604267
2.664831
2.664831
2.664644
2.664831
2.62283
2.38001
2.063875
1.764241
1.490296
1.293602
1.250288
1.250288
1.243538
1.244851
1.290602
1.54561
1.903183
2.282132
2.584579
2.664831
2.664831
2.664831
2.665019
2.616455
2.375323
2.06125
1.762929
1.488045
1.292289
1.249163
1.243163
1.243163
1.243913
1.281977
1.525734
1.88387
2.256631
2.569391
2.664831
2.664644
2.664831
2.664831
2.61383
2.377385
1.766117
1.489358
1.293602
1.248413
1.242975
1.243538
1.272601
1.492546
1.492546
1.858932
2.234318
2.548765
2.664831
2.664644
2.664831
2.631455
2.397823
2.087689
2.087689
1.79068
1.511859
1.302977
1.250663
1.242975
1.243163
1.272414
1.490296
1.490296
1.854244
2.230381
2.550453
2.665019
2.664644
2.664831
2.635018
2.421824
2.115439
2.115439
1.818431
1.539797
1.317978
1.250851
1.243351
1.243725
1.268851
1.478858
1.840744
1.840744
2.210505
2.538827
2.665019
2.664644
2.664831
2.640831
2.439825
2.133815
1.833431
1.833431
1.545985
1.329228
1.252726
1.243725
1.243913
1.266414
1.462357
1.827431
2.192692
2.192692
2.534515
2.665019
2.664644
2.664831
2.642893
2.46195
2.151628
1.854057
1.854057
1.566048
1.335416
1.254226
1.243913
1.243163
1.261913
1.439106
1.800242
2.161566
2.161566
2.504701
2.662394
2.665019
2.664831
2.644018
2.444325
2.142066
1.838119
1.542422
1.542422
1.320978
1.249351
1.242788
1.242038
1.252351
1.396355
1.754116
2.112064
2.4717
2.4717
2.655456
2.664644
2.664831
2.641956
2.456325
2.159316
1.856682
1.56736
1.338228
1.338228
1.252726
1.243538
1.243163
1.257413
1.410981
1.774179
2.131565
2.488201
2.657331
2.657331
2.664644
2.664456
2.647768
2.500389
2.20113
1.89512
1.600736
1.366354
1.366354
1.256663
1.245038
1.243538
1.257788
1.410793
1.767241
2.12669
2.485763
2.648331
2.648331
2.664644
2.664644
2.657331
2.521014
2.224005
1.913683
1.620987
1.375542
1.259851
1.259851
1.245788
1.243725
1.256288
1.402355
1.751303
2.112627
2.474888
2.652269
2.664831
2.664831
2.664831
2.661831
2.535077
2.243881
1.935059
1.65155
1.406668
1.261163
1.246163
1.246163
1.243538
1.254976
1.39073
1.72824
2.081876
2.455013
2.647206
2.664644
2.664644
2.664644
2.665019
2.537327
2.255694
1.946497
1.650425
1.404793
1.263039
1.245975
1.245975
1.243538
1.251788
1.377604
1.711365
2.0605
2.43945
2.649831
2.664831
2.664456
2.664456
2.664831
2.54089
2.250069
1.934309
1.64405
1.393167
1.257226
1.245413
1.2426
1.2426
1.247663
1.315728
1.604111
1.900558
2.239568
2.487263
2.599017
2.581204
2.423887
2.423887
2.140753
1.817118
1.472857
1.257038
1.240913
1.240538
1.240538
1.240538
1.240538
1.251226
1.387355
1.654363
2.037062
2.417136
2.654519
2.664456
2.664081
2.663894
2.663894
2.664456
2.664644
2.565828
2.255881
1.991686
1.728053
1.55236
1.432919
1.481295
1.481295
1.674801
1.956435
2.273319
2.595829
2.664831
2.664269
2.664456
2.664644
2.63033
2.63033
2.372885
2.024312
1.70349
1.421481
1.262289
1.245225
1.242038
1.244475
1.295477
1.295477
1.574486
1.919496
2.313633
2.592267
2.664831
2.664831
2.665206
2.541828
2.268632
2.268632
1.943872
1.6418
1.387917
1.255913
1.243538
1.241663
1.242975
1.279727
1.279727
1.541672
1.890433
2.277445
2.568453
2.664644
2.664831
2.662206
2.539015
2.259444
2.259444
1.944622
1.656051
1.395418
1.256476
1.243913
1.241475
1.242975
1.279727
1.532859
1.532859
1.881995
2.271257
2.568641
2.664644
2.664831
2.665019
2.558141
2.291882
1.982873
1.982873
1.679489
1.418856
1.262476
1.245225
1.241663
1.243163
1.271476
1.505671
1.859119
1.859119
2.256256
2.562078
2.665019
2.664831
2.665019
2.561516
2.311945
1.996561
1.996561
1.697114
1.428044
1.266789
1.245413
1.24185
1.242788
1.268289
1.497233
1.859307
1.859307
2.232818
2.544265
2.665019
2.664831
2.665019
2.581766
2.324321
2.008374
1.711552
1.711552
1.438169
1.268664
1.245225
1.24185
1.242413
1.264351
1.478858
1.841494
2.219318
2.219318
2.52739
2.663706
2.665019
2.665019
2.588329
2.346447
2.026562
1.720365
1.440044
1.440044
1.271851
1.245788
1.24185
1.242038
1.259476
1.453732
1.819743
2.196067
2.513889
2.513889
2.665206
2.665019
2.664831
2.593017
2.339696
2.028999
1.728615
1.440044
1.440044
1.270164
1.244475
1.241475
1.241663
1.250663
1.40348
1.766117
2.14244
2.479763
2.479763
2.655456
2.664644
2.659956
2.564328
2.315133
2.008186
1.708177
1.421856
1.262664
1.262664
1.243725
1.2411
1.2411
1.247663
1.365229
1.718865
2.080189
2.425574
2.644768
2.644768
2.665019
2.665019
2.554953
2.305758
1.989998
1.683989
1.392605
1.256663
1.242788
1.242788
1.240913
1.2411
1.243913
1.32304
1.664863
2.042875
2.37926
2.594141
2.594141
2.665019
2.658081
2.554578
2.28907
1.971248
1.670114
1.389042
1.254413
1.242413
1.242413
1.2411
1.240725
1.243913
1.310665
1.65005
2.012874
2.36801
2.592642
2.665019
2.665019
2.634268
2.555515
2.310633
2.011374
1.704427
1.411731
1.261913
1.243163
1.2411
1.2411
1.241475
1.245038
1.325103
1.661676
2.040062
2.402511
2.639893
2.664831
2.664831
2.664831
2.592079
2.391073
2.094064
1.789929
1.507733
1.29979
1.248601
1.2426
1.24185
1.24185
1.251038
1.384917
1.740053
2.098752
2.4582
2.655269
2.664831
2.664831
2.664831
2.649456
2.490826
2.193067
1.890245
1.600174
1.371604
1.258351
1.244851
1.243913
1.243913
1.259288
1.424106
1.785429
2.144691
2.503014
2.646081
2.664831
2.664644
2.663894
2.663894
2.528702
2.236381
1.942559
1.6388
1.399543
1.265476
1.248413
1.2441
1.257413
1.257413
1.40423
1.762554
2.117502
2.490638
2.651143
2.664644
2.664456
2.665019
2.54764
2.54764
2.256819
1.940309
1.657363
1.40048
1.263601
1.246726
1.244663
1.257038
1.257038
1.39823
1.72374
2.090689
2.46195
2.651518
2.664831
2.664831
2.650768
2.533202
2.533202
2.256444
1.943872
1.661301
1.399168
1.263039
1.246538
1.242975
1.251601
1.38248
1.38248
1.716052
2.059563
2.422011
2.639143
2.664831
2.664644
2.665019
2.54614
2.266944
2.266944
1.955497
1.658113
1.420168
1.262476
1.246538
1.243538
1.250101
1.366354
1.689801
1.689801
2.041375
2.415449
2.624892
2.664644
2.664831
2.665019
2.543328
2.269007
2.269007
1.955497
1.660363
1.415293
1.263226
1.248788
1.243163
1.249163
1.340853
1.667113
1.667113
2.022437
2.405511
2.630143
2.664831
2.664831
2.664831
2.563953
2.288882
1.975185
1.975185
1.678739
1.415293
1.263601
1.245975
1.243351
1.247288
1.330353
1.619487
1.987936
1.987936
2.376822
2.626018
2.664644
2.664644
2.656394
2.55439
2.308946
1.989248
1.71024
1.71024
1.447544
1.269226
1.247288
1.242788
1.247101
1.338978
1.629237
1.976123
2.355447
2.355447
2.627143
2.664644
2.664644
2.665019
2.578954
2.319633
2.002749
1.703115
1.703115
1.455232
1.272601
1.247288
1.243351
1.245975
1.316478
1.608049
1.95981
2.344947
2.344947
2.602392
2.665019
2.664644
2.664831
2.576704
2.333321
2.016999
1.71774
1.455794
1.455794
1.273539
1.250476
1.242788
1.245413
1.29454
1.585548
1.938059
2.337071
2.60558
2.60558
2.665019
2.664831
2.664831
2.593579
2.361822
2.035937
1.73799
1.468732
1.279164
1.279164
1.248413
1.244288
1.2456
1.300352
1.55611
1.913871
2.303695
2.591142
2.591142
2.664831
2.664831
2.664831
2.585704
2.347009
2.029562
1.740803
1.456357
1.246726
1.2426
1.2426
1.2441
1.286852
1.524421
1.877495
2.241443
2.560578
2.665019
2.664644
2.665019
2.665019
2.592454
2.339696
2.033124
1.739491
1.473232
1.287414
1.247851
1.243163
1.243351
1.243351
1.280852
1.523296
1.893995
2.260569
2.551578
2.665019
2.664831
2.664831
2.664831
2.626768
2.396323
2.077939
1.785054
1.505296
1.299977
1.253101
1.243163
1.244475
1.244475
1.275601
1.521234
1.88462
2.270132
2.571078
2.664831
2.664831
2.664644
2.630518
2.630518
2.422574
2.103252
1.80118
1.522734
1.310477
1.251788
1.243163
1.244663
1.273164
1.273164
1.491233
1.853307
2.236193
2.557578
2.664831
2.664644
2.664831
2.631455
2.423887
2.423887
2.130252
1.837181
1.540735
1.325665
1.253851
1.244288
1.244475
1.285914
1.285914
1.493858
1.854432
2.206192
2.545953
2.665019
2.664644
2.664644
2.644018
2.457638
2.457638
2.145815
1.845994
1.563048
1.344604
1.254788
1.244475
1.2441
1.270351
1.47117
1.47117
1.846931
2.20038
2.52664
2.662394
2.664831
2.664831
2.640831
2.476576
2.176191
2.176191
1.864744
1.581236
1.354541
1.261913
1.244663
1.242975
1.256288
1.433669
1.803992
1.803992
2.171504
2.519889
2.665019
2.664831
2.665019
2.626018
2.344759
1.995061
1.600174
1.600174
1.319103
1.243538
1.240538
1.240538
1.240538
1.240725
1.241663
1.306727
1.306727
1.695802
2.095001
2.579141
2.664831
2.664644
2.625643
2.483513
2.209005
2.0575
2.0575
1.859869
1.73049
1.728428
1.678739
1.659613
1.774179
1.970498
2.300133
2.569016
2.569016
2.664644
2.664269
2.664081
2.664081
2.664456
2.642706
2.466825
2.123877
1.809055
1.809055
1.562298
1.334103
1.258913
1.247288
1.263414
1.410606
1.748303
2.085439
2.439637
2.439637
2.63108
2.665019
2.664831
2.632768
2.4537
2.147128
1.841119
1.55836
1.55836
1.332791
1.252163
1.242975
1.241475
1.246726
1.337478
1.665613
2.027312
2.389948
2.389948
2.629393
2.665019
2.664831
2.630705
2.442262
2.164566
1.836431
1.547297
1.317228
1.317228
1.246913
1.242225
1.242413
1.245413
1.315915
1.622675
2.003874
2.377948
2.62058
2.62058
2.665019
2.665019
2.61458
2.467013
2.178816
1.883495
1.568673
1.329603
1.249351
1.249351
1.242413
1.241288
1.246913
1.311228
1.6238
1.968623
2.347009
2.613642
2.665019
2.665019
2.664644
2.647206
2.482951
2.184817
1.881432
1.586298
1.361479
1.249538
1.249538
1.242975
1.241475
1.244288
1.302415
1.623987
1.970123
2.341384
2.587391
2.665019
2.665019
2.664831
2.639706
2.487826
2.198317
1.877495
1.594924
1.355479
1.252163
1.243538
1.243538
1.241288
1.2441
1.296602
1.593049
1.951935
2.339321
2.602579
2.664831
2.665019
2.665019
2.649831
2.509764
2.243318
1.905808
1.605799
1.355291
1.251601
1.243163
1.242225
1.242225
1.243163
1.283477
1.541484
1.921184
2.305195
2.582516
2.664831
2.664831
2.664831
2.632018
2.510889
2.231693
1.917621
1.611799
1.351729
1.250663
1.242788
1.2411
1.2411
1.242975
1.274664
1.524609
1.868119
2.255319
2.559641
2.665019
2.664644
2.642893
2.642893
2.494389
2.21163
1.89137
1.586298
1.346291
1.247663
1.242038
1.2411
1.241288
1.241288
1.256476
1.476045
1.81918
2.194379
2.488763
2.638581
2.665019
2.627892
2.464763
2.464763
2.167754
1.843181
1.54261
1.298665
1.244851
1.24185
1.240725
1.2411
1.247663
1.247663
1.409293
1.754679
2.14019
2.444512
2.590767
2.626768
2.594892
2.415636
2.415636
2.150878
1.812805
1.517484
1.283664
1.243538
1.240913
1.240725
1.240725
1.245413
1.245413
1.352104
1.718115
2.105127
2.437012
2.597142
2.662394
2.586079
2.437949
2.158003
2.158003
1.848619
1.557985
1.304477
1.245788
1.241288
1.240538
1.240725
1.248226
1.37648
1.37648
1.714365
2.098001
2.44245
2.618892
2.665206
2.635955
2.504514
2.230193
1.928684
1.928684
1.631487
1.375729
1.254601
1.242788
1.241288
1.241475
1.253663
1.445669
1.445669
1.80118
2.182942
2.498701
2.657331
2.665019
2.665019
2.585704
2.347009
2.039125
2.039125
1.745678
1.474545
1.286289
1.253476
1.242788
1.243538
1.272789
1.496483
1.866619
1.866619
2.258319
2.558516
2.664644
2.664831
2.664644
2.637455
2.437199
2.12144
1.817118
1.817118
1.534547
1.324353
1.253851
1.246163
1.244851
1.282539
1.494983
1.872995
2.249506
2.249506
2.565641
2.664831
2.664644
2.664831
2.63783
2.448262
2.14244
1.857994
1.857994
1.54936
1.325478
1.254226
1.244288
1.244288
1.284039
1.489545
1.849181
2.196255
2.196255
2.550078
2.664831
2.664644
2.664831
2.637081
2.454638
2.141878
1.846744
1.574486
1.574486
1.338978
1.254226
1.244851
1.243538
1.269039
1.476045
1.835681
2.186879
2.512952
2.512952
2.657706
2.664644
2.664644
2.644206
2.453512
2.148816
1.849369
1.56436
1.332228
1.332228
1.259101
1.243913
1.243538
1.260976
1.441731
1.799305
2.170379
2.509577
2.662206
2.662206
2.664644
2.664644
2.641018
2.481638
2.161378
1.845619
1.561923
1.338041
1.338041
1.253663
1.244851
1.243725
1.256663
1.399355
1.762741
2.135128
2.491576
2.653206
2.653206
2.664831
2.664644
2.645331
2.474888
2.177879
1.893433
1.576923
1.342728
1.253288
1.253288
1.243538
1.2426
1.258538
1.395793
1.748678
2.092564
2.472826
2.653394
2.664644
2.664644
2.665019
2.650581
2.482013
2.181817
1.875807
1.590799
1.356041
1.253851
1.245225
1.245225
1.2426
1.252351
1.390918
1.743428
2.092001
2.456325
2.630705
2.664831
2.664831
2.664644
2.655081
2.499264
2.204692
1.897745
1.597924
1.364292
1.260601
1.243913
1.243913
1.2426
1.251038
1.381355
1.719427
2.086001
2.453887
2.648331
2.664644
2.664644
2.664644
2.653769
2.523077
2.241631
1.921934
1.62905
1.378542
1.255913
1.244663
1.243351
1.243351
1.249913
1.347791
1.685301
2.057875
2.428762
2.637455
2.664831
2.664831
2.663706
2.663706
2.532827
2.250256
1.955872
1.638988
1.386605
1.257601
1.245038
1.2426
1.2426
1.252163
1.356604
1.681926
2.023374
2.413199
2.64008
2.664831
2.664831
2.664831
2.664831
2.54014
2.271257
1.948184
1.661676
1.411731
1.260226
1.245788
1.242788
1.248226
1.248226
1.346666
1.677239
2.022624
2.383573
2.61758
2.664831
2.664644
2.664831
2.553828
2.553828
2.287945
1.967123
1.670114
1.423731
1.263789
1.247101
1.242975
1.247851
1.336728
1.336728
1.650425
2.014561
2.38601
2.63108
2.665019
2.664644
2.664831
2.557953
2.291507
2.291507
1.95831
1.666926
1.411168
1.261351
1.245413
1.2441
1.245038
1.302227
1.302227
1.592111
1.967685
2.353759
2.61233
2.665019
2.664831
2.665019
2.560578
2.300695
2.300695
1.977998
1.676301
1.417356
1.260976
1.245038
1.242225
1.246726
1.303352
1.590986
1.590986
1.917434
2.310071
2.592079
2.664644
2.664831
2.665019
2.53789
2.257756
1.943872
1.943872
1.6508
1.38023
1.252726
1.243351
1.241288
1.242038
1.268851
1.514484
1.869807
1.869807
2.250631
2.552328
2.664831
2.664831
2.665019
2.54764
2.279132
1.969935
1.969935
1.682301
1.422981
1.263226
1.244851
1.242038
1.278789
1.530984
1.88837
2.273694
2.566578
2.566578
2.664831
2.664831
2.664831
2.576141
2.328259
2.003874
1.706865
1.436856
1.272601
1.272601
1.245975
1.242413
1.243725
1.277664
1.525172
1.885932
2.269757
2.570703
2.664831
2.664831
2.664831
2.665019
2.601079
2.341197
2.037062
1.741178
1.460107
1.279352
1.247476
1.247476
1.2426
1.243913
1.278227
1.520109
1.882933
2.256256
2.563391
2.664831
2.664644
2.664644
2.664831
2.608205
2.381135
2.062938
1.768366
1.479233
1.284977
1.248226
1.2426
1.2426
1.243351
1.272976
1.505858
1.867745
2.233756
2.533952
2.664831
2.664644
2.664644
2.665019
2.63333
2.407011
2.098189
1.793867
1.518609
1.311415
1.252163
1.242975
1.242975
1.243725
1.270539
1.496296
1.863619
2.250069
2.559078
2.664644
2.664644
2.664831
2.664831
2.631643
2.433262
2.103252
1.81468
1.527797
1.308227
1.249163
1.243725
1.241288
1.241288
1.244663
1.29604
1.608612
1.95606
2.270507
2.480888
2.515389
2.453325
2.28007
2.28007
1.963372
1.689427
1.469107
1.453732
1.385292
1.269789
1.243725
1.243163
1.243163
1.262851
1.55761
2.008936
2.488014
2.664269
2.663894
2.663706
2.663894
2.664081
2.664081
2.664644
2.568078
2.274257
1.96131
1.695427
1.495733
1.353791
1.29829
1.404418
1.404418
1.614987
1.947434
2.29732
2.585141
2.664831
2.664456
2.664831
2.634643
2.400823
2.400823
2.088626
1.768554
1.477545
1.281414
1.244663
1.241288
1.2411
1.246913
1.352666
1.352666
1.698052
2.060126
2.418824
2.637643
2.664831
2.664831
2.614017
2.37701
2.063313
2.063313
1.750554
1.461232
1.277476
1.244475
1.2411
1.2411
1.245038
1.323978
1.323978
1.659426
2.022999
2.386573
2.636706
2.665019
2.665019
2.606142
2.385448
2.082063
2.082063
1.782242
1.488045
1.285352
1.244663
1.241288
1.2411
1.244288
1.323978
1.64555
1.64555
2.000311
2.368947
2.634268
2.665206
2.665019
2.617017
2.405511
2.109064
1.800992
1.800992
1.504171
1.288352
1.245038
1.241663
1.2411
1.243538
1.302227
1.62905
1.983998
1.983998
2.353197
2.623018
2.664831
2.664831
2.629955
2.416761
2.125565
1.80643
1.80643
1.511484
1.29604
1.245975
1.241663
1.240913
1.243163
1.29829
1.607112
1.966185
1.966185
2.331446
2.598079
2.664831
2.664831
2.629018
2.424636
2.13419
1.824618
1.530422
1.530422
1.30354
1.2456
1.241663
1.2411
1.242788
1.287789
1.587048
1.937872
2.30782
2.30782
2.593392
2.664831
2.664831
2.624705
2.421074
2.12969
1.824618
1.531922
1.303915
1.303915
1.245225
1.241475
1.240913
1.242038
1.272789
1.547672
1.905058
2.270882
2.55214
2.55214
2.663331
2.665206
2.62733
2.409261
2.124815
1.804743
1.506046
1.287602
1.287602
1.243913
1.241288
1.240538
1.241475
1.256663
1.492358
1.845056
2.215568
2.524952
2.524952
2.627517
2.665206
2.601829
2.391635
2.099689
1.780179
1.469107
1.275789
1.242788
1.242788
1.240725
1.240538
1.240725
1.247101
1.410231
1.763304
2.146753
2.45895
2.601829
2.601829
2.596767
2.573704
2.349634
2.059563
1.730303
1.439481
1.259288
1.241663
1.240725
1.240725
1.240538
1.240725
1.244288
1.371979
1.71099
2.095939
2.414324
2.591516
2.594141
2.594141
2.571453
2.339509
2.0365
1.721678
1.433481
1.256288
1.24185
1.240538
1.240538
1.24035
1.240538
1.243725
1.364667
1.71099
2.095189
2.411886
2.598267
2.602392
2.602392
2.581204
2.374197
2.093502
1.775117
1.48992
1.276351
1.2426
1.240725
1.240538
1.240538
1.240725
1.245975
1.387355
1.749616
2.132503
2.4672
2.623205
2.665019
2.636518
2.636518
2.480701
2.20638
1.896245
1.609924
1.350791
1.251226
1.2426
1.2411
1.24185
1.24185
1.259101
1.476045
1.838681
2.230006
2.54089
2.665019
2.664831
2.665019
2.665019
2.562641
2.323758
2.011186
1.717177
1.437044
1.272039
1.246726
1.242225
1.242975
1.242975
1.275976
1.516171
1.887245
2.263944
2.577079
2.664831
2.664644
2.664644
2.61533
2.61533
2.37476
2.061063
1.768366
1.478858
1.291539
1.248788
1.242788
1.243163
1.274664
1.274664
1.507546
1.868307
2.245569
2.557016
2.664831
2.664644
2.664644
2.618517
2.393136
2.393136
2.073251
1.788055
1.497983
1.294165
1.248601
1.242788
1.243163
1.263976
1.464982
1.464982
1.830056
2.205817
2.53414
2.665019
2.664831
2.664644
2.61608
2.381135
2.381135
2.067063
1.767804
1.476983
1.289289
1.247476
1.242225
1.242225
1.257226
1.432919
1.432919
1.799305
2.167191
2.496826
2.665019
2.664644
2.665019
2.60858
2.381323
2.074751
2.074751
1.769866
1.481295
1.286289
1.247101
1.24185
1.242038
1.252538
1.407793
1.768742
1.768742
2.141503
2.475638
2.659206
2.665019
2.664831
2.606892
2.384698
2.084689
1.780929
1.780929
1.479233
1.285539
1.246163
1.24185
1.241663
1.250851
1.390355
1.751491
1.751491
2.110189
2.46645
2.652643
2.664831
2.664831
2.61683
2.388823
2.084876
1.79893
1.79893
1.503421
1.299602
1.247476
1.242038
1.241475
1.250101
1.375167
1.734053
2.096689
2.096689
2.448825
2.645518
2.664831
2.665019
2.633705
2.418261
2.115627
1.80793
1.517859
1.517859
1.305227
1.247851
1.242038
1.241475
1.249163
1.367479
1.710615
2.068563
2.428949
2.428949
2.641956
2.665019
2.664831
2.635393
2.432887
2.12894
1.824993
1.536234
1.536234
1.317415
1.248788
1.242225
1.241663
1.247851
1.347041
1.695427
2.051687
2.418636
2.418636
2.648143
2.664831
2.665019
2.646268
2.4567
2.156878
1.852182
1.55236
1.327541
1.327541
1.250288
1.242788
1.241475
1.247476
1.344229
1.676301
2.034437
2.407198
2.63783
2.63783
2.664831
2.664644
2.636893
2.477138
2.179004
1.873557
1.576361
1.343291
1.249726
1.249726
1.2426
1.241475
1.246726
1.332603
1.665613
2.023749
2.38376
2.628455
2.628455
2.664831
2.664644
2.645706
2.481826
2.192692
1.884433
1.590236
1.343291
1.252163
1.252163
1.243163
1.242038
1.245975
1.318915
1.645738
2.000499
2.372323
2.624143
2.665019
2.665019
2.664831
2.648518
2.501514
2.207505
1.899058
1.601861
1.355479
1.251038
1.243538
1.243538
1.241663
1.245038
1.306352
1.617987
1.971248
2.352447
2.613455
2.665019
2.664644
2.664644
2.654894
2.515952
2.232443
1.931309
1.629237
1.373104
1.252726
1.243725
1.24185
1.24185
1.246726
1.31329
1.599799
1.957935
2.348697
2.61608
2.665019
2.664644
2.664644
2.640268
2.505826
2.227005
1.915558
1.617987
1.371229
1.250476
1.243163
1.2411
1.2411
1.243163
1.285352
1.56811
1.907496
2.276695
2.575579
2.665019
2.664831
2.642706
2.642706
2.489326
2.20638
1.880495
1.587611
1.348916
1.252163
1.2441
1.241475
1.242975
1.242975
1.280289
1.55536
1.913496
2.299195
2.554765
2.661456
2.664831
2.660331
2.544828
2.544828
2.286257
1.949497
1.653988
1.394855
1.255351
1.244663
1.242788
1.243163
1.243163
1.273164
1.538297
1.896808
2.289445
2.575579
2.664831
2.664831
2.665019
2.548765
2.548765
2.281569
1.975373
1.674426
1.40798
1.259476
1.244475
1.24185
1.243913
1.276539
1.276539
1.864932
2.272194
2.568266
2.665019
2.664831
2.653956
2.545203
2.293945
1.981561
1.702177
1.702177
1.433669
1.261163
1.245413
1.241288
1.242788
1.277101
1.518046
1.862494
1.862494
2.230568
2.54464
2.665019
2.664831
2.664831
2.566766
2.312696
2.001436
1.701052
1.701052
1.430106
1.275976
1.245038
1.24185
1.2426
1.267539
1.491983
1.859869
2.230006
2.230006
2.535827
2.661644
2.664831
2.665019
2.588704
2.332571
2.022812
1.725615
1.454857
1.454857
1.278227
1.248601
1.242413
1.2426
1.259663
1.472295
1.838681
2.222693
2.554578
2.554578
2.664831
2.664831
2.664831
2.567891
2.261319
1.918934
1.548235
1.284039
1.284039
1.2426
1.240725
1.240725
1.240725
1.240538
1.247663
1.430856
1.833056
2.379447
2.379447
2.664831
2.664456
2.664644
2.615517
2.376635
2.089001
1.899058
1.743428
1.700114
1.700114
1.694864
1.604111
1.55236
1.6508
1.849369
2.186317
2.520639
2.664831
2.664456
2.664456
2.664269
2.664456
2.664644
2.591329
2.274819
1.948559
1.635612
1.37873
1.263601
1.263601
1.244475
1.243351
1.255913
1.405355
1.744928
2.095001
2.426699
2.60708
2.60708
2.665019
2.665019
2.560391
2.311196
2.006499
1.707802
1.419793
1.260976
1.242788
1.242788
1.2411
1.240725
1.245038
1.327165
1.671051
2.040812
2.390886
2.614767
2.664831
2.664831
2.665019
2.565266
2.319446
2.002561
1.710427
1.416418
1.260038
1.2426
1.240725
1.240725
1.240725
1.2441
1.312915
1.649113
2.019249
2.367635
2.611392
2.664831
2.664831
2.664831
2.561703
2.334259
2.029187
1.724678
1.437606
1.264164
1.243351
1.240913
1.2411
1.2411
1.244475
1.313853
1.651925
2.013811
2.36651
2.617955
2.665019
2.665019
2.665019
2.582516
2.352072
2.054125
1.743428
1.456732
1.270726
1.243725
1.241288
1.240913
1.240913
1.243538
1.303915
1.624737
1.983623
2.351509
2.582704
2.664081
2.664831
2.591516
2.591516
2.36501
2.062001
1.756179
1.467045
1.274851
1.243725
1.2411
1.240913
1.243163
1.243163
1.29529
1.631862
2.002749
2.379072
2.629393
2.665206
2.664831
2.633893
2.419761
2.419761
2.129877
1.831931
1.508484
1.290977
1.245413
1.241663
1.241288
1.246163
1.246163
1.29679
1.55761
1.961122
2.351509
2.611017
2.665019
2.665019
2.588517
2.408324
2.408324
2.119752
1.812805
1.541484
1.293414
1.245413
1.241475
1.240913
1.242788
1.289852
1.289852
1.593799
1.935434
2.258694
2.573891
2.665019
2.665019
2.606142
2.418636
2.112064
2.112064
1.788055
1.502108
1.289664
1.246163
1.242788
1.240725
1.24185
1.272601
1.545985
1.545985
1.901871
2.294508
2.55289
2.60783
2.63183
2.610267
2.399323
2.112252
1.817305
1.817305
1.483358
1.275414
1.2426
1.240913
1.240725
1.242413
1.254413
1.453544
1.453544
1.759741
2.21238
2.520077
2.616642
2.649643
2.582516
2.360697
2.058063
1.750178
1.750178
1.449044
1.265101
1.245225
1.240725
1.240913
1.240913
1.250476
1.445294
1.809618
1.809618
2.171691
2.475826
2.589079
2.655643
2.587204
2.373635
2.108502
1.776429
1.462732
1.462732
1.264914
1.242413
1.240913
1.240725
1.241663
1.247851
1.369354
1.779804
2.170004
2.170004
2.488014
2.607455
2.659394
2.579329
2.396136
2.127815
1.814868
1.526484
1.526484
1.31179
1.244851
1.241475
1.240725
1.241475
1.256476
1.48167
1.844494
2.211067
2.211067
2.478076
2.659394
2.665019
2.652831
2.532827
2.248569
1.921934
1.6313
1.385292
1.385292
1.254413
1.246163
1.2426
1.242788
1.261726
1.54561
1.903933
2.288882
2.583266
2.583266
2.665019
2.664831
2.665019
2.581579
2.330133
2.026187
1.737615
1.452607
1.272226
1.272226
1.246726
1.242413
1.244475
1.30504
1.566235
1.896245
2.238818
2.588892
2.588892
2.664644
2.664831
2.664831
2.600704
2.351322
2.035375
1.743053
1.472107
1.290039
1.290039
1.252163
1.242975
1.243538
1.289852
1.541297
1.893245
2.280257
2.585141
2.665019
2.665019
2.664644
2.665206
2.594517
2.368572
2.051312
1.737428
1.437231
1.274101
1.246538
1.246538
1.242225
1.243913
1.270539
1.460857
1.79218
2.226443
2.544265
2.665019
2.664831
2.664831
2.659206
2.556828
2.329946
2.018687
1.717552
1.456544
1.281789
1.245225
1.24185
1.24185
1.24185
1.257038
1.442669
1.813368
2.167754
2.452575
2.653394
2.664644
2.664644
2.665019
2.596204
2.342884
2.010436
1.697677
1.427294
1.265851
1.2441
1.242413
1.242413
1.242225
1.249351
1.38098
1.779617
2.151441
2.488201
2.658268
2.664831
2.639331
2.639331
2.576891
2.324321
2.016062
1.740428
1.452607
1.268476
1.244663
1.241288
1.241475
1.241475
1.253101
1.390167
1.740616
2.070438
2.443762
2.647768
2.665019
2.665019
2.565266
2.565266
2.335384
2.028062
1.721678
1.434044
1.268289
1.245038
1.241288
1.241288
1.241288
1.247663
1.362792
1.71924
2.087501
2.430262
2.643268
2.665019
2.665019
2.585891
2.585891
2.345321
2.041562
1.744178
1.45992
1.275976
1.244288
1.241288
1.2411
1.246726
1.246726
1.348729
1.700677
2.0635
2.412449
2.642518
2.665019
2.665019
2.592642
2.365572
2.365572
2.063313
1.757866
1.463857
1.276539
1.244475
1.241475
1.2411
1.245788
1.339353
1.339353
1.678176
2.041562
2.401386
2.64008
2.665019
2.664831
2.594141
2.381323
2.381323
2.074938
1.768554
1.484295
1.281602
1.244851
1.241288
1.2411
1.245038
1.330541
1.330541
1.665988
2.016062
2.385073
2.638018
2.665019
2.665019
2.617767
2.396136
2.096501
2.096501
1.781679
1.489545
1.288727
1.245413
1.241663
1.2411
1.244851
1.31704
1.647425
1.647425
2.006686
2.374197
2.62733
2.664831
2.665019
2.632955
2.417511
2.124627
1.80793
1.80793
1.520671
1.299415
1.246163
1.241663
1.2411
1.2441
1.30579
1.630737
1.994498
1.994498
2.359947
2.621143
2.664831
2.664831
2.635018
2.429887
2.137378
1.828181
1.828181
1.531172
1.30429
1.245788
1.24185
1.241288
1.243538
1.299977
1.610487
1.966373
1.966373
2.341197
2.614392
2.665019
2.665019
2.626018
2.443574
2.148441
1.839619
1.543547
1.543547
1.313665
1.247476
1.242038
1.241288
1.243538
1.29529
1.591174
1.944059
2.320196
2.320196
2.60633
2.665019
2.665019
2.639706
2.463075
2.174691
1.859682
1.560235
1.32304
1.32304
1.246538
1.24185
1.2411
1.242788
1.280852
1.56436
1.920621
2.30107
2.30107
2.566578
2.665019
2.664831
2.639893
2.46345
2.173379
1.857994
1.562673
1.323603
1.323603
1.246726
1.242038
1.2411
1.242413
1.273164
1.537922
1.896245
2.271632
2.554015
2.554015
2.665206
2.665019
2.63783
2.469263
2.176941
1.857432
1.564173
1.321353
1.245975
1.245975
1.241663
1.240725
1.242038
1.262664
1.491421
1.851244
2.230568
2.528702
2.652269
2.652269
2.665019
2.626393
2.47245
2.189504
1.88087
1.593236
1.337666
1.248601
1.242225
1.242225
1.240913
1.24185
1.263789
1.507171
1.865307
2.252694
2.554953
2.664831
2.664831
2.664831
2.653394
2.515952
2.229818
1.915746
1.620237
1.364104
1.251038
1.242788
1.242788
1.241288
1.24185
1.263976
1.504733
1.869995
2.252319
2.526827
2.664644
2.663331
2.561328
2.561328
2.281569
1.964685
1.660363
1.39748
1.257038
1.246163
1.242038
1.242788
1.267164
1.267164
1.510359
1.861932
2.253256
2.558516
2.664831
2.664831
2.665019
2.557578
2.300883
2.300883
2.000499
1.687739
1.409668
1.260788
1.244663
1.242038
1.243913
1.263976
1.456732
1.456732
1.839806
2.228506
2.52814
2.664831
2.664831
2.654144
2.557953
2.311196
2.311196
2.001061
1.721865
1.418856
1.262476
1.244663
1.241475
1.242038
1.265476
1.46967
1.46967
1.808118
2.182567
2.52964
2.665019
2.664831
2.664831
2.574079
2.299195
1.988686
1.988686
1.687551
1.428044
1.268664
1.2441
1.241663
1.241288
1.247476
1.346666
1.6508
1.6508
1.969748
2.229068
2.4492
2.460825
2.377198
2.141128
1.848056
1.47792
1.257226
1.257226
1.240913
1.240538
1.240538
1.240538
1.241288
1.251038
1.369729
1.756929
1.756929
2.134378
2.571641
2.664644
2.664644
2.664081
2.664269
2.664831
2.547078
2.240506
2.240506
1.939559
1.656426
1.462357
1.31929
1.29904
1.432731
1.653425
1.997123
2.339321
2.339321
2.602204
2.664644
2.664456
2.664644
2.63783
2.404761
2.060875
1.730115
1.432544
1.432544
1.265851
1.243538
1.2411
1.240913
1.2456
1.338978
1.688676
2.050188
2.400261
2.400261
2.623955
2.664831
2.665019
2.569766
2.318883
2.009686
1.698427
1.407605
1.407605
1.259101
1.2426
1.240913
1.240725
1.243725
1.320228
1.658676
2.015311
2.366885
2.366885
2.609517
2.665019
2.665206
2.574079
2.327134
2.019999
1.715115
1.420918
1.263414
1.263414
1.242975
1.24185
1.241288
1.244475
1.331853
1.684926
2.045687
2.412824
2.63558
2.63558
2.662581
2.665019
2.60783
2.391073
2.105502
1.768366
1.470232
1.281039
1.244475
1.244475
1.241475
1.24185
1.244663
1.30279
1.642925
2.025812
2.374573
2.63333
2.664644
2.664644
2.664831
2.589642
2.389948
2.086751
1.781867
1.514671
1.284414
1.244663
1.244663
1.241288
1.2411
1.244475
1.31704
1.631112
1.96206
2.365197
2.624705
2.665019
2.665019
2.664831
2.62133
2.400073
2.097064
1.794055
1.509233
1.296977
1.245225
1.24185
1.24185
1.241288
1.2441
1.304852
1.629612
1.988686
2.335196
2.604079
2.665019
2.664831
2.664831
2.62508
2.437012
2.105689
1.800242
1.504921
1.291727
1.2456
1.242975
1.2411
1.2411
1.243163
1.289664
1.595486
1.95906
2.343071
2.593204
2.635205
2.665019
2.665019
2.62883
2.419761
2.144315
1.808868
1.504733
1.287039
1.244288
1.241288
1.2411
1.2411
1.242413
1.266226
1.539047
1.911246
2.279695
2.559453
2.652831
2.655269
2.582516
2.582516
2.406449
2.121065
1.806993
1.523672
1.285164
1.244475
1.2411
1.240538
1.24185
1.24185
1.263976
1.491421
1.828181
2.227943
2.526077
2.631268
2.657519
2.585891
2.371385
2.371385
2.076813
1.761616
1.46742
1.276351
1.243351
1.240913
1.240538
1.240913
1.249351
1.249351
1.441356
1.798742
2.155566
2.462513
2.606892
2.657894
2.577266
2.38676
2.38676
2.076813
1.755804
1.463482
1.266976
1.2426
1.241475
1.240538
1.2411
1.247663
1.247663
1.416043
1.769866
2.164004
2.465513
2.581579
2.636143
2.588329
2.385448
2.119377
2.119377
1.790867
1.490108
1.276164
1.242788
1.240913
1.240725
1.241288
1.248601
1.414168
1.414168
1.795555
2.180317
2.497764
2.624143
2.662019
2.592267
2.453137
2.174691
1.871495
1.871495
1.596236
1.32229
1.248038
1.241663
1.240913
1.24185
1.267914
1.464982
1.464982
1.812243
2.212193
2.539015
2.665019
2.664831
2.656769
2.539015
2.262632
1.948934
1.948934
1.663926
1.413793
1.266039
1.244663
1.242038
1.242788
1.272789
1.525359
1.873557
1.873557
2.251756
2.542953
2.665019
2.664644
2.665019
2.569391
2.326759
2.012874
1.706115
1.706115
1.437231
1.269789
1.249351
1.241663
1.243538
1.274664
1.509796
1.86887
2.271069
2.271069
2.565641
2.664831
2.664831
2.664831
2.596204
2.347947
2.033312
1.719427
1.443794
1.443794
1.271476
1.2456
1.2426
1.2441
1.263039
1.451669
1.851807
2.230193
2.230193
2.54314
2.665019
2.665019
2.665019
2.598829
2.352447
2.043062
1.766304
1.453544
1.453544
1.276351
1.2456
1.24185
1.2426
1.271289
1.469857
1.808305
2.195692
2.53639
2.53639
2.665019
2.664644
2.664831
2.597892
2.361447
2.0515
1.754491
1.482983
1.293789
1.293789
1.246726
1.242225
1.242038
1.258726
1.439294
1.812993
2.166066
2.482388
2.664831
2.664831
2.665019
2.665019
2.602579
2.369885
2.057688
1.752991
1.477357
1.285539
1.285539
1.250476
1.242413
1.242038
1.253851
1.422606
1.782617
2.165316
2.503577
2.648331
2.648331
2.664831
2.664831
2.605955
2.380198
2.083376
1.761616
1.468732
1.283477
1.245975
1.245975
1.2426
1.242788
1.252351
1.365229
1.751491
2.12219
2.474138
2.653018
2.665019
2.665019
2.664831
2.61083
2.391448
2.086376
1.796867
1.496108
1.291539
1.245975
1.24185
1.24185
1.241663
1.250476
1.372917
1.727115
2.089376
2.444512
2.648893
2.664831
2.665019
2.665019
2.620955
2.398198
2.088814
1.787492
1.48917
1.284977
1.245413
1.24185
1.24185
1.241288
1.247288
1.346479
1.702177
2.062938
2.409636
2.641956
2.665019
2.664831
2.664831
2.626768
2.405136
2.097814
1.791992
1.497421
1.289852
1.245788
1.241475
1.241288
1.241288
1.245788
1.332603
1.677801
2.048312
2.403636
2.636518
2.664831
2.664831
2.637455
2.637455
2.424824
2.124815
1.81243
1.523296
1.30054
1.246913
1.242038
1.241288
1.246163
1.246163
1.326416
1.665238
2.025812
2.385073
2.635018
2.664831
2.664831
2.636143
2.636143
2.440012
2.137753
1.829118
1.539422
1.313478
1.247101
1.242038
1.241475
1.245038
1.245038
1.318353
1.637487
2.003311
2.372698
2.62508
2.665019
2.665019
2.63783
2.457075
2.457075
2.163628
1.855182
1.560235
1.322853
1.247288
1.242413
1.241288
1.244475
1.31179
1.31179
1.630362
1.983623
2.35976
2.62283
2.664831
2.664831
2.649831
2.473763
2.181442
2.181442
1.86737
1.57336
1.328103
1.248413
1.242225
1.241288
1.243913
1.298852
1.602986
1.602986
1.96206
2.344759
2.612517
2.664831
2.664644
2.649081
2.485013
2.191004
2.191004
1.878245
1.579173
1.342166
1.248601
1.242413
1.241288
1.243538
1.291914
1.583298
1.583298
1.936184
2.321321
2.598642
2.665019
2.664831
2.644393
2.501326
2.210692
1.892495
1.892495
1.593986
1.344229
1.249538
1.2426
1.241288
1.243351
1.282164
1.567173
1.922496
1.922496
2.30782
2.588892
2.664644
2.664831
2.651331
2.504139
2.210692
1.893995
1.597549
1.597549
1.341041
1.247851
1.2426
1.2411
1.2426
1.272601
1.531547
1.89587
1.89587
2.279882
2.574454
2.665019
2.664831
2.658831
2.534515
2.247444
1.923059
1.619112
1.619112
1.362604
1.251413
1.242975
1.241288
1.242413
1.267914
1.519546
1.87937
2.261132
2.261132
2.554015
2.665206
2.664831
2.656956
2.52439
2.237693
1.913683
1.608799
1.352104
1.352104
1.250101
1.2426
1.240913
1.241663
1.258163
1.475483
1.832681
2.21763
2.530765
2.530765
2.665019
2.665019
2.546703
2.269382
1.953997
1.6508
1.389417
1.258538
1.243725
1.243725
1.241475
1.242225
1.263976
1.481108
1.835868
2.230006
2.548578
2.664831
2.665019
2.665019
2.664831
2.566766
2.301633
1.989061
1.692052
1.416418
1.262664
1.244288
1.241663
1.241663
1.242038
1.260788
1.475857
1.840556
2.218755
2.53864
2.665019
2.664831
2.665019
2.665019
2.577829
2.323383
2.003874
1.706115
1.431231
1.266039
1.245038
1.24185
1.24185
1.242038
1.260788
1.470045
1.830056
2.212755
2.532265
2.664831
2.664831
2.664831
2.664831
2.598079
2.345696
2.031437
1.73049
1.449232
1.273164
1.245225
1.242038
1.242225
1.242225
1.259663
1.450732
1.815243
2.190817
2.523077
2.665019
2.665019
2.664831
2.601079
2.601079
2.360135
2.046813
1.751866
1.47042
1.276914
1.245788
1.241663
1.24185
1.257413
1.257413
1.439106
1.812243
2.194192
2.520827
2.665206
2.664831
2.664831
2.60558
2.366322
2.366322
2.054875
1.759929
1.47042
1.275976
1.243351
1.240725
1.24035
1.241288
1.241288
1.257976
1.502671
1.811493
2.108315
2.350384
2.403448
2.368947
2.148441
1.842431
1.842431
1.581236
1.343853
1.30129
1.270539
1.248601
1.241475
1.24185
1.260038
1.547485
1.547485
1.994873
2.452013
2.664644
2.663894
2.663894
2.663894
2.664269
2.664644
2.577266
2.577266
2.247256
1.911621
1.659426
1.467982
1.325665
1.275976
1.363542
1.585736
1.919121
1.919121
2.259256
2.569766
2.664831
2.664831
2.665019
2.629955
2.395948
2.083751
2.083751
1.771929
1.470607
1.275789
1.2441
1.2411
1.241288
1.245413
1.329603
1.673114
1.673114
2.0425
2.399511
2.636331
2.665019
2.664831
2.599392
2.365947
2.0575
1.746616
1.746616
1.450169
1.270164
1.243538
1.2411
1.240913
1.243725
1.302227
1.631112
1.992811
1.992811
2.352259
2.61608
2.665019
2.665206
2.605205
2.367635
2.060875
1.755241
1.46592
1.46592
1.271664
1.243538
1.2411
1.240913
1.242975
1.293414
1.608049
1.962997
2.333696
2.333696
2.611955
2.665019
2.664831
2.611017
2.385635
2.088814
1.771179
1.480358
1.480358
1.279914
1.243538
1.2411
1.240725
1.242413
1.280664
1.581986
1.938247
2.311008
2.311008
2.588142
2.665019
2.664831
2.617205
2.398011
2.098189
1.783554
1.485983
1.279539
1.279539
1.243913
1.240913
1.240725
1.242038
1.271851
1.559298
1.917621
2.284757
2.570703
2.570703
2.665019
2.665019
2.628268
2.405886
2.103439
1.79068
1.496483
1.283102
1.2441
1.2441
1.241288
1.240538
1.242038
1.266976
1.532672
1.893433
2.271819
2.544828
2.544828
2.660894
2.665206
2.627143
2.410011
2.120877
1.794805
1.498358
1.288727
1.243538
1.243538
1.241288
1.240725
1.241475
1.258913
1.496296
1.859682
2.244256
2.537327
2.642706
2.642706
2.665019
2.619642
2.409448
2.107564
1.79293
1.49292
1.280477
1.242975
1.2411
1.2411
1.240913
1.2411
1.251038
1.447357
1.798367
2.188004
2.502076
2.606142
2.665019
2.665019
2.591892
2.381885
2.079626
1.758991
1.461795
1.265664
1.242038
1.240725
1.24035
1.24035
1.240725
1.245413
1.388855
1.732553
2.116565
2.431199
2.604079
2.601267
2.601267
2.565266
2.331071
2.04175
1.721303
1.426919
1.256663
1.241288
1.240913
1.24035
1.24035
1.240538
1.242788
1.335603
1.672176
2.060313
2.37776
2.574829
2.618142
2.545578
2.545578
2.324508
2.036312
1.72299
1.422606
1.253851
1.241288
1.240538
1.240725
1.240538
1.240538
1.242413
1.325103
1.648925
2.04025
2.36276
2.579704
2.625643
2.570703
2.357135
2.357135
2.074188
1.761241
1.470607
1.263226
1.242038
1.240725
1.240538
1.240538
1.240538
1.243351
1.343104
1.685489
2.078314
2.410386
2.597517
2.653956
2.602954
2.456137
2.456137
2.173379
1.856307
1.571486
1.323978
1.246538
1.241475
1.240725
1.2411
1.248038
1.248038
1.405168
1.764616
2.152003
2.482201
2.652269
2.665019
2.662206
2.53864
2.276695
2.276695
1.962435
1.659426
1.400105
1.259663
1.243351
1.241288
1.241475
1.254788
1.439856
1.439856
1.798742
2.181817
2.511077
2.665019
2.664831
2.665019
2.589267
2.338384
2.338384
2.024874
1.727678
1.447544
1.269789
1.244663
1.241663
1.24185
1.254413
1.427481
1.427481
1.79443
2.167754
2.504326
2.665019
2.664831
2.665019
2.596392
2.346634
2.029749
2.029749
1.726365
1.449044
1.274476
1.2456
1.241663
1.24185
1.251788
1.404605
1.774554
1.774554
2.139065
2.489888
2.662019
2.664831
2.665019
2.596392
2.358634
2.048687
1.750178
1.750178
1.45992
1.275976
1.244851
1.241475
1.241475
1.249726
1.390355
1.744928
2.11094
2.11094
2.452575
2.650206
2.664831
2.664831
2.613267
2.369322
2.062188
1.759554
1.759554
1.463482
1.278414
1.244851
1.241475
1.241288
1.247851
1.361667
1.711927
2.076626
2.076626
2.433074
2.651706
2.664831
2.665019
2.618892
2.376822
2.068188
1.756741
1.468732
1.468732
1.281789
1.244663
1.241475
1.241288
1.245975
1.343666
1.689801
2.062001
2.412261
2.412261
2.642331
2.664644
2.664831
2.60783
2.386948
2.077751
1.760679
1.47942
1.284414
1.284414
1.244288
1.241288
1.2411
1.244851
1.324353
1.662426
2.033312
2.401386
2.401386
2.631643
2.664831
2.665019
2.62283
2.395386
2.091439
1.781492
1.496671
1.288164
1.288164
1.244475
1.241288
1.240913
1.244288
1.313102
1.649488
2.007999
2.371572
2.62808
2.62808
2.665019
2.664831
2.62208
2.400823
2.088814
1.788992
1.504171
1.293039
1.244851
1.244851
1.241475
1.240913
1.243725
1.306352
1.633362
1.991873
2.358822
2.624518
2.665019
2.665019
2.664831
2.633143
2.424449
2.13044
1.818056
1.524796
1.30204
1.2456
1.241663
1.241663
1.2411
1.243163
1.293789
1.610674
1.957747
2.329009
2.605955
2.664831
2.664831
2.665019
2.634455
2.457263
2.159691
1.835118
1.54411
1.313102
1.246538
1.24185
1.24185
1.240913
1.243538
1.293414
1.592861
1.955497
2.334259
2.608205
2.665019
2.665019
2.665019
2.635955
2.461388
2.168316
1.848056
1.559298
1.314228
1.246351
1.242038
1.240913
1.240913
1.243163
1.281227
1.56661
1.935997
2.309883
2.599767
2.665019
2.664644
2.649268
2.649268
2.485389
2.187817
1.877682
1.576736
1.331291
1.248601
1.242413
1.2411
1.2411
1.242413
1.279352
1.556485
1.913308
2.290007
2.569953
2.665019
2.665019
2.651518
2.651518
2.506951
2.20563
1.88537
1.588736
1.335416
1.248226
1.242413
1.2411
1.242413
1.242413
1.272976
1.536984
1.87637
2.272007
2.562453
2.664831
2.664831
2.648143
2.505451
2.505451
2.213505
1.895495
1.603736
1.353604
1.249538
1.242225
1.2411
1.24185
1.267726
1.267726
1.508671
1.870932
2.248569
2.556641
2.665019
2.665019
2.645331
2.506764
2.506764
2.221005
1.906558
1.615362
1.350229
1.249538
1.242413
1.241288
1.242038
1.256851
1.256851
1.46667
1.831556
2.221568
2.529265
2.665019
2.664831
2.657331
2.53039
2.243506
2.243506
1.916871
1.618924
1.349479
1.249913
1.242038
1.240913
1.241288
1.253476
1.432544
1.432544
1.800992
2.192504
2.508639
2.662206
2.664831
2.651518
2.516327
2.234693
1.908808
1.339728
1.339728
1.248413
1.242038
1.240725
1.240913
1.248601
1.402355
1.758991
2.143378
2.485576
2.485576
2.631643
2.664831
2.659769
2.53339
2.253069
1.943872
1.655676
1.380792
1.380792
1.255351
1.242788
1.2411
1.241288
1.250663
1.413231
1.776242
2.164941
2.490451
2.490451
2.661269
2.665019
2.665019
2.570703
2.29957
1.983998
1.678176
1.397293
1.258726
1.258726
1.243163
1.241288
1.241475
1.250288
1.399918
1.763491
2.138503
2.483326
2.656206
2.656206
2.665019
2.665019
2.577266
2.321133
2.009686
1.699927
1.419793
1.263414
1.243725
1.243725
1.2411
1.241288
1.250476
1.39373
1.746241
2.124253
2.466825
2.654894
2.654894
2.664831
2.664831
2.587391
2.337446
2.014187
1.719052
1.424668
1.265664
1.243913
1.243913
1.2411
1.241288
1.248038
1.369542
1.73199
2.102127
2.452575
2.650956
2.664831
2.664831
2.664831
2.587016
2.342696
2.033687
1.73574
1.455794
1.274664
1.244663
1.241288
1.241288
1.241288
1.248788
1.369729
1.71249
2.075313
2.422386
2.642893
2.665019
2.664831
2.664831
2.603704
2.36201
2.032
1.718302
1.416981
1.251976
1.2411
1.24035
1.240538
1.240538
1.240725
1.247663
1.404418
1.734428
2.063313
2.334821
2.457638
2.47395
2.47395
2.475263
2.460825
2.268819
1.917996
1.567735
1.318915
1.249726
1.248226
1.263039
1.263039
1.504921
1.88912
2.303695
2.589829
2.664831
2.664269
2.664081
2.664269
2.664456
2.664456
2.664081
2.500576
2.162128
1.812055
1.531734
1.326791
1.253851
1.247101
1.262851
1.262851
1.415481
1.758054
2.081126
2.405699
2.63183
2.665019
2.665019
2.593954
2.351509
2.351509
2.034812
1.72149
1.439481
1.262851
1.242975
1.240913
1.240725
1.242413
1.242413
1.275226
1.567923
1.923434
2.295633
2.566953
2.642706
2.665019
2.566766
2.330321
2.330321
2.038937
1.715302
1.428419
1.260601
1.242413
1.240538
1.240725
1.241475
1.264539
1.264539
1.531922
1.88762
2.257194
2.556453
2.636143
2.665206
2.579891
2.360884
2.054875
2.054875
1.743803
1.443982
1.266039
1.242413
1.240913
1.240538
1.241475
1.259476
1.507921
1.507921
1.87037
2.250818
2.544453
2.638018
2.665019
2.598079
2.37626
2.085064
1.756929
1.756929
1.465357
1.270539
1.242788
1.240913
1.24035
1.2411
1.254226
1.48392
1.48392
1.847494
2.223068
2.532452
2.629955
2.665206
2.596767
2.370072
2.079063
1.764616
1.764616
1.468545
1.269226
1.242225
1.240725
1.240538
1.2411
1.250851
1.453357
1.816368
1.816368
2.197942
2.517827
2.62208
2.665206
2.601267
2.37926
2.088439
1.768366
1.47042
1.47042
1.270914
1.242788
1.240725
1.240725
1.2411
1.248788
1.434231
1.784679
2.168691
2.168691
2.494014
2.595454
2.665019
2.586454
2.386198
2.092939
1.768929
1.47717
1.47717
1.269226
1.242413
1.240725
1.240538
1.240913
1.246163
1.398605
1.745491
2.124253
2.124253
2.44695
2.60558
2.633518
2.586266
2.375135
2.081313
1.755241
1.457107
1.261913
1.261913
1.242038
1.240538
1.240538
1.240725
1.243351
1.347416
1.685489
2.073438
2.392573
2.392573
2.595829
2.604455
2.563578
2.331259
2.03875
1.72074
1.416606
1.253476
1.241475
1.241475
1.240538
1.240538
1.24035
1.24185
1.300352
1.602424
1.986811
2.308758
2.521202
2.521202
2.579329
2.511827
2.287757
1.996561
1.669176
1.37798
1.247663
1.240725
1.240725
1.240538
1.240538
1.240725
1.240913
1.273164
1.541297
1.928684
2.257944
2.477326
2.477326
2.547078
2.492139
2.276132
1.991123
1.668051
1.374792
1.248226
1.240913
1.240538
1.240538
1.240725
1.240725
1.240913
1.269789
1.536234
1.922496
2.256819
2.504326
2.568641
2.568641
2.520264
2.314383
2.033499
1.723553
1.434794
1.256663
1.241663
1.24035
1.240725
1.240725
1.240538
1.241475
1.288727
1.597549
1.981935
2.325258
2.583266
2.606142
2.606142
2.604455
2.439075
2.166441
1.860244
1.561923
1.309165
1.245413
1.2411
1.240913
1.240913
1.240725
1.243913
1.335041
1.687176
2.069126
2.411511
2.632955
2.665019
2.659394
2.659394
2.54239
2.280257
1.973685
1.673114
1.394855
1.257413
1.242975
1.2411
1.240913
1.240913
1.247476
1.377229
1.739116
2.115814
2.453325
2.650206
2.664831
2.665019
2.587579
2.587579
2.341947
2.036312
1.728615
1.440419
1.268664
1.2441
1.241288
1.241288
1.247101
1.247101
1.367854
1.72599
2.093314
2.443949
2.651893
2.665019
2.664644
2.595642
2.595642
2.353384
2.038
1.728053
1.435544
1.265851
1.243725
1.2411
1.2411
1.245225
1.245225
1.338791
1.692802
2.056188
2.407948
2.63558
2.665206
2.665019
2.587766
2.346259
2.346259
2.031437
1.72299
1.437606
1.264539
1.243163
1.240913
1.2411
1.243725
1.310103
1.310103
1.64855
2.008936
2.361634
2.61308
2.665019
2.665206
2.592829
2.350197
2.032562
2.032562
1.721678
1.437231
1.265851
1.243163
1.240913
1.240725
1.2426
1.292852
1.292852
1.612737
1.976498
2.329946
2.589642
2.665019
2.664831
2.585704
2.349447
2.041375
2.041375
1.730303
1.434794
1.262851
1.2426
1.240913
1.240725
1.242413
1.279352
1.580298
1.580298
1.943872
2.30257
2.578766
2.665019
2.665019
2.587391
2.352072
2.046625
1.734053
1.734053
1.443044
1.265476
1.242975
1.240913
1.240538
1.242225
1.270914
1.561923
1.922684
1.922684
2.284945
2.564891
2.652081
2.665019
2.592829
2.370822
2.06725
1.755054
1.755054
1.461232
1.270914
1.243163
1.2411
1.240538
1.24185
1.270351
1.54786
1.906933
1.906933
2.278382
2.555703
2.656581
2.665019
2.61083
2.390886
2.087501
1.777367
1.483733
1.483733
1.276539
1.243351
1.2411
1.240725
1.241663
1.266601
1.533047
1.896058
2.272944
2.272944
2.556641
2.659394
2.664831
2.620393
2.410573
2.108877
1.792367
1.497421
1.284977
1.284977
1.243725
1.2411
1.240725
1.241663
1.262664
1.514109
1.870932
2.251569
2.544265
2.544265
2.654144
2.665019
2.632393
2.436637
2.135503
1.809805
1.511484
1.290789
1.290789
1.243913
1.241288
1.240725
1.241288
1.257601
1.48692
1.850681
2.240131
2.528702
2.528702
2.659769
2.665206
2.635018
2.44245
2.148066
1.825743
1.531547
1.296602
1.244288
1.244288
1.241288
1.240725
1.241288
1.255351
1.473045
1.834181
2.22288
2.524202
2.651706
2.651706
2.665019
2.635955
2.454825
2.165879
1.844869
1.548047
1.30579
1.244851
1.241475
1.241475
1.240725
1.2411
1.252913
1.446794
1.806243
2.192129
2.511077
2.648331
2.648331
2.664831
2.640455
2.471325
2.183317
1.860244
1.565298
1.313478
1.245413
1.241475
1.241475
1.240725
1.241288
1.251038
1.419793
1.775867
2.177879
2.501139
2.647956
2.665019
2.665019
2.643268
2.480138
2.195317
1.875432
1.576923
1.32154
1.246913
1.241663
1.240725
1.240725
1.240913
1.249351
1.410418
1.760116
2.14094
2.46795
2.622267
2.665019
2.632393
2.632393
2.460638
2.178629
1.861744
1.563423
1.306915
1.245038
1.2411
1.240725
1.240725
1.240725
1.244851
1.365417
1.71624
2.092939
2.423512
2.600517
2.665019
2.638956
2.638956
2.482576
2.20338
1.885745
1.589861
1.330541
1.241475
1.240913
1.240913
1.246538
1.370479
1.370479
1.72224
2.108127
2.4462
2.617955
2.665019
2.646081
2.521952
2.244819
1.928496
1.928496
1.621924
1.350416
1.249913
1.24185
1.240725
1.240913
1.245975
1.364104
1.364104
1.72149
2.098001
2.431387
2.622455
2.665206
2.654144
2.539202
2.267507
1.950997
1.950997
1.6463
1.365792
1.252726
1.242413
1.240913
1.240913
1.245975
1.356229
1.706677
1.706677
2.082814
2.424824
2.633143
2.665019
2.663331
2.551578
2.288132
1.974623
1.670301
1.670301
1.383605
1.255538
1.242788
1.240913
1.240725
1.244851
1.338978
1.691489
2.061438
2.061438
2.408886
2.632768
2.664831
2.662206
2.55439
2.303695
1.995998
1.680051
1.393917
1.393917
1.257601
1.242788
1.240913
1.240913
1.244475
1.330353
1.674051
2.037437
2.037437
2.392573
2.633143
2.665019
2.665019
2.555328
2.29282
1.976498
1.673864
1.381542
1.381542
1.252726
1.242038
1.240725
1.240538
1.24185
1.266039
1.507921
1.826681
2.13269
2.13269
2.406074
2.457638
2.407948
2.215193
1.917434
1.606362
1.31329
1.242038
1.240538
1.240538
1.240538
1.240725
1.242038
1.252163
1.337103
1.688864
2.065188
2.518014
2.664831
2.664831
2.664269
2.663894
2.664081
2.664644
2.594704
2.298258
1.990186
1.721678
1.721678
1.501171
1.336541
1.287977
1.379292
1.576923
1.89737
2.211442
2.533577
2.662769
2.662769
2.664831
2.664644
2.643831
2.424449
2.091439
1.739678
1.419981
1.257413
1.24185
1.24185
1.240725
1.24035
1.2411
1.260788
1.524984
1.886308
2.260944
2.556078
2.625643
2.625643
2.652831
2.565453
2.312508
2.008561
1.686051
1.392792
1.253663
1.241663
1.240538
1.240538
1.24035
1.2411
1.255726
1.49292
1.854244
2.224755
2.529452
2.604079
2.604079
2.630143
2.557391
2.312133
2.005186
1.696552
1.403668
1.255351
1.241475
1.240538
1.240538
1.240538
1.240913
1.253476
1.477733
1.839431
2.215755
2.526265
2.606142
2.645518
2.645518
2.569391
2.332946
2.042125
1.723178
1.425231
1.258913
1.241663
1.240725
1.240725
1.240725
1.241288
1.253288
1.471545
1.833993
2.20338
2.515952
2.603892
2.648706
2.578954
2.578954
2.351509
2.058625
1.73574
1.442294
1.260976
1.24185
1.240538
1.240538
1.240913
1.240913
1.249913
1.445294
1.804555
2.186129
2.503014
2.615892
2.658831
2.585704
2.585704
2.37251
2.072876
1.755804
1.459732
1.266039
1.242413
1.240725
1.240538
1.240913
1.240913
1.248788
1.432919
1.791617
2.171316
2.489138
2.60708
2.665206
2.586266
2.380385
2.380385
2.087126
1.767241
1.470607
1.269226
1.242225
1.240725
1.240538
1.240913
1.246351
1.246351
1.408918
1.764991
2.152191
2.468888
2.601642
2.622267
2.586079
2.384135
2.090689
2.090689
1.774179
1.479608
1.269789
1.242225
1.240725
1.240538
1.240725
1.244851
1.244851
1.369917
1.715302
2.100252
2.424074
2.61083
2.598454
2.578016
2.376635
2.081313
2.081313
1.756929
1.455982
1.260601
1.242038
1.240538
1.240538
1.240538
1.242413
1.326228
1.326228
1.64705
2.02825
2.359947
2.572766
2.618517
2.54764
2.330321
2.039312
1.715865
1.715865
1.427106
1.253851
1.241288
1.240538
1.240725
1.240538
1.241475
1.290414
1.586111
1.586111
1.967498
2.297508
2.524765
2.583454
2.524202
2.308946
2.025249
1.705739
1.400855
1.400855
1.249726
1.241288
1.240725
1.240538
1.240538
1.2411
1.280477
1.568485
1.568485
1.948184
2.282132
2.521952
2.586266
2.536765
2.338571
2.066688
1.741928
1.436106
1.436106
1.256663
1.241475
1.240538
1.240538
1.240538
1.241475
1.283289
1.589111
1.972185
1.972185
2.314196
2.579141
2.603142
2.600142
2.421824
2.150503
1.843931
1.536797
1.292289
1.292289
1.2441
1.240913
1.240725
1.240538
1.242975
1.31404
1.651175
2.033499
2.384885
2.384885
2.598454
2.665019
2.647393
2.520639
2.253256
1.945934
1.644988
1.368042
1.368042
1.251788
1.242413
1.240725
1.240913
1.245975
1.350604
1.71099
2.083938
2.425761
2.425761
2.646268
2.665019
2.665206
2.572579
2.321696
2.006874
1.703302
1.413231
1.261163
1.261163
1.243351
1.2411
1.240913
1.246351
1.351166
1.702364
2.073251
2.421074
2.646081
2.646081
2.665206
2.665019
2.587954
2.337634
2.024312
1.71999
1.428044
1.261539
1.243163
1.243163
1.2411
1.240913
1.244663
1.331291
1.676864
2.043437
2.397073
2.63408
2.665019
2.665019
2.665206
2.581579
2.347572
2.034812
1.727115
1.433106
1.265101
1.243163
1.243163
1.2411
1.240725
1.2441
1.31404
1.645738
2.008936
2.369697
2.624892
2.665019
2.665019
2.664831
2.599392
2.348509
2.041
1.73199
1.443044
1.267164
1.242788
1.240913
1.240913
1.240725
1.242975
1.301102
1.623237
1.979685
2.343446
2.594704
2.665019
2.665019
2.665019
2.586641
2.353572
2.047937
1.736303
1.441356
1.264539
1.242788
1.240913
1.240725
1.240725
1.2426
1.286289
1.596236
1.957935
2.327134
2.593392
2.665206
2.665019
2.665019
2.603329
2.372135
2.059563
1.747928
1.452982
1.269976
1.242975
1.2411
1.240538
1.240538
1.242225
1.275601
1.570735
1.936934
2.302383
2.578391
2.665019
2.664831
2.60633
2.60633
2.389948
2.092001
1.773054
1.475483
1.276726
1.243351
1.2411
1.240725
1.242038
1.242038
1.273351
1.557047
1.913496
2.290195
2.576704
2.665206
2.665019
2.62283
2.404948
2.404948
2.109064
1.794055
1.495171
1.283289
1.243913
1.241288
1.2411
1.242038
1.269601
1.269601
1.541484
1.89512
2.282882
2.563578
2.665206
2.665019
2.63108
2.423699
2.423699
2.133815
1.816555
1.523672
1.297352
1.244663
1.241288
1.240913
1.242038
1.267539
1.267539
1.524796
1.880682
2.260007
2.548953
2.665019
2.665019
2.63558
2.446387
2.150691
2.150691
1.831181
1.537547
1.30054
1.244663
1.241288
1.240913
1.241663
1.264914
1.508859
1.508859
1.866245
2.248756
2.542953
2.663331
2.665019
2.635393
2.4672
2.172817
1.849181
1.849181
1.54861
1.31104
1.246163
1.24185
1.240725
1.241475
1.259476
1.493858
1.493858
1.851244
2.232068
2.525327
2.665206
2.664831
2.642706
2.469638
2.181629
1.867932
1.867932
1.570735
1.318165
1.246163
1.241663
1.240725
1.241288
1.257788
1.461607
1.827431
1.827431
2.208817
2.515952
2.662206
2.664831
2.640268
2.483513
2.20113
1.88537
1.584423
1.584423
1.327165
1.246913
1.24185
1.240725
1.241288
1.253476
1.443419
1.80343
2.191004
2.191004
2.508452
2.660331
2.664831
2.641393
2.505639
2.219505
1.900371
1.598299
1.598299
1.336916
1.248413
1.24185
1.240913
1.2411
1.251038
1.426356
1.787492
2.172254
2.172254
2.493076
2.663894
2.665206
2.651331
2.522327
2.236568
1.909371
1.616487
1.345916
1.345916
1.248413
1.242038
1.240538
1.240913
1.248038
1.391855
1.762366
2.141503
2.474888
2.474888
2.646643
2.665019
2.656394
2.53639
2.254381
1.934497
1.63055
1.357729
1.251226
1.251226
1.242225
1.240913
1.240913
1.247101
1.373854
1.726928
2.111127
2.444325
2.444325
2.63258
2.665019
2.652081
2.529452
2.243318
1.918934
1.621737
1.344604
1.249163
1.249163
1.241663
1.240725
1.245225
1.342916
1.693177
2.074751
2.419949
2.627892
2.665206
2.658081
2.658081
2.536015
2.269944
1.957747
1.648925
1.370104
1.252538
1.242038
1.240913
1.240913
1.240913
1.246726
1.352854
1.704427
2.081876
2.426136
2.634643
2.664831
2.664831
2.564891
2.564891
2.30932
1.995998
1.691489
1.408543
1.258163
1.242788
1.2411
1.2411
1.245975
1.245975
1.345916
1.698239
2.072313
2.425574
2.644768
2.665019
2.665019
2.581766
2.581766
2.334071
2.017936
1.711552
1.421481
1.261913
1.243163
1.240913
1.240725
1.245225
1.245225
1.336916
1.692989
2.059
2.411324
2.638018
2.665019
2.664831
2.589079
2.343446
2.343446
2.041562
1.736303
1.445294
1.266976
1.243351
1.2411
1.240913
1.244475
1.331853
1.331853
1.677989
2.041562
2.406636
2.640268
2.665019
2.665019
2.614392
2.37776
2.071188
2.071188
1.762554
1.459357
1.272601
1.243351
1.2411
1.240913
1.244288
1.309915
1.651738
1.651738
2.015311
2.380573
2.631455
2.665206
2.665019
2.608392
2.37326
2.070626
2.070626
1.746991
1.419981
1.255538
1.241475
1.240725
1.24035
1.240538
1.2426
1.334478
1.334478
1.645363
2.000124
2.295445
2.411324
2.410573
2.207505
1.980998
1.715115
1.607862
1.607862
1.502296
1.322665
1.245788
1.241288
1.2411
1.258538
1.497796
1.95681
2.493451
2.493451
2.664644
2.664081
2.663706
2.663894
2.664269
2.664644
2.605017
2.266944
1.925871
1.925871
1.640863
1.380605
1.266601
1.246726
1.255726
1.376292
1.739678
2.131752
2.131752
2.52814
2.664644
2.664456
2.664456
2.664831
2.53939
2.196817
1.791805
1.421293
1.421293
1.248413
1.240538
1.240725
1.240538
1.240538
1.242225
1.416418
1.903371
2.457638
2.457638
2.663144
2.664269
2.664081
2.664456
2.645331
2.346259
1.886495
1.451107
1.247101
1.247101
1.240538
1.240725
1.240913
1.240725
1.240725
1.344791
1.869807
2.526827
2.664456
2.664456
2.663706
2.663706
2.663894
2.664269
2.54389
2.051687
1.564173
1.257413
1.257413
1.240725
1.240725
1.2411
1.2411
1.240538
1.336353
1.893245
2.563953
2.664081
2.664081
2.663706
2.663519
2.663519
2.664081
2.623018
2.188379
1.674614
1.288539
1.240913
1.240913
1.240725
1.2411
1.240725
1.240538
1.334291
1.903746
2.579141
2.663894
2.663331
2.663331
2.663144
2.663331
2.663894
2.656018
2.305008
1.763679
1.321728
1.241475
1.240725
1.240725
1.2411
1.2411
1.240538
1.328853
1.902058
2.588142
2.664081
2.663331
2.663144
2.663144
2.663331
2.663894
2.664644
2.393511
1.841494
1.381355
1.2426
1.240725
1.240725
1.240913
1.240913
1.240725
1.316103
1.871495
2.563953
2.664081
2.663144
2.663144
2.663144
2.663331
2.663706
2.664456
2.425761
1.885745
1.402168
1.243725
1.240538
1.240913
1.240913
1.240913
1.240725
1.295477
1.831556
2.536202
2.664269
2.663144
2.663144
2.663144
2.663144
2.663706
2.664456
2.445075
1.894183
1.403668
1.243725
1.240538
1.240913
1.240913
1.240913
1.240913
1.274101
1.768366
2.485389
2.664081
2.663519
2.663144
2.663331
2.663331
2.663519
2.664644
2.439825
1.887995
1.387355
1.242975
1.240725
1.2411
1.2411
1.2411
1.240725
1.250101
1.682489
2.422949
2.664269
2.663519
2.663144
2.663519
2.663706
2.663706
2.664456
2.426136
1.855182
1.374979
1.242225
1.240913
1.240913
1.241288
1.240725
1.240725
1.244475
1.615362
2.358072
2.664269
2.663331
2.663144
2.663144
2.663519
2.664456
2.664456
2.449575
1.89137
1.384355
1.242413
1.240725
1.2411
1.241288
1.240913
1.240913
1.242788
1.585361
2.331634
2.664456
2.663706
2.663144
2.663331
2.663706
2.664456
2.664456
2.509952
1.96356
1.447357
1.245225
1.240538
1.240913
1.2411
1.240913
1.243163
1.243163
1.600549
2.344947
2.664456
2.663331
2.662956
2.663144
2.663331
2.664081
2.596954
2.596954
2.108502
1.571298
1.260601
1.240725
1.240725
1.240913
1.240725
1.243913
1.644238
1.644238
2.37551
2.664456
2.663331
2.662956
2.662956
2.663331
2.664081
2.632393
2.217443
2.217443
1.692989
1.30429
1.241475
1.240725
1.240913
1.240538
1.245225
1.654551
1.654551
2.379822
2.664269
2.663331
2.663144
2.662769
2.663144
2.663894
2.652269
2.295445
2.295445
1.745678
1.327728
1.242038
1.240725
1.2411
1.240725
1.2441
1.628487
2.340071
2.340071
2.664269
2.663519
2.662956
2.662956
2.663331
2.663894
2.657331
2.324883
1.776054
1.776054
1.347791
1.242038
1.240538
1.240913
1.240538
1.242788
1.585923
2.296008
2.664456
2.664456
2.663519
2.662769
2.662769
2.663144
2.663706
2.657144
2.352447
1.79518
1.79518
1.358479
1.242225
1.240725
1.240913
1.240913
1.24185
1.534922
2.246131
2.664456
2.664456
2.663519
2.662956
2.662769
2.663144
2.663706
2.662206
2.382448
1.831181
1.373104
1.373104
1.2426
1.240725
1.240913
1.240725
1.241475
1.492546
2.194192
2.661081
2.663331
2.663331
2.663144
2.662956
2.663144
2.663706
2.664644
2.401011
1.838494
1.380792
1.242413
1.242413
1.240538
1.240913
1.240725
1.240913
1.453357
2.139065
2.656206
2.663519
2.662956
2.662956
2.662956
2.663144
2.663706
2.664456
2.424449
1.869432
1.396543
1.242975
1.242975
1.240725
1.240913
1.240725
1.240913
1.427669
2.089376
2.651893
2.663519
2.663144
2.663144
2.662956
2.663144
2.663519
2.664456
2.451262
1.895495
1.412106
1.243163
1.240725
1.240725
1.240913
1.240913
1.240725
1.394293
2.041937
2.641206
2.663706
2.662956
2.662769
2.662769
2.662956
2.663519
2.664269
2.479951
1.928121
1.435919
1.243913
1.240913
1.240725
1.240725
1.240725
1.240725
1.377042
2.009686
2.63183
2.663519
2.663144
2.662769
2.662769
2.663144
2.663519
2.664269
2.506764
1.96656
1.461232
1.246163
1.240725
1.240725
1.240725
1.240913
1.240538
1.350604
1.962435
2.614955
2.663894
2.662956
2.662769
2.662956
2.662956
2.663706
2.664269
2.525702
1.985311
1.478483
1.247101
1.240538
1.240725
1.2411
1.2411
1.24035
1.325478
1.918934
2.595454
2.663706
2.663331
2.662956
2.662956
2.663331
2.663331
2.664081
2.54839
2.02825
1.507546
1.249163
1.240913
1.240913
1.240913
1.240913
1.240538
1.309165
1.876745
2.571828
2.663894
2.663144
2.662956
2.662956
2.663331
2.663331
2.664269
2.562078
2.044
1.530422
1.252351
1.240913
1.240725
1.240725
1.240725
1.240725
1.284977
1.830431
2.54689
2.663894
2.663144
2.662769
2.662956
2.663331
2.664081
2.664081
2.584766
2.079626
1.549172
1.256663
1.240913
1.240725
1.240913
1.240725
1.269601
1.269601
1.789367
2.512389
2.664081
2.662956
2.662956
2.663144
2.663519
2.664081
2.601079
2.601079
2.118065
1.57336
1.260413
1.240913
1.240725
1.240913
1.240725
1.255913
1.255913
1.744178
2.476576
2.663894
2.662956
2.662956
2.662956
2.663331
2.664081
2.608767
2.608767
2.137565
1.597549
1.266601
1.240913
1.240725
1.2411
1.240725
1.249913
1.71399
1.71399
2.4462
2.664081
2.663144
2.662769
2.662956
2.663331
2.664081
2.615517
2.153316
2.153316
1.602986
1.268289
1.240913
1.240725
1.2411
1.240913
1.245225
2.397823
2.664269
2.664269
2.663144
2.662956
2.662956
2.663331
2.664081
2.620205
2.174316
1.626237
1.271476
1.271476
1.240913
1.240725
1.2411
1.240725
1.2426
1.603736
2.343446
2.664269
2.663144
2.663144
2.662956
2.663144
2.663331
2.664081
2.622267
2.176191
1.620049
1.269039
1.240725
1.240725
1.240725
1.2411
1.240725
1.24185
1.55461
2.288695
2.664456
2.663519
2.663519
2.662956
2.662956
2.663144
2.663894
2.641956
2.232631
1.677239
1.288164
1.240913
1.240913
1.240538
1.2411
1.240913
1.241475
1.535484
2.261319
2.664456
2.663331
2.662956
2.662956
2.662769
2.663144
2.663706
2.651518
2.274257
1.712115
1.304477
1.241288
1.240725
1.240725
1.2411
1.2411
1.241288
1.497421
2.213318
2.664644
2.663331
2.662769
2.662956
2.662956
2.663144
2.663519
2.656581
2.298258
1.731428
1.313478
1.241288
1.240725
1.240913
1.240913
1.240913
1.2411
1.457857
2.166816
2.661269
2.663331
2.662956
2.662769
2.662769
2.663144
2.663894
2.660706
2.335571
1.773429
1.330916
1.241475
1.240725
1.2411
1.2411
1.240725
1.240913
1.427669
2.114877
2.656206
2.663519
2.662956
2.662769
2.663144
2.663144
2.663706
2.662394
2.358634
1.79668
1.344604
1.241663
1.240725
1.240913
1.2411
1.2411
1.240725
1.375542
2.027312
2.638956
2.663519
2.662956
2.662956
2.663331
2.663706
2.663706
2.641393
2.188942
1.567923
1.246538
1.240725
1.2411
1.241663
1.241663
1.241663
1.241288
1.246163
1.595111
2.437387
2.664081
2.663331
2.662769
2.662956
2.663706
2.663706
2.664456
2.437762
1.990936
1.609737
1.320603
1.275039
1.247101
1.244475
1.326978
1.326978
1.798742
2.454262
2.664081
2.662956
2.662394
2.662394
2.662581
2.662956
2.663894
2.663894
2.606517
2.106439
1.580111
1.257601
1.240913
1.240725
1.240913
1.240725
1.32304
1.32304
1.887245
2.582891
2.663894
2.663144
2.663144
2.663144
2.663706
2.664456
2.386385
2.386385
1.820681
1.350041
1.241288
1.240725
1.2411
1.2411
1.240725
1.275601
1.275601
1.781867
2.540703
2.663894
2.663331
2.662956
2.663144
2.663894
2.664456
2.400823
2.400823
1.837368
1.346854
1.241288
1.240725
1.241288
1.241288
1.240913
1.263976
1.734803
1.734803
2.506576
2.664081
2.663331
2.663144
2.663144
2.663519
2.664269
2.436262
1.866057
1.866057
1.360729
1.24185
1.240725
1.240913
1.241288
1.240913
1.254976
1.682114
2.463825
2.463825
2.664081
2.663331
2.663144
2.663144
2.663706
2.664456
2.4537
1.888183
1.888183
1.377792
1.2426
1.240725
1.241288
1.241475
1.2411
1.247851
1.643488
2.441887
2.441887
2.664081
2.663331
2.663144
2.662956
2.663706
2.664269
2.486888
1.920996
1.400668
1.400668
1.2426
1.240725
1.2411
1.2411
1.240725
1.244288
1.605986
2.388448
2.664081
2.664081
2.663331
2.662956
2.662956
2.663706
2.664269
2.497576
1.938622
1.411543
1.243163
1.243163
1.240725
1.240913
1.241475
1.2411
1.242225
1.54711
2.329946
2.664081
2.664081
2.663519
2.663144
2.663144
2.663706
2.664269
2.516702
1.953247
1.422418
1.243725
1.243725
1.240725
1.240725
1.241288
1.2411
1.241475
1.505858
2.272569
2.664456
2.663519
2.663519
2.663144
2.663144
2.663519
2.664456
2.495139
1.924371
1.387167
1.242225
1.240913
1.240913
1.241288
1.241663
1.241288
1.240913
1.419606
2.159128
2.661081
2.663706
2.663331
2.663331
2.663144
2.663519
2.664456
2.475826
1.896058
1.362229
1.241475
1.240725
1.241288
1.241288
1.241663
1.241475
1.240913
1.357166
2.05225
2.647768
2.663706
2.663519
2.663519
2.663144
2.663706
2.664456
2.462888
1.89137
1.359416
1.241475
1.240913
1.241288
1.241288
1.24185
1.241288
1.240913
1.324915
1.986811
2.632018
2.663894
2.663331
2.663144
2.663144
2.663519
2.664456
2.497014
1.924184
1.38323
1.241663
1.240913
1.241288
1.24185
1.24185
1.241475
1.240913
1.317603
1.961122
2.624705
2.663894
2.663144
2.663331
2.663706
2.663706
2.664269
2.544453
1.994498
1.438356
1.243163
1.240538
1.2411
1.241475
1.241475
1.241288
1.240725
1.339728
1.987936
2.63183
2.663706
2.663144
2.663144
2.663331
2.663331
2.664269
2.611767
2.13719
1.574298
1.254038
1.240538
1.240913
1.241288
1.241288
1.241288
1.240725
1.358479
2.012124
2.641206
2.663519
2.663331
2.662956
2.663519
2.664081
2.664081
2.644393
2.238256
1.669738
1.278602
1.240913
1.240725
1.2411
1.2411
1.240725
1.240725
1.355854
1.993936
2.637268
2.663706
2.663144
2.662956
2.663331
2.664081
2.655456
2.655456
2.291882
1.715677
1.293414
1.240725
1.240725
1.241288
1.241288
1.240725
1.240725
1.330166
1.941997
2.622267
2.663706
2.663144
2.662956
2.663331
2.663706
2.660519
2.660519
2.307633
1.728615
1.300352
1.240725
1.240913
1.241288
1.241288
1.240725
1.312165
1.312165
1.88837
2.593954
2.663706
2.663144
2.662956
2.663144
2.663706
2.660331
2.320758
2.320758
1.739678
1.302977
1.240725
1.240913
1.241288
1.241288
1.240913
1.287977
1.819743
1.819743
2.569766
2.663894
2.663331
2.662956
2.662956
2.663706
2.662206
2.354509
2.354509
1.770429
1.31179
1.2411
1.240725
1.2411
1.2411
1.240725
1.274289
1.778304
1.778304
2.541453
2.664081
2.663331
2.662956
2.663331
2.663706
2.664456
2.369697
1.793305
1.793305
1.319853
1.240913
1.240725
1.241288
1.241288
1.240725
1.260413
1.718678
2.502264
2.502264
2.664081
2.663331
2.663331
2.663144
2.663706
2.664644
2.387885
1.820118
1.334853
1.334853
1.241288
1.240725
1.2411
1.241475
1.2411
1.254413
1.688302
2.476951
2.663894
2.663894
2.663331
2.662956
2.663144
2.663706
2.664456
2.425011
1.859494
1.361479
1.361479
1.241663
1.240725
1.241288
1.241475
1.240913
1.248413
1.645175
2.446012
2.664269
2.664269
2.663144
2.663144
2.663144
2.663706
2.664456
2.46045
1.899245
1.375917
1.242413
1.242413
1.240725
1.2411
1.241288
1.240913
1.244663
1.606362
2.407011
2.664456
2.663331
2.663331
2.663144
2.662956
2.663706
2.664456
2.489513
1.929809
1.395793
1.242788
1.240725
1.240725
1.2411
1.241288
1.2411
1.2426
1.578798
2.37101
2.664456
2.663331
2.663331
2.663144
2.663144
2.663519
2.664269
2.518577
1.957372
1.416981
1.243725
1.240725
1.240725
1.2411
1.241288
1.2411
1.241663
1.532297
2.314758
2.664269
2.663519
2.663144
2.663144
2.663144
2.663519
2.664269
2.538265
1.996936
1.441544
1.244663
1.240725
1.241288
1.241288
1.241475
1.2411
1.2411
1.48767
2.260007
2.664456
2.663519
2.662956
2.663144
2.663144
2.663519
2.664081
2.557016
2.013811
1.468357
1.2456
1.240725
1.2411
1.2411
1.241475
1.2411
1.240725
1.464045
2.21088
2.664644
2.663331
2.663144
2.662956
2.662956
2.663331
2.664269
2.574266
2.054125
1.499858
1.246913
1.240913
1.241288
1.241288
1.241288
1.240913
1.240725
1.421668
2.157816
2.661456
2.663519
2.663144
2.663144
2.663331
2.663331
2.664081
2.587016
2.073063
1.517296
1.248976
1.240538
1.240725
1.241475
1.2411
1.2411
1.240725
1.400105
2.092001
2.663519
2.662956
2.663144
2.663519
2.664081
2.599579
2.098377
2.098377
1.523484
1.248788
1.240725
1.2411
1.241288
1.241288
1.240538
1.356229
1.356229
2.022812
2.641018
2.663519
2.662956
2.663144
2.663519
2.664081
2.595267
2.082063
2.082063
1.512046
1.247663
1.240725
1.2411
1.241475
1.2411
1.240538
1.335041
1.97856
1.97856
2.635768
2.663706
2.663144
2.663144
2.663519
2.664081
2.621518
2.152753
1.581798
1.581798
1.254226
1.240538
1.240913
1.241288
1.241475
1.240725
1.322853
1.939184
2.62208
2.62208
2.663894
2.663144
2.663144
2.663331
2.663894
2.639518
2.196817
1.626237
1.264726
1.264726
1.240725
1.2411
1.241288
1.241288
1.240538
1.309165
1.905996
2.61233
2.61233
2.663894
2.663331
2.662956
2.663331
2.663706
2.648143
2.242006
1.654363
1.269976
1.269976
1.240538
1.240913
1.2411
1.241288
1.240913
1.296602
1.867932
2.592267
2.663706
2.663706
2.663331
2.662956
2.663331
2.663894
2.653581
2.251381
1.672739
1.276164
1.240538
1.240538
1.2411
1.241288
1.241288
1.240913
1.276914
1.807555
2.566578
2.663894
2.663144
2.663144
2.662956
2.663144
2.663894
2.655081
2.294132
1.718865
1.290602
1.240538
1.240538
1.240913
1.241288
1.241288
1.240913
1.264539
1.746991
2.535265
2.663894
2.663331
2.663331
2.663144
2.663144
2.663894
2.638956
2.155753
1.525921
1.244663
1.240913
1.241475
1.241475
1.24185
1.24185
1.241475
1.2411
1.443794
2.297883
2.664081
2.662956
2.662956
2.662956
2.662956
2.663519
2.664269
2.437949
1.963185
1.568485
1.329041
1.262851
1.242788
1.242788
1.240538
1.243351
1.444357
2.087876
2.646456
2.663519
2.662769
2.662769
2.662769
2.662769
2.663144
2.664081
2.567891
2.025062
1.472107
1.244663
1.240725
1.2411
1.2411
1.241288
1.240913
1.246163
1.608612
2.407761
2.664456
2.663519
2.663144
2.663144
2.663144
2.663894
2.662956
2.342509
1.756366
1.296602
1.240913
1.240913
1.241288
1.241663
1.241663
1.240913
1.242038
1.505671
2.321696
2.664269
2.663519
2.663331
2.663331
2.663894
2.663894
2.664831
2.347572
1.760679
1.30129
1.240913
1.240913
1.241288
1.241663
1.2411
1.2411
1.241475
1.481108
2.281945
2.664456
2.663519
2.663331
2.663331
2.663706
2.663706
2.664456
2.390511
1.810555
1.316478
1.2411
1.2411
1.241288
1.241663
1.241288
1.241288
1.240913
1.443044
2.230193
2.664456
2.663519
2.663144
2.663331
2.663706
2.664456
2.664456
2.414324
1.840181
1.334853
1.241288
1.240913
1.241475
1.241663
1.241475
1.240725
1.240725
1.40048
2.152378
2.657331
2.663519
2.663519
2.663144
2.663706
2.664456
2.430637
2.430637
1.857432
1.347979
1.241475
1.240913
1.241288
1.241663
1.241288
1.240725
1.240725
1.376667
2.109627
2.654894
2.663706
2.663331
2.663331
2.663706
2.664456
2.457263
2.457263
1.88612
1.352479
1.241288
1.240913
1.241475
1.241663
1.241475
1.240725
1.345541
1.345541
2.037437
2.646456
2.663706
2.663144
2.663331
2.663706
2.664456
2.471888
1.884433
1.884433
1.355104
1.241288
1.240913
1.241288
1.24185
1.241475
1.240913
1.308977
1.957747
1.957747
2.623018
2.663519
2.663519
2.663331
2.663706
2.664644
2.46495
1.88012
1.353041
1.353041
1.241288
1.2411
1.241475
1.24185
1.241475
1.2411
1.278789
1.866245
1.866245
2.588892
2.663894
2.663519
2.663331
2.663706
2.664456
2.443574
1.855369
1.332041
1.332041
1.240913
1.240913
1.241475
1.241663
1.241663
1.2411
1.254788
1.766866
2.542578
2.542578
2.664081
2.663519
2.663331
2.663894
2.664644
2.426136
1.826306
1.316103
1.240913
1.240913
1.2411
1.241663
1.242038
1.24185
1.2411
1.248788
1.700114
2.510327
2.664081
2.664081
2.663331
2.663519
2.663894
2.664456
2.4537
1.863619
1.334853
1.240913
1.240913
1.2411
1.241288
1.24185
1.24185
1.241288
1.245788
1.664113
2.489888
2.664269
2.664269
2.663519
2.663519
2.663706
2.664269
2.518202
1.941434
1.392792
1.24185
1.240725
1.240725
1.241475
1.24185
1.241663
1.241288
1.251226
1.71249
2.517827
2.664081
2.663519
2.663519
2.663331
2.663331
2.664269
2.603142
2.102502
1.532484
1.247101
1.240725
1.2411
1.2411
1.241475
1.241663
1.240913
1.260976
1.756554
2.545578
2.663894
2.663144
2.663144
2.663144
2.663331
2.663894
2.644206
2.222693
1.642925
1.265101
1.240913
1.2411
1.2411
1.241288
1.241475
1.240913
1.262851
1.752428
2.539577
2.663894
2.663331
2.662956
2.662956
2.663331
2.663894
2.654331
2.268444
1.685864
1.274664
1.240725
1.240913
1.241288
1.241288
1.241475
1.2411
1.253476
1.700114
2.507514
2.664081
2.663519
2.662956
2.663519
2.663519
2.663894
2.654894
2.283445
1.702364
1.279352
1.240725
1.240913
1.241288
1.241475
1.241475
1.240913
1.247101
1.6298
2.456512
2.664269
2.663519
2.663144
2.663144
2.663144
2.663706
2.658081
2.294132
1.70874
1.279539
1.240725
1.2411
1.241288
1.241663
1.241663
1.2411
1.2441
1.578986
2.409636
2.664269
2.663331
2.663331
2.663331
2.663706
2.663706
2.659206
2.308946
1.721115
1.282164
1.240913
1.240913
1.241475
1.241663
1.241288
1.241288
1.2426
1.523859
2.347759
2.664456
2.663519
2.663331
2.663331
2.663706
2.662394
2.662394
2.326946
1.749241
1.293977
1.240913
1.240725
1.241475
1.241475
1.241288
1.241288
1.241663
1.489545
2.302383
2.664456
2.663519
2.663144
2.663144
2.663894
2.664644
2.664644
2.361634
1.774554
1.301852
1.240913
1.240913
1.241475
1.241663
1.241288
1.241288
1.241288
1.462357
2.264132
2.664456
2.663331
2.663331
2.663331
2.663894
2.664644
2.407761
2.407761
1.818431
1.32529
1.2411
1.240913
1.241288
1.241663
1.241288
1.240913
1.431606
1.431606
2.213505
2.664269
2.663519
2.663144
2.663331
2.663706
2.664644
2.441512
2.441512
1.857994
1.343104
1.241475
1.240538
1.241475
1.241475
1.241288
1.2411
1.404605
1.404605
2.166816
2.658081
2.663519
2.663144
2.662956
2.663519
2.664456
2.469075
1.887808
1.887808
1.363354
1.241663
1.240913
1.241288
1.241475
1.241475
1.240725
1.381542
2.116002
2.116002
2.656394
2.663331
2.663331
2.663144
2.663706
2.664456
2.483701
1.912371
1.37948
1.37948
1.242038
1.240913
1.241288
1.241663
1.241288
1.240538
1.359041
2.062376
2.653206
2.653206
2.663519
2.663144
2.663144
2.663519
2.664081
2.520639
1.963747
1.408168
1.408168
1.242225
1.240725
1.241475
1.241663
1.241288
1.240725
1.341228
2.015874
2.643456
2.643456
2.663706
2.663144
2.663144
2.663519
2.664081
2.53714
1.986436
1.427294
1.2426
1.2426
1.240725
1.2411
1.241475
1.241288
1.240725
1.319478
1.966373
2.630518
2.663894
2.663894
2.663331
2.663144
2.663706
2.664269
2.558891
2.023937
1.456919
1.243725
1.240725
1.240725
1.241475
1.241475
1.241475
1.240725
1.293414
1.896808
2.607642
2.663894
2.663894
2.663519
2.663519
2.663519
2.664081
2.557766
2.008936
1.446044
1.243351
1.240725
1.240725
1.241288
1.241663
1.241475
1.240913
1.273539
1.824806
2.579516
2.663894
2.663144
2.663144
2.663331
2.664269
2.586079
2.055813
1.485983
1.244663
1.240913
1.241288
1.241475
1.241475
1.241475
1.2411
1.268476
1.806993
2.575204
2.664081
2.663331
2.663331
2.663331
2.663331
2.664081
2.60933
2.110564
1.535672
1.247663
1.240725
1.2411
1.241663
1.241475
1.241475
1.2411
1.260976
1.757116
2.546703
2.664081
2.663519
2.663144
2.663331
2.663894
2.663894
2.625643
2.151816
1.57111
1.250476
1.240725
1.2411
1.241663
1.241288
1.2411
1.2411
1.254226
1.718115
2.523827
2.664081
2.663519
2.663144
2.663519
2.664081
2.635393
2.635393
2.176004
1.599799
1.254038
1.240725
1.2411
1.241475
1.241663
1.2411
1.2411
1.249163
1.665051
2.488951
2.663894
2.663331
2.663331
2.663331
2.663894
2.644018
2.644018
2.20488
1.625675
1.258538
1.240538
1.2411
1.241663
1.241475
1.2411
1.246726
1.246726
1.631487
2.463263
2.664269
2.663331
2.663331
2.663331
2.663894
2.649268
2.222693
2.222693
1.6373
1.261163
1.240725
1.2411
1.241663
1.241663
1.241288
1.2411
1.408355
1.408355
2.210505
2.656581
2.663894
2.663519
2.663894
2.664644
2.465138
1.829493
1.829493
1.341978
1.2411
1.240538
1.240538
1.2411
1.241663
1.2411
1.247663
1.698989
1.698989
2.514639
2.663706
2.662769
2.662581
2.662581
2.663331
2.663894
2.644581
2.229068
2.229068
1.689052
1.287414
1.241288
1.240725
1.2411
1.240725
1.261351
1.697677
2.463075
2.463075
2.664081
2.663331
2.663144
2.663331
2.663706
2.660706
2.298633
1.693552
1.268476
1.268476
1.240725
1.2411
1.241663
1.24185
1.241475
1.2411
1.416981
2.215193
2.663706
2.663706
2.663706
2.663519
2.663331
2.663894
2.653956
2.278944
1.686051
1.266226
1.266226
1.240725
1.240913
1.241475
1.24185
1.241663
1.240913
1.377042
2.144878
2.656581
2.656581
2.663706
2.663331
2.663331
2.663894
2.657519
2.312696
1.719615
1.278039
1.240725
1.240725
1.241288
1.241288
1.241663
1.241475
1.240913
1.358292
2.098564
2.653394
2.663894
2.663894
2.663519
2.663519
2.663706
2.664644
2.354322
1.758804
1.291352
1.240725
1.2411
1.2411
1.241663
1.24185
1.241288
1.240538
1.336916
2.04625
2.640643
2.663519
2.663331
2.663331
2.663144
2.663706
2.664644
2.377573
1.786367
1.303165
1.240725
1.2411
1.2411
1.241475
1.24185
1.241663
1.240725
1.313853
1.988123
2.635955
2.663706
2.663331
2.663331
2.663331
2.663706
2.664456
2.408324
1.816555
1.315728
1.240913
1.240913
1.241288
1.241288
1.24185
1.241475
1.240725
1.296414
1.932059
2.618892
2.663894
2.663331
2.663331
2.663331
2.663706
2.664456
2.430449
1.836056
1.324165
1.2411
1.2411
1.241475
1.24185
1.24185
1.241663
1.2411
1.280289
1.880495
2.601079
2.663894
2.663706
2.663331
2.663331
2.663706
2.664456
2.447325
1.855182
1.334103
1.240913
1.2411
1.241475
1.24185
1.24185
1.241663
1.2411
1.261913
1.80493
2.569391
2.663706
2.663331
2.663519
2.663706
2.663706
2.664456
2.445075
1.847306
1.328103
1.240913
1.2411
1.241475
1.24185
1.242038
1.242038
1.2411
1.248976
1.704615
2.506576
2.664081
2.663519
2.663331
2.663706
2.664644
2.664644
2.429887
1.824618
1.317603
1.240913
1.2411
1.241475
1.242225
1.242038
1.242038
1.241288
1.2441
1.626612
2.457263
2.664269
2.663706
2.663331
2.663706
2.664456
2.664456
2.430074
1.835306
1.32229
1.240725
1.2411
1.241663
1.242038
1.242038
1.241288
1.241288
1.242788
1.584048
2.426324
2.664269
2.663519
2.663519
2.663894
2.664644
2.475075
2.475075
1.879745
1.349666
1.240913
1.240913
1.241475
1.24185
1.24185
1.241475
1.242788
1.242788
1.573173
2.423887
2.664269
2.663331
2.663144
2.663519
2.664456
2.557766
1.998999
1.998999
1.432169
1.242413
1.240913
1.241288
1.24185
1.241663
1.241288
1.244851
1.244851
1.617424
2.457075
2.664269
2.663519
2.663144
2.663331
2.664081
2.613455
2.115252
2.115252
1.534172
1.246351
1.240725
1.241288
1.241663
1.241663
1.2411
1.2456
1.624737
1.624737
2.460825
2.664269
2.663331
2.663144
2.663519
2.664081
2.642518
2.186317
1.606362
1.606362
1.254038
1.240725
1.2411
1.241475
1.241663
1.2411
1.244288
1.584798
2.419011
2.419011
2.664269
2.663331
2.663144
2.663331
2.663894
2.644393
2.21613
1.635425
1.635425
1.257976
1.240538
1.241288
1.241475
1.24185
1.241288
1.2426
1.534359
2.371572
2.371572
2.664456
2.663519
2.663144
2.663519
2.663894
2.649643
2.226068
1.6373
1.257976
1.257976
1.240538
1.2411
1.241475
1.241663
1.2411
1.24185
1.485983
2.312133
2.664456
2.664456
2.663519
2.663519
2.663519
2.663894
2.653018
2.254944
1.673676
1.263789
1.240913
1.240913
1.240913
1.241475
1.24185
1.241288
1.2411
1.438544
2.254944
2.664456
2.664456
2.663706
2.663331
2.663331
2.663894
2.657331
2.271632
1.678551
1.266976
1.240725
1.240725
1.240913
1.241475
1.24185
1.241475
1.2411
1.412481
2.198692
2.659206
2.663706
2.663706
2.663519
2.663331
2.663894
2.658081
2.301258
1.703864
1.272976
1.240913
1.2411
1.2411
1.241663
1.24185
1.241475
1.240725
1.391667
2.153691
2.654706
2.663706
2.663331
2.663331
2.663144
2.663519
2.664831
2.346259
1.750178
1.291539
1.240913
1.2411
1.241475
1.241475
1.241663
1.241288
1.240725
1.367667
2.104752
2.653018
2.663706
2.663331
2.663331
2.663331
2.663706
2.664644
2.388823
1.800242
1.30954
1.240913
1.2411
1.241475
1.241475
1.24185
1.241475
1.240913
1.349854
2.062938
2.649456
2.663706
2.663331
2.663331
2.663331
2.663894
2.664456
2.412074
1.81768
1.321165
1.2411
1.2411
1.241475
1.24185
1.24185
1.241663
1.240725
1.327916
2.012499
2.639518
2.663706
2.663331
2.663144
2.663894
2.663894
2.664269
2.456137
1.867745
1.346104
1.241288
1.240913
1.241475
1.241663
1.241663
1.241475
1.240725
1.305415
1.960935
2.62808
2.663519
2.663519
2.663331
2.663519
2.663519
2.664644
2.482576
1.897933
1.360916
1.241288
1.240913
1.241288
1.24185
1.241663
1.241663
1.240913
1.295477
1.906558
2.608955
2.663894
2.663519
2.663331
2.663519
2.664644
2.664644
2.497951
1.918371
1.379105
1.241663
1.240913
1.241288
1.241663
1.241475
1.240913
1.240913
1.279727
1.858932
2.594141
2.663706
2.663331
2.663331
2.663519
2.664269
2.664269
2.525327
1.95381
1.400668
1.242038
1.240725
1.241663
1.24185
1.241663
1.240913
1.240913
1.264726
1.79968
2.567141
2.664081
2.663519
2.663331
2.663519
2.664269
2.550265
2.550265
1.993748
1.429731
1.242413
1.2411
1.241288
1.241663
1.241663
1.2411
1.258538
1.258538
1.762179
2.542578
2.663894
2.663519
2.663519
2.663519
2.664456
2.569203
2.019624
2.019624
1.446794
1.242975
1.240725
1.241475
1.24185
1.24185
1.241288
1.247851
1.679301
1.679301
2.501326
2.664269
2.663706
2.663331
2.663519
2.664081
2.564328
2.015311
2.015311
1.445107
1.242788
1.240913
1.241475
1.24185
1.241663
1.241288
1.2456
1.638988
1.638988
2.473013
2.664269
2.663519
2.663144
2.663519
2.664081
2.595267
1.485795
1.243913
1.240725
1.240725
1.241288
1.241663
1.24185
1.2411
1.244475
1.609362
2.444887
2.664081
2.663519
2.663519
2.663144
2.663519
2.664269
2.617955
2.117127
1.53961
1.246538
1.240725
1.241288
1.241288
1.241663
1.24185
1.241288
1.242975
1.569048
2.414511
2.664081
2.663706
2.663331
2.663331
2.663519
2.664081
2.631268
2.161566
1.577861
1.250476
1.240913
1.241288
1.241288
1.241475
1.24185
1.241288
1.242413
1.523296
2.368385
2.664269
2.663519
2.663331
2.663331
2.663331
2.664081
2.642893
2.194004
1.608049
1.253288
1.240725
1.241288
1.241475
1.241475
1.24185
1.241288
1.24185
1.490858
2.329384
2.664269
2.663519
2.663331
2.663519
2.663519
2.664081
2.649268
2.236193
1.6463
1.259851
1.240913
1.241288
1.241663
1.241663
1.241663
1.241475
1.241288
1.429169
2.255319
2.664456
2.663519
2.663331
2.663331
2.663331
2.664081
2.636706
2.148816
1.495921
1.242413
1.2411
1.241663
1.242413
1.2426
1.2426
1.242225
1.241288
1.249351
1.803618
2.504889
2.664081
2.663706
2.663331
2.663894
2.663894
2.664644
2.311945
1.739678
1.285727
1.241663
1.240725
1.240913
1.240913
1.240725
1.240725
1.321353
1.913121
2.565641
2.663894
2.663144
2.662956
2.662956
2.663331
2.664081
2.664081
2.585141
2.03575
1.468357
1.244663
1.240913
1.2411
1.241475
1.241288
1.240913
1.240913
1.381355
2.11994
2.651331
2.663894
2.663331
2.663519
2.663894
2.656394
2.656394
2.29432
1.700677
1.271476
1.240725
1.2411
1.241663
1.24185
1.241663
1.240725
1.240725
1.315728
2.006124
2.635768
2.663706
2.663519
2.663706
2.663894
2.656769
2.314571
2.314571
1.715865
1.273351
1.240725
1.241288
1.241663
1.242038
1.241663
1.240913
1.293039
1.293039
1.937497
2.617392
2.663706
2.663519
2.663331
2.663706
2.664644
2.351697
1.752991
1.752991
1.286852
1.240913
1.2411
1.241663
1.242038
1.241663
1.2411
1.279727
1.279727
1.891745
2.603142
2.663706
2.663331
2.663331
2.663706
2.664644
2.38751
1.794992
1.794992
1.304665
1.240913
1.2411
1.241663
1.242038
1.241663
1.2411
1.265851
1.841681
1.841681
2.588329
2.663894
2.663519
2.663519
2.663894
2.664456
2.414324
1.820493
1.316665
1.316665
1.240913
1.2411
1.241475
1.242038
1.24185
1.241288
1.258913
1.795367
2.569016
2.569016
2.664081
2.663519
2.663331
2.663706
2.664456
2.457075
1.848994
1.331103
1.240913
1.240913
1.2411
1.241475
1.24185
1.241663
1.2411
1.251226
1.73574
2.527202
2.527202
2.664081
2.663519
2.663331
2.663706
2.664644
2.46645
1.873182
1.344791
1.2411
1.2411
1.2411
1.241475
1.242038
1.24185
1.241288
1.246163
1.668988
2.489138
2.664081
2.664081
2.663331
2.663331
2.663706
2.664269
2.479951
1.872995
1.340853
1.240913
1.2411
1.2411
1.241475
1.242038
1.24185
1.241475
1.243163
1.593049
2.435887
2.664081
2.663706
2.663706
2.663519
2.663706
2.664456
2.468325
1.863807
1.333541
1.240913
1.241288
1.241288
1.241663
1.242038
1.242038
1.241663
1.241475
1.504358
2.343259
2.664456
2.663519
2.663519
2.663331
2.663894
2.664456
2.450325
1.843181
1.326228
1.240913
1.2411
1.24185
1.24185
1.242225
1.242038
1.241475
1.2411
1.450357
2.294883
2.664456
2.663894
2.663519
2.663519
2.663706
2.664456
2.488014
1.885182
1.347791
1.240913
1.2411
1.241663
1.242038
1.242038
1.242225
1.241475
1.2411
1.430481
2.269757
2.662581
2.663706
2.663519
2.663706
2.663706
2.664269
2.534328
1.957935
1.396355
1.241475
1.2411
1.241475
1.24185
1.24185
1.242038
1.241475
1.241288
1.451294
2.29807
2.664456
2.663706
2.663519
2.663519
2.663519
2.664081
2.602392
2.085251
1.508859
1.244851
1.240913
1.241475
1.241663
1.24185
1.24185
1.241288
1.241475
1.474732
2.316821
2.664456
2.663519
2.663519
2.663519
2.663894
2.663894
2.637081
2.181817
1.601861
1.252351
1.240725
1.2411
1.241663
1.241663
1.241288
1.241288
1.241663
1.46067
2.271257
2.664456
2.663706
2.663519
2.663519
2.664081
2.664081
2.645143
2.233006
1.665426
1.267164
1.240913
1.2411
1.241475
1.241663
1.241288
1.241288
1.241475
1.419793
2.122565
2.62583
2.664269
2.663706
2.663894
2.664081
2.617205
2.617205
2.203005
1.727303
1.319103
1.241663
1.240725
1.240913
1.2411
1.240913
1.242788
1.242788
1.420168
1.959997
2.424449
2.659956
2.665019
2.657331
2.497201
2.156128
1.770054
1.770054
1.417168
1.247101
1.240725
1.240538
1.240913
1.240913
1.240725
1.2456
1.2456
1.422606
1.825556
2.183317
2.45745
2.525327
2.476763
2.266757
1.968623
1.635425
1.635425
1.338416
1.2441
1.240725
1.240913
1.240913
1.240913
1.240725
1.242225
1.341416
1.341416
1.704052
2.053563
2.329759
2.406823
2.371385
2.177879
1.899433
1.56661
1.29829
1.29829
1.242038
1.240725
1.240725
1.240913
1.2411
1.240725
1.241288
1.294915
1.624737
1.624737
1.976873
2.253256
2.342322
2.324321
2.13494
1.866807
1.549172
1.285914
1.241663
1.241663
1.240725
1.240913
1.2411
1.2411
1.240725
1.240913
1.271289
1.549547
1.549547
1.901683
2.188754
2.283257
2.27782
2.121065
1.837744
1.526109
1.279539
1.241663
1.241663
1.240725
1.240725
1.2411
1.241288
1.240913
1.240725
1.260226
1.516546
1.867182
1.867182
2.161753
2.264507
2.262257
2.107377
1.845994
1.534547
1.278602
1.241663
1.240538
1.240538
1.240913
1.2411
1.2411
1.240913
1.240725
1.253851
1.478858
1.835306
2.14094
2.14094
2.246694
2.257944
2.118065
1.852931
1.553297
1.287039
1.24185
1.240538
1.240538
1.240913
1.2411
1.241288
1.240725
1.240538
1.252726
1.457482
1.825743
2.124627
2.124627
2.240693
2.256256
2.113564
1.857619
1.560798
1.295102
1.242038
1.240725
1.240725
1.240725
1.2411
1.2411
1.240725
1.240725
1.249351
1.436669
1.794242
2.099127
2.22438
2.22438
2.254756
2.124253
1.878807
1.589298
1.30654
1.2426
1.240725
1.240725
1.241288
1.241288
1.2411
1.240725
1.240725
1.246726
1.417731
1.790492
2.093689
2.227755
2.245194
2.245194
2.14244
1.89737
1.608799
1.320978
1.242975
1.240538
1.240725
1.240913
1.240913
1.2411
1.240725
1.240538
1.246913
1.394855
1.769866
2.078501
2.221568
2.259631
2.259631
2.152753
1.912933
1.626237
1.327165
1.243913
1.240538
1.240725
1.240913
1.2411
1.2411
1.2411
1.240538
1.2456
1.384355
1.745116
2.05375
2.215943
2.256444
2.161941
2.161941
1.935622
1.640675
1.340103
1.245038
1.240725
1.240538
1.2411
1.2411
1.240913
1.240913
1.240725
1.243913
1.361479
1.71699
2.031812
2.200005
2.249694
2.152941
1.923996
1.923996
1.6343
1.337666
1.244851
1.240538
1.240725
1.240913
1.241288
1.240913
1.240913
1.240725
1.242225
1.332041
1.687364
1.996561
2.179191
2.239006
2.171316
1.952122
1.952122
1.676114
1.368604
1.247476
1.240725
1.240725
1.240913
1.241288
1.240725
1.240725
1.240725
1.242975
1.342353
1.698052
2.006124
2.212005
2.277257
2.209005
1.993186
1.71099
1.71099
1.406106
1.251788
1.240913
1.240913
1.2411
1.240913
1.240725
1.242975
1.337853
1.337853
1.682489
1.991686
2.21238
2.27782
2.225693
2.006499
1.73799
1.431606
1.254788
1.254788
1.240913
1.240725
1.2411
1.240913
1.240913
1.240538
1.242225
1.328103
1.673676
1.673676
1.996561
2.220068
2.279695
2.239943
2.0365
1.755616
1.451857
1.259663
1.2411
1.2411
1.240725
1.240725
1.240913
1.240913
1.240725
1.242038
1.314978
1.659426
1.984936
1.984936
2.21388
2.29357
2.248569
2.053
1.782617
1.482795
1.266414
1.241288
1.241288
1.240538
1.240913
1.240913
1.240913
1.240725
1.24185
1.314603
1.654738
1.969935
1.969935
2.218005
2.275382
2.235818
2.046813
1.786555
1.48017
1.266976
1.241288
1.240725
1.240725
1.240913
1.240913
1.2411
1.240913
1.240725
1.246163
1.39598
1.713802
1.953435
1.953435
1.974998
1.905996
1.712865
1.425231
1.254601
1.2411
1.240725
1.240913
1.240725
1.240725
1.240725
1.240725
1.240538
1.243163
1.419231
1.872807
2.391635
2.660519
2.660519
2.664644
2.664831
2.62883
2.372135
2.037437
1.729928
1.436294
1.265664
1.243725
1.243725
1.240725
1.240725
1.2411
1.251226
1.454669
1.765554
2.078688
2.330696
2.391823
2.391823
2.351322
2.164566
1.863244
1.545047
1.283102
1.241475
1.240538
1.240725
1.2411
1.2411
1.2411
1.240913
1.240725
1.258351
1.502108
1.850307
2.12894
2.220818
2.22213
2.22213
2.066875
1.796117
1.494608
1.268851
1.241288
1.240725
1.240913
1.2411
1.2411
1.2411
1.240913
1.240538
1.253101
1.46967
1.818243
2.110377
2.212755
2.212193
2.212193
2.075313
1.828931
1.529859
1.280477
1.241475
1.240538
1.240913
1.2411
1.2411
1.2411
1.240725
1.240538
1.251976
1.460295
1.81093
2.101752
2.217443
2.232068
2.088626
2.088626
1.834743
1.548797
1.290602
1.24185
1.240538
1.240913
1.240913
1.2411
1.240913
1.240913
1.240538
1.249538
1.434606
1.790492
2.085064
2.203567
2.227568
2.096876
1.848056
1.848056
1.562485
1.29679
1.24185
1.240725
1.240725
1.240913
1.2411
1.240913
1.240913
1.240725
1.247663
1.417168
1.768742
2.068376
2.20263
2.233943
2.110564
1.862494
1.862494
1.577861
1.301852
1.242413
1.240538
1.240725
1.2411
1.240913
1.240725
1.240725
1.240725
1.245788
1.395043
1.755054
2.056
2.200755
2.229631
2.11169
1.861369
1.576923
1.576923
1.301665
1.242413
1.240538
1.2411
1.240913
1.2411
1.2411
1.240538
1.2441
1.2441
1.361854
1.717365
2.021124
2.170379
2.209005
2.11169
1.873182
1.586673
1.305977
1.305977
1.242788
1.240725
1.240725
1.2411
1.241288
1.2411
1.240725
1.242413
1.242413
1.32379
1.663363
1.962997
2.123877
2.167754
2.070626
1.827431
1.540547
1.284039
1.284039
1.24185
1.240725
1.2411
1.2411
1.241288
1.2411
1.240725
1.241288
1.282914
1.282914
1.583486
1.884058
2.057688
2.099689
2.012874
1.785429
1.499671
1.264914
1.2411
1.2411
1.240725
1.2411
1.2411
1.241288
1.241288
1.240725
1.240725
1.261726
1.530609
1.530609
1.839806
2.022812
2.077188
2.005374
1.779617
1.488608
1.261351
1.2411
1.2411
1.240725
1.2411
1.241288
1.241475
1.241288
1.240913
1.240913
1.258163
1.518796
1.518796
1.829681
2.032937
2.095752
2.026187
1.81618
1.540735
1.284789
1.24185
1.240725
1.240725
1.2411
1.2411
1.241288
1.241475
1.240913
1.240913
1.274664
1.568485
1.89437
1.89437
2.113189
2.183504
2.140565
1.934497
1.666176
1.370854
1.247851
1.240725
1.240538
1.240538
1.240913
1.2411
1.2411
1.240725
1.242225
1.327165
1.675176
2.005186
2.239381
2.239381
2.310258
2.266569
2.069688
1.806243
1.497796
1.271851
1.241663
1.240725
1.240725
1.240725
1.240913
1.240725
1.240725
1.244288
1.375729
1.737428
2.065563
2.306695
2.306695
2.381135
2.340634
2.14694
1.878432
1.572986
1.307102
1.242788
1.240538
1.240725
1.240725
1.240913
1.240913
1.240538
1.244475
1.373292
1.72599
2.051687
2.304445
2.382823
2.382823
2.356197
2.167566
1.899808
1.594174
1.318915
1.243725
1.240725
1.240538
1.240913
1.240913
1.240725
1.240538
1.242975
1.352479
1.699552
2.026937
2.294695
2.372885
2.372885
2.352072
2.170004
1.904871
1.594736
1.31854
1.243351
1.240725
1.240538
1.240913
1.240913
1.240913
1.240725
1.242038
1.330541
1.666176
1.999186
2.268444
2.355634
2.342884
2.342884
2.171316
1.905058
1.599611
1.32229
1.243538
1.240538
1.240725
1.240913
1.240913
1.240913
1.240725
1.241663
1.313853
1.6358
1.978935
2.260194
2.348134
2.343259
2.173941
2.173941
1.909183
1.610112
1.329228
1.243913
1.240913
1.240725
1.240725
1.240913
1.240913
1.240538
1.2411
1.295852
1.607862
1.956435
2.240506
2.337071
2.342884
2.185754
2.185754
1.928496
1.62905
1.335416
1.244288
1.240725
1.240725
1.240725
1.240725
1.240725
1.240725
1.2411
1.296414
1.605611
1.955122
2.242193
2.350759
2.362572
2.220818
1.962997
1.962997
1.663551
1.365417
1.246538
1.240725
1.240538
1.240725
1.240913
1.240538
1.240913
1.240913
1.290977
1.589298
1.946122
2.235256
2.356009
2.373822
2.237506
1.983436
1.689614
1.689614
1.391105
1.249163
1.240913
1.240725
1.240725
1.240913
1.240538
1.241288
1.241288
1.288539
1.582361
1.941247
2.240506
2.361447
2.385635
2.257944
2.010624
1.715677
1.715677
1.410793
1.251976
1.2411
1.240538
1.240725
1.240913
1.240725
1.2411
1.283289
1.283289
1.562673
1.923809
2.225318
2.355822
2.389573
2.269382
2.022062
1.729553
1.426544
1.426544
1.254413
1.241288
1.240538
1.240913
1.2411
1.240725
1.240913
1.275039
1.54411
1.54411
1.912183
2.215943
2.361447
2.398948
2.287382
2.0425
1.756179
1.448482
1.448482
1.259663
1.241288
1.24035
1.240538
1.240725
1.240725
1.240725
1.269976
1.533234
1.533234
1.905246
2.21013
2.358634
2.397636
2.299945
2.065188
1.780554
1.468357
1.264726
1.264726
1.241475
1.240725
1.240538
1.240913
1.240725
1.240725
1.265289
1.508109
1.882183
1.882183
2.191004
2.354884
2.404011
2.314008
2.088251
1.800992
1.48617
1.267726
1.241663
1.241663
1.240725
1.240725
1.240913
1.240725
1.240913
1.261351
1.495546
1.866619
2.173941
2.173941
2.355634
2.406449
2.328446
2.105502
1.822931
1.499671
1.275039
1.241663
1.241663
1.240725
1.240725
1.240913
1.240725
1.240725
1.253101
1.453544
1.830618
2.143003
2.143003
2.328634
2.386198
2.311571
2.086376
1.794805
1.482795
1.266789
1.241475
1.240725
1.240725
1.240913
1.240725
1.240913
1.240725
1.250851
1.442294
1.821056
2.13494
2.345321
2.345321
2.404573
2.342884
2.130815
1.853494
1.542235
1.293977
1.2426
1.240538
1.240538
1.240538
1.240725
1.240725
1.240725
1.251038
1.442857
1.814305
2.138315
2.355822
2.422761
2.422761
2.37401
2.163441
1.88687
1.573548
1.311415
1.242975
1.240725
1.240538
1.240538
1.240725
1.240913
1.240538
1.249538
1.443794
1.811493
2.12894
2.366135
2.440387
2.440387
2.389573
2.193254
1.924184
1.615549
1.327916
1.2441
1.240725
1.240725
1.240725
1.240538
1.240538
1.248038
1.424668
1.79443
2.125565
2.368197
2.443199
2.409823
2.214443
1.941997
1.941997
1.628487
1.343666
1.245225
1.240913
1.240725
1.240725
1.240913
1.240538
1.246351
1.246351
1.415856
1.783929
2.107002
2.363135
2.44245
2.411511
2.224193
1.952122
1.647238
1.647238
1.356229
1.246351
1.240725
1.240725
1.240725
1.240725
1.240538
1.245413
1.245413
1.394668
1.741928
2.075126
2.348322
2.420136
2.404386
2.233006
1.947247
1.620049
1.620049
1.321915
1.242975
1.240725
1.240725
1.241288
1.241288
1.2411
1.240725
1.244288
1.244288
1.371417
1.693739
1.95456
2.016249
2.058063
2.053563
2.03875
1.835306
1.505108
1.505108
1.257788
1.241475
1.240725
1.240538
1.2411
1.300352
1.624175
1.995061
2.321883
2.321883
2.594704
2.664831
2.664644
2.664644
2.650581
2.452575
2.125565
1.795555
1.795555
1.47267
1.268476
1.242413
1.240538
1.240538
1.241288
1.252351
1.452419
1.769304
1.769304
2.087876
2.333696
2.410011
2.399698
2.242193
1.976685
1.663551
1.364292
1.245788
1.245788
1.240725
1.240725
1.240725
1.240725
1.240538
1.241475
1.301852
1.615737
1.968998
1.968998
2.252131
2.356947
2.367822
2.217818
1.960185
1.662238
1.363354
1.246538
1.240725
1.240725
1.240725
1.240913
1.240725
1.240725
1.241288
1.290977
1.586861
1.945372
2.241818
2.241818
2.358634
2.382635
2.250069
1.994686
1.692427
1.388855
1.248413
1.2411
1.2411
1.240913
1.240725
1.240725
1.240725
1.2411
1.282914
1.569235
1.932809
2.231881
2.231881
2.361634
2.390511
2.263944
2.013061
1.716615
1.401605
1.250476
1.240913
1.240725
1.240725
1.240913
1.240913
1.240913
1.240913
1.280852
1.55686
1.924934
2.224943
2.36201
2.36201
2.394448
2.275944
2.029187
1.736866
1.427481
1.253851
1.2411
1.240538
1.240725
1.240725
1.240913
1.240725
1.240913
1.272226
1.536797
1.906746
2.21238
2.363884
2.363884
2.397073
2.284195
2.047937
1.761054
1.447544
1.257226
1.2411
1.240913
1.240538
1.240538
1.240913
1.240725
1.240913
1.264914
1.516359
1.88987
2.200942
2.360884
2.401948
2.401948
2.299195
2.062563
1.769304
1.455232
1.259851
1.241288
1.240538
1.240725
1.2411
1.2411
1.240725
1.240538
1.257601
1.48467
1.859307
2.167566
2.333321
2.369885
2.278195
2.278195
2.050375
1.764054
1.443419
1.257038
1.2411
1.240725
1.240913
1.240913
1.240913
1.240725
1.240725
1.250101
1.431044
1.812055
2.124815
2.299008
2.341759
2.260756
2.260756
2.029749
1.738741
1.413606
1.251788
1.240913
1.240725
1.240725
1.240913
1.240913
1.240913
1.240538
1.244475
1.365979
1.72674
2.04175
2.230381
2.281757
2.209755
1.98006
1.98006
1.696739
1.381167
1.247476
1.240725
1.240725
1.240913
1.241288
1.2411
1.240725
1.240725
1.2426
1.332978
1.689427
2.006499
2.209005
2.270132
2.20563
1.988686
1.710427
1.710427
1.396355
1.249538
1.240538
1.240725
1.2411
1.240913
1.2411
1.240725
1.240725
1.242413
1.32979
1.681364
2.003311
2.229443
2.29582
2.241256
2.035187
1.756741
1.756741
1.443419
1.256476
1.2411
1.240725
1.240725
1.240913
1.240913
1.240538
1.243913
1.243913
1.378917
1.753741
2.080564
2.317383
2.384698
2.351884
2.158753
1.87637
1.570923
1.570923
1.31329
1.243351
1.240913
1.240725
1.240725
1.240725
1.240725
1.249538
1.445669
1.445669
1.818618
2.147878
2.401386
2.480513
2.4492
2.260756
1.993186
1.685864
1.685864
1.387917
1.248976
1.2411
1.240538
1.240725
1.240725
1.240725
1.253476
1.482983
1.482983
1.851431
2.182567
2.445637
2.520452
2.489513
2.313071
2.040437
1.722053
1.425231
1.425231
1.254601
1.241288
1.240538
1.240538
1.240725
1.240913
1.251413
1.472857
1.826493
1.826493
2.162879
2.439075
2.514639
2.495139
2.317946
2.04775
1.742491
1.434419
1.255726
1.255726
1.241475
1.240725
1.240538
1.240725
1.240725
1.248038
1.439669
1.79143
1.79143
2.137565
2.412824
2.506951
2.492701
2.315133
2.058625
1.752428
1.445669
1.258163
1.258163
1.241475
1.240538
1.240725
1.240538
1.240725
1.245413
1.410606
1.760304
2.108315
2.108315
2.392761
2.484638
2.483888
2.318883
2.059563
1.753928
1.453732
1.259101
1.241475
1.241475
1.240538
1.240538
1.240725
1.240538
1.2441
1.391292
1.740428
2.091626
2.375885
2.375885
2.478638
2.483326
2.335946
2.068188
1.760304
1.454294
1.259851
1.241663
1.240725
1.240725
1.240725
1.240725
1.240538
1.243538
1.374792
1.722615
2.071563
2.363135
2.363135
2.475075
2.486326
2.346822
2.092001
1.785242
1.47492
1.265476
1.24185
1.240538
1.240538
1.240538
1.240725
1.240538
1.243163
1.361104
1.695989
2.060126
2.353572
2.476576
2.476576
2.493264
2.361634
2.104752
1.806618
1.505671
1.275601
1.242038
1.240725
1.240538
1.240538
1.240725
1.240538
1.242413
1.351729
1.675739
2.046625
2.352822
2.481451
2.505451
2.505451
2.385448
2.13419
1.840556
1.531547
1.287227
1.242788
1.240725
1.240538
1.240538
1.240725
1.240538
1.242413
1.342166
1.669926
2.046062
2.344572
2.484638
2.519139
2.519139
2.404761
2.158191
1.867182
1.551422
1.294165
1.243163
1.240725
1.240538
1.240725
1.240725
1.240538
1.242038
1.333541
1.653425
2.024687
2.326946
2.482951
2.523077
2.415449
2.415449
2.173191
1.88312
1.56661
1.305415
1.243538
1.240538
1.240913
1.240725
1.240538
1.240538
1.24185
1.319665
1.6343
2.006499
2.316071
2.480701
2.526452
2.429887
2.196442
2.196442
1.907308
1.588548
1.31929
1.244475
1.240725
1.240725
1.240725
1.240538
1.240538
1.24185
1.315165
1.627925
1.992998
2.30032
2.476013
2.522889
2.442262
2.217818
2.217818
1.927934
1.608799
1.331666
1.245038
1.240913
1.240725
1.240725
1.240725
1.241663
1.241663
1.301852
1.599986
1.974623
2.287382
2.486138
2.53639
2.45595
2.233381
1.946309
1.946309
1.631112
1.352291
1.245975
1.240725
1.240538
1.240725
1.240725
1.241288
1.288914
1.288914
1.580673
1.957372
2.273882
2.479763
2.53639
2.46645
2.247631
1.97181
1.652863
1.652863
1.365042
1.247663
1.240913
1.240538
1.240538
1.240725
1.241288
1.282539
1.282539
1.56136
1.936934
2.253256
2.471138
2.527577
2.468513
2.262819
1.981748
1.662051
1.662051
1.371042
1.247851
1.240913
1.240538
1.240538
1.240725
1.241288
1.274664
1.549547
1.549547
1.928309
2.243318
2.468888
2.52964
2.481638
2.270319
1.987186
1.671239
1.375917
1.375917
1.247851
1.240913
1.240725
1.240725
1.240725
1.240913
1.260038
1.505483
1.869057
1.869057
2.191192
2.431762
2.501701
2.455575
2.256631
1.980998
1.668426
1.373667
1.373667
1.247288
1.240913
1.240538
1.240725
1.240725
1.240725
1.256288
1.494796
1.864182
1.864182
2.189129
2.438699
2.510327
2.485201
2.296945
2.020937
1.71174
1.416606
1.252913
1.252913
1.241475
1.240725
1.240725
1.240538
1.240913
1.254601
1.484483
1.848994
2.183504
2.183504
2.44245
2.522514
2.499451
2.317571
2.044
1.736866
1.442107
1.256663
1.241663
1.241663
1.240538
1.240538
1.240538
1.240725
1.47867
1.842431
2.179566
2.446762
2.531327
2.531327
2.516702
2.338571
2.066688
1.760116
1.455232
1.260038
1.24185
1.240725
1.240538
1.240538
1.240538
1.240725
1.250101
1.464045
1.821056
2.165504
2.447887
2.533015
2.528515
2.528515
2.361072
2.094064
1.785429
1.48392
1.268476
1.242038
1.240725
1.240725
1.24035
1.24035
1.240725
1.248038
1.442669
1.798367
2.14244
2.429137
2.527952
2.521202
2.521202
2.368572
2.104002
1.79893
1.501358
1.275601
1.242413
1.240725
1.240538
1.240725
1.240725
1.240725
1.244851
1.40123
1.747928
2.108315
2.397261
2.489138
2.472075
2.292633
2.292633
1.992248
1.630175
1.311415
1.241663
1.240725
1.240913
1.241288
1.241475
1.240913
1.240913
1.240538
1.242038
1.354916
1.72899
2.170754
2.511827
2.61158
2.455013
2.151066
2.151066
1.870932
1.641613
1.470232
1.331853
1.318165
1.342728
1.321353
1.440419
1.632612
1.632612
1.944434
2.276695
2.582141
2.664831
2.664644
2.664831
2.657331
2.498139
2.498139
2.159691
1.807743
1.48692
1.273539
1.242788
1.240725
1.240725
1.240913
1.245225
1.245225
1.371417
1.693364
2.05675
2.359385
2.488951
2.501889
2.374385
2.128377
1.829868
1.829868
1.517859
1.282727
1.2426
1.240725
1.240725
1.240913
1.240538
1.242038
1.319665
1.319665
1.631112
2.001061
2.302945
2.442075
2.4732
2.366135
2.120877
1.829868
1.516734
1.516734
1.281227
1.242038
1.240538
1.240725
1.240725
1.240725
1.241663
1.314415
1.314415
1.623987
1.998436
2.296383
2.452762
2.494014
2.391635
2.152941
1.862682
1.543547
1.543547
1.292852
1.242788
1.240725
1.240725
1.240538
1.240725
1.241475
1.305227
1.604486
1.604486
1.981561
2.284382
2.4507
2.494764
2.403261
2.174691
1.880682
1.56736
1.30579
1.30579
1.243163
1.240725
1.240725
1.240725
1.240538
1.241288
1.289289
1.576923
1.954185
1.954185
2.263944
2.4462
2.499451
2.408136
2.184629
1.905996
1.580486
1.314603
1.2441
1.2441
1.240538
1.240725
1.240725
1.240538
1.240913
1.282914
1.564923
1.942184
1.942184
2.255319
2.451262
2.501139
2.426136
2.203567
1.921934
1.601861
1.326416
1.244475
1.244475
1.240913
1.240725
1.240725
1.240538
1.2411
1.275039
1.542797
1.917058
2.231881
2.231881
2.436637
2.494576
2.427074
2.207505
1.922684
1.600924
1.323415
1.243913
1.240913
1.240913
1.240725
1.240725
1.240538
1.240725
1.262101
1.505858
1.873557
2.190067
2.409636
2.409636
2.463825
2.406449
2.190442
1.903558
1.588736
1.317603
1.243538
1.240725
1.240725
1.240538
1.240725
1.240725
1.240725
1.250476
1.446982
1.809055
2.12369
2.355447
2.355447
2.417511
2.363697
2.155191
1.872057
1.549735
1.295477
1.242413
1.240538
1.240725
1.240725
1.240913
1.240913
1.240538
1.243913
1.383605
1.743428
2.068376
2.300133
2.36276
2.36276
2.319258
2.114689
1.834931
1.518609
1.275414
1.24185
1.240725
1.240725
1.240913
1.240913
1.240913
1.240725
1.242975
1.349104
1.701427
2.026374
2.27707
2.352822
2.324134
2.324134
2.136253
1.863619
1.553485
1.289289
1.242038
1.240725
1.240725
1.240725
1.240725
1.240913
1.240725
1.242788
1.348541
1.704239
2.036875
2.308758
2.390511
2.369322
2.369322
2.187442
1.929809
1.62155
1.338603
1.244851
1.240913
1.240725
1.240725
1.240913
1.240913
1.240725
1.245225
1.414731
1.777179
2.109627
2.386198
2.484638
2.487826
2.318133
2.318133
2.043062
1.738553
1.448482
1.258913
1.241663
1.240725
1.240538
1.240725
1.240913
1.240913
1.250851
1.477545
1.836056
2.184067
2.466638
2.559828
2.568828
2.397823
2.397823
2.13344
1.829868
1.533609
1.290039
1.243351
1.240913
1.240725
1.240538
1.240913
1.240913
1.254788
1.500046
1.854057
2.200005
2.483513
2.579891
2.584016
2.429324
2.180504
2.180504
1.879745
1.56886
1.303352
1.244851
1.240725
1.240538
1.240725
1.240913
1.252538
1.252538
1.478295
1.828931
2.175066
2.466075
2.581579
2.589454
2.441512
2.189129
1.883682
1.883682
1.582361
1.31854
1.245225
1.240913
1.240538
1.240538
1.240725
1.249163
1.440231
1.440231
1.811118
2.163816
2.452575
2.570328
2.582704
2.45145
2.194379
1.903746
1.903746
1.593799
1.317978
1.245225
1.240913
1.240725
1.240725
1.240725
1.247851
1.428794
1.428794
1.774742
2.133065
2.429699
2.561703
2.581766
2.457638
2.209192
1.902433
1.596424
1.596424
1.328291
1.245413
1.240725
1.240725
1.240725
1.240725
1.245038
1.403293
1.750366
1.750366
2.122565
2.415074
2.549703
2.570891
2.460075
2.209567
1.920809
1.607299
1.334103
1.334103
1.245975
1.240913
1.240538
1.240538
1.240538
1.2441
1.375167
1.72149
1.72149
2.096501
2.396886
2.540328
2.581016
2.476576
2.232443
1.936934
1.624737
1.347229
1.347229
1.246163
1.240913
1.240725
1.240538
1.240538
1.243538
1.368229
1.713052
2.078876
2.078876
2.38226
2.53714
2.578954
2.485951
2.249881
1.956247
1.643113
1.359979
1.247663
1.247663
1.2411
1.240538
1.240538
1.240725
1.243351
1.353791
1.683051
2.053938
2.370072
2.370072
2.548015
2.592642
2.509202
2.277445
1.986811
1.677989
1.38323
1.250101
1.250101
1.241288
1.240725
1.240538
1.240538
1.242975
1.341228
1.671988
2.051687
2.36876
2.36876
2.550078
2.594517
2.515577
2.291882
2.007061
1.697677
1.408355
1.253663
1.241475
1.241475
1.240538
1.240725
1.240725
1.242975
1.340103
1.663176
2.050188
2.350009
2.545203
2.545203
2.603704
2.53714
2.329196
2.035187
1.723928
1.425606
1.256663
1.241475
1.240725
1.240725
1.240538
1.240538
1.242788
1.324165
1.65305
2.019999
2.342696
2.551765
2.604267
2.604267
2.545203
2.339509
2.056188
1.745866
1.459732
1.263601
1.242225
1.240725
1.240725
1.240725
1.240725
1.242225
1.31029
1.6313
2.005561
2.321508
2.549515
2.605955
2.605955
2.563391
2.356009
2.075876
1.767804
1.468732
1.265101
1.242225
1.240725
1.240538
1.240538
1.240725
1.242225
1.30354
1.622862
1.989436
2.305945
2.551953
2.613642
2.572954
2.572954
2.372698
2.097439
1.795555
1.490108
1.270351
1.2426
1.240725
1.240725
1.240725
1.240725
1.242225
1.290977
1.596049
1.968998
2.296383
2.54014
2.603517
2.573141
2.385073
2.385073
2.112064
1.793117
1.490483
1.272789
1.242975
1.240913
1.240538
1.240538
1.240538
1.24185
1.284977
1.594361
1.954747
2.275382
2.522514
2.60708
2.584766
2.404386
2.404386
2.124815
1.818618
1.516734
1.280102
1.243163
1.240725
1.240538
1.240538
1.2411
1.2411
1.268101
1.54411
1.901683
2.239193
2.507326
2.583079
2.564703
2.389198
2.110752
2.110752
1.80568
1.512609
1.274664
1.2426
1.240913
1.240725
1.240725
1.240913
1.257038
1.257038
1.517296
1.875807
2.217255
2.502451
2.592454
2.595642
2.428199
2.153128
2.153128
1.859494
1.557047
1.29604
1.244475
1.240725
1.240538
1.240725
1.241288
1.262476
1.262476
1.532297
1.883307
2.230943
2.510889
2.603142
2.612705
2.46195
2.187817
1.88087
1.88087
1.575986
1.316665
1.2456
1.2411
1.240725
1.240725
1.241288
1.258538
1.517671
1.517671
1.862119
2.519139
2.608205
2.607455
2.481451
2.21688
1.925496
1.604674
1.332228
1.247101
1.247101
1.2411
1.240538
1.240725
1.240913
1.258913
1.504171
1.858744
2.215943
2.512577
2.512577
2.614955
2.605767
2.491951
2.232068
1.935434
1.63505
1.348916
1.248788
1.248788
1.241663
1.240725
1.240538
1.241288
1.254413
1.48392
1.842431
2.201692
2.499639
2.499639
2.610455
2.611955
2.512202
2.264132
1.965247
1.65155
1.37948
1.250663
1.241663
1.241663
1.240725
1.240725
1.241288
1.253288
1.46817
1.826118
2.173941
2.470575
2.603892
2.603892
2.604642
2.517827
2.285695
1.983623
1.641237
1.344604
1.246351
1.240913
1.240913
1.240913
1.240913
1.240538
1.2411
1.268101
1.494608
1.816555
2.11094
2.241256
2.286445
2.286445
2.199255
2.094064
2.063875
1.890995
1.572423
1.293227
1.243725
1.2411
1.2411
1.241475
1.252726
1.513546
2.006686
2.417699
2.645143
2.664456
2.664644
2.664269
2.664269
2.664644
2.647956
2.44245
2.13569
1.815618
1.515234
1.294165
1.248226
1.2426
1.2426
1.244475
1.283664
1.55011
1.879557
2.213693
2.487263
2.617955
2.623393
2.544265
2.544265
2.289445
1.992436
1.664488
1.37798
1.249726
1.2411
1.240725
1.240725
1.240725
1.240725
1.243351
1.351729
1.671239
2.038187
2.356197
2.53639
2.589829
2.494014
2.494014
2.263944
1.98081
1.664863
1.375917
1.248788
1.240913
1.240725
1.240538
1.240538
1.240538
1.2426
1.328853
1.645175
2.023187
2.332759
2.519702
2.579704
2.512764
2.289257
2.289257
2.005374
1.696552
1.399168
1.251038
1.2411
1.240538
1.240538
1.240538
1.24185
1.24185
1.314603
1.627175
1.998811
2.324696
2.527765
2.582516
2.513139
2.30032
2.020374
2.020374
1.703115
1.414168
1.253851
1.241663
1.240538
1.24035
1.240538
1.24185
1.301852
1.301852
1.600549
1.983436
2.303508
2.518202
2.589079
2.525327
2.316446
2.035375
2.035375
1.714552
1.425043
1.254038
1.241288
1.240725
1.240725
1.240725
1.241475
1.289289
1.289289
1.590986
1.961872
2.282882
2.515202
2.575204
2.53039
2.325071
2.042312
1.732365
1.732365
1.432169
1.254226
1.241663
1.240538
1.240725
1.240538
1.241288
1.274851
1.551797
1.551797
1.926621
2.260382
2.494201
2.557203
2.523827
2.328071
2.05
1.735365
1.441356
1.441356
1.255726
1.241475
1.240725
1.240725
1.240725
1.2411
1.260976
1.520859
1.520859
1.894183
2.216693
2.462513
2.535452
2.509389
2.321133
2.041
1.72374
1.439669
1.439669
1.254788
1.241663
1.240538
1.240725
1.240538
1.240725
1.251226
1.454857
1.818618
1.818618
2.149191
2.406823
2.488576
2.473013
2.278757
1.995811
1.692427
1.389042
1.248226
1.248226
1.2411
1.240538
1.240725
1.240725
1.240538
1.244475
1.389605
1.732928
2.068563
2.068563
2.341009
2.423887
2.408511
2.223443
1.948747
1.645175
1.348916
1.244663
1.244663
1.240913
1.240725
1.240913
1.240725
1.240538
1.242038
1.336353
1.675739
2.023187
2.023187
2.302195
2.388073
2.39126
2.226255
1.96131
1.658488
1.363542
1.246163
1.240725
1.240725
1.240538
1.240913
1.240725
1.240538
1.242225
1.348729
1.693552
2.037437
2.326384
2.326384
2.433449
2.437949
2.284945
2.026937
1.722053
1.422981
1.253101
1.241288
1.240538
1.240538
1.240725
1.240725
1.240538
1.2441
1.391105
1.748678
2.109627
2.399511
2.515202
2.515202
2.547078
2.412261
2.166629
1.864932
1.561735
1.302227
1.244663
1.240913
1.240913
1.240725
1.240725
1.240913
1.254038
1.48542
1.840931
2.212943
2.511639
2.611955
2.611955
2.608767
2.529452
2.28382
1.987373
1.682864
1.402543
1.256288
1.24185
1.240538
1.240538
1.240725
1.242038
1.267914
1.542047
1.89587
2.262632
2.54764
2.635205
2.665206
2.665206
2.591704
2.362947
2.067438
1.774554
1.484108
1.279164
1.242975
1.2411
1.240725
1.240725
1.24185
1.271476
1.545047
1.894558
2.260569
2.542015
2.644956
2.665206
2.665206
2.605955
2.395573
2.096127
1.781304
1.48692
1.280852
1.2441
1.241288
1.240725
1.240725
1.24185
1.266601
1.525921
1.885745
2.254381
2.540515
2.642331
2.665206
2.606142
2.606142
2.390886
2.110002
1.797242
1.496108
1.278977
1.243538
1.2411
1.240725
1.241663
1.241663
1.258351
1.486358
1.836431
2.21013
2.511639
2.61533
2.665206
2.591892
2.38676
2.38676
2.098377
1.783742
1.490483
1.280477
1.243725
1.241288
1.240725
1.2411
1.2411
1.253476
1.461045
1.80718
2.183692
2.494201
2.61683
2.665206
2.590767
2.383948
2.383948
2.102127
1.789555
1.491983
1.278977
1.243163
1.240913
1.240725
1.240913
1.249726
1.249726
1.425981
1.771554
2.141315
2.454075
2.606517
2.62058
2.582704
2.380198
2.091439
2.091439
1.779992
1.487483
1.275414
1.243163
1.240913
1.240538
1.240913
1.247851
1.406106
1.406106
1.755429
2.133253
2.44245
2.603892
2.652081
2.595267
2.417324
2.136815
1.824056
1.824056
1.531172
1.295102
1.244288
1.241288
1.240538
1.240913
1.248601
1.40498
1.40498
1.749616
2.136065
2.454262
2.60633
2.664831
2.62208
2.451637
2.181067
1.86737
1.86737
1.568485
1.316665
1.246538
1.241475
1.240913
1.240913
1.247851
1.390543
1.744553
1.744553
2.12294
2.43645
2.608017
2.664831
2.62358
2.476201
2.191942
1.878432
1.584611
1.584611
1.320603
1.246351
1.241475
1.240913
1.240913
1.2456
1.361292
1.712677
2.079063
2.079063
2.402136
2.605205
2.639331
2.61308
2.445637
2.177879
1.862494
1.562298
1.303727
1.303727
1.245413
1.241288
1.240725
1.240725
1.243913
1.336541
1.679489
2.038562
2.038562
2.367635
2.600704
2.651143
2.62058
2.485951
2.206755
1.896245
1.592111
1.337853
1.337853
1.248226
1.241475
1.240725
1.240725
1.245225
1.350229
1.700302
2.067813
2.401948
2.401948
2.603892
2.665019
2.655081
2.542578
2.275382
1.97631
1.676301
1.397293
1.259663
1.259663
1.243163
1.241288
1.241288
1.247288
1.367854
1.723553
2.084126
2.418824
2.636331
2.636331
2.664831
2.664831
2.564516
2.29657
2.001624
1.70499
1.429731
1.269976
1.269976
1.245225
1.241663
1.241288
1.247663
1.358104
1.712302
2.087689
2.433262
2.637643
2.637643
2.665019
2.665206
2.585516
2.335946
2.020374
1.706865
1.417168
1.260788
1.242788
1.242788
1.2411
1.240913
1.243351
1.303915
1.622487
1.980248
2.325258
2.583079
2.660706
2.660706
2.642518
2.560953
2.28457
1.982873
1.707427
1.40423
1.257976
1.242225
1.240725
1.240725
1.240725
1.242788
1.287789
1.601299
1.949497
2.298445
2.578391
2.636893
2.652081
2.652081
2.562453
2.313821
2.016249
1.710427
1.418293
1.262289
1.2426
1.2411
1.2411
1.2411
1.243351
1.29604
1.609549
1.972935
2.334259
2.597517
2.665019
2.665019
2.665019
2.595829
2.362572
2.05375
1.749428
1.467232
1.277851
1.245038
1.24185
1.240913
1.240913
1.245225
1.31779
1.637675
2.005374
2.378697
2.635955
2.665019
2.665019
2.648893
2.648893
2.486701
2.191379
1.878995
1.602986
1.363729
1.255163
1.245038
1.242975
1.251601
1.251601
1.376104
1.71774
2.075501
2.439075
2.642518
2.664831
2.655269
2.530015
2.239381
2.239381
1.923246
1.616487
1.369542
1.253663
1.243351
1.24185
1.246538
1.325478
1.645363
1.645363
2.007061
2.367447
2.607455
2.665019
2.665019
2.596392
2.313258
1.976873
1.64255
1.64255
1.349854
1.243913
1.240725
1.240538
1.240725
1.240725
1.241288
1.329603
1.329603
1.824056
2.433074
2.651893
2.664644
2.664831
2.659019
2.574266
2.392761
2.152378
2.152378
2.054313
1.951747
1.748866
1.595861
1.459357
1.506796
1.702177
1.990561
2.324321
2.324321
2.620955
2.664831
2.664456
2.664456
2.664644
2.62883
2.37551
2.033875
1.718302
1.718302
1.423168
1.257601
1.243351
1.2411
1.241475
1.253288
1.450169
1.798555
2.167754
2.167754
2.473013
2.602767
2.663894
2.592642
2.395198
2.10869
1.787492
1.494608
1.494608
1.278227
1.242788
1.2411
1.240538
1.240725
1.246351
1.392417
1.733678
2.111127
2.111127
2.437387
2.600704
2.617767
2.584391
2.390511
2.098752
1.772304
1.46817
1.269976
1.269976
1.242225
1.240725
1.240725
1.240725
1.244663
1.369167
1.72074
2.099501
2.411699
2.411699
2.607267
2.593392
2.583454
2.380573
2.095564
1.790117
1.491045
1.271101
1.242413
1.242413
1.240725
1.240725
1.240725
1.243725
1.348166
1.686051
2.062376
2.38601
2.606517
2.606517
2.603892
2.589454
2.405511
2.132128
1.820868
1.527234
1.290977
1.243163
1.243163
1.240725
1.240538
1.240725
1.2441
1.342728
1.679676
2.059
2.385823
2.60633
2.60633
2.590017
2.593954
2.419761
2.140753
1.833056
1.532109
1.284227
1.243913
1.2411
1.2411
1.240725
1.240725
1.242788
1.318915
1.651175
2.010999
2.335196
2.603892
2.603142
2.603142
2.597329
2.430449
2.151441
1.833618
1.520671
1.284789
1.243913
1.240913
1.240725
1.240725
1.240725
1.242225
1.295665
1.611424
1.983623
2.321508
2.571828
2.61158
2.61158
2.601454
2.424074
2.140565
1.830806
1.528922
1.285164
1.243163
1.240913
1.240725
1.240725
1.240725
1.241475
1.273351
1.56136
1.921934
2.255131
2.53189
2.599392
2.569953
2.569953
2.386198
2.112252
1.79218
1.488233
1.267164
1.242038
1.240538
1.240725
1.240725
1.240725
1.240725
1.253476
1.481858
1.831743
2.167754
2.438512
2.520827
2.492326
2.313071
2.313071
2.056563
1.72824
1.432731
1.250101
1.241288
1.240538
1.240725
1.240725
1.240725
1.240538
1.244663
1.402543
1.741928
2.101189
2.376635
2.459512
2.447325
2.301633
2.301633
2.021874
1.70874
1.399918
1.250288
1.2411
1.240538
1.240725
1.240913
1.240538
1.240538
1.243538
1.365979
1.71699
2.06425
