2.499639
2.422949
2.192692
1.88012
1.536609
1.276726
1.2426
1.242225
1.242225
1.242413
1.2426
1.242413
1.242038
1.245225
1.367854
1.768929
2.125002
2.389948
2.389948
2.472263
2.409636
2.169254
1.869807
1.525734
1.270164
1.2426
1.242225
1.242225
1.242413
1.242413
1.242413
1.242225
1.244288
1.362417
1.765366
2.12669
2.407198
2.407198
2.500201
2.45445
2.233193
1.926996
1.580298
1.298102
1.243538
1.242225
1.242225
1.242225
1.2426
1.242413
1.242225
1.243725
1.359979
1.754116
2.111315
2.401198
2.494764
2.494764
2.469263
2.269569
1.967873
1.613674
1.310103
1.243913
1.242225
1.242225
1.242413
1.242413
1.242413
1.242225
1.243538
1.352104
1.737053
2.104377
2.401198
2.505451
2.505451
2.487451
2.291507
1.97706
1.646488
1.337103
1.244663
1.242225
1.242413
1.2426
1.2426
1.242413
1.242038
1.243351
1.341416
1.714552
2.095752
2.416011
2.512577
2.506389
2.506389
2.30557
2.007436
1.659051
1.345729
1.245225
1.242038
1.242225
1.242413
1.242413
1.242413
1.242225
1.242975
1.328103
1.685301
2.065001
2.396323
2.503389
2.506764
2.316633
2.316633
2.013249
1.681926
1.361854
1.245788
1.242225
1.242038
1.242225
1.242225
1.242225
1.242413
1.2426
1.317978
1.675551
2.068563
2.405324
2.53414
2.53714
2.350009
2.350009
2.048687
1.695614
1.332416
1.2441
1.242038
1.242413
1.2426
1.242788
1.2426
1.2426
1.242413
1.243538
1.329603
1.698052
2.038562
2.303695
2.54464
2.488576
2.160254
2.160254
1.767617
1.383792
1.246726
1.242413
1.242413
1.242225
1.243351
1.252351
1.350791
1.350791
1.669363
1.992436
2.372323
2.636331
2.664456
2.664456
2.63333
2.38751
2.38751
2.021312
1.652488
1.325478
1.244851
1.242038
1.242225
1.242413
1.242225
1.242413
1.242413
1.277289
1.561173
1.95081
2.283257
2.421262
2.440949
2.299008
2.025437
1.685114
1.685114
1.362417
1.246163
1.242413
1.242225
1.2426
1.2426
1.242413
1.242225
1.252726
1.252726
1.48167
1.893808
2.233568
2.398948
2.434012
2.301258
2.036312
1.702364
1.365417
1.365417
1.246351
1.242038
1.242225
1.2426
1.242788
1.2426
1.242038
1.250663
1.461607
1.461607
1.87262
2.21838
2.402323
2.441887
2.323758
2.05825
1.72899
1.385855
1.385855
1.247851
1.242038
1.242413
1.242413
1.2426
1.2426
1.242225
1.248601
1.432169
1.432169
1.851619
2.197192
2.387135
2.447325
2.345696
2.068563
1.746616
1.39898
1.248601
1.248601
1.242225
1.242225
1.242413
1.2426
1.242413
1.242225
1.247101
1.408918
1.822556
1.822556
2.173754
2.381135
2.438887
2.345696
2.083938
1.758804
1.415293
1.250288
1.242225
1.242225
1.242413
1.242413
1.242413
1.242413
1.242225
1.245413
1.383042
1.792555
2.139253
2.139253
2.363135
2.428574
2.339884
2.091439
1.771554
1.422981
1.251038
1.242038
1.242038
1.242225
1.242413
1.2426
1.242413
1.242038
1.243913
1.347979
1.751116
2.104939
2.104939
2.334821
2.400636
2.337071
2.092376
1.773054
1.419981
1.250288
1.242225
1.242413
1.242413
1.242413
1.242413
1.2426
1.242225
1.243351
1.326041
1.71474
2.078501
2.325634
2.325634
2.329009
2.085814
1.766491
1.418668
1.249726
1.242225
1.242225
1.2426
1.242788
1.2426
1.2426
1.242225
1.2426
1.290414
1.642925
1.996373
2.262819
2.344572
2.282882
2.0545
2.0545
1.742491
1.387917
1.246538
1.242038
1.242225
1.2426
1.242788
1.242788
1.242788
1.2426
1.242225
1.261726
1.555172
1.913683
2.19663
2.272944
2.233568
2.011186
2.011186
1.691677
1.356604
1.244851
1.242038
1.242413
1.242788
1.242975
1.242975
1.2426
1.2426
1.242225
1.249538
1.47567
1.839806
2.129315
2.218943
2.197755
1.98456
1.673114
1.673114
1.342541
1.244475
1.242038
1.2426
1.242788
1.242975
1.242975
1.2426
1.242038
1.242038
1.248413
1.461982
1.832868
2.150691
2.252506
2.232631
2.042125
1.742491
1.406668
1.406668
1.248413
1.242038
1.242038
1.2426
1.242788
1.242788
1.242413
1.242225
1.242225
1.259476
1.53961
1.923059
2.244256
2.356385
2.354697
2.166441
1.87487
1.536609
1.536609
1.276914
1.242788
1.242413
1.242413
1.242413
1.242788
1.242225
1.242225
1.280664
1.280664
1.601486
1.98456
2.322633
2.445075
2.442075
2.263194
1.978935
1.632987
1.329416
1.329416
1.244288
1.242038
1.242225
1.2426
1.2426
1.242225
1.2426
1.298852
1.63055
1.63055
2.009311
2.352072
2.480701
2.494389
2.320758
2.022062
1.688676
1.359229
1.359229
1.2456
1.242225
1.242225
1.2426
1.242413
1.242413
1.242413
1.287039
1.608987
1.608987
1.998249
2.326571
2.462138
2.483138
2.321508
2.0365
1.700489
1.363729
1.245788
1.245788
1.242038
1.242038
1.2426
1.2426
1.242225
1.242225
1.267914
1.550672
1.952872
1.952872
2.290382
2.434387
2.463263
2.322258
2.031625
1.689614
1.368417
1.246163
1.242038
1.242038
1.2426
1.242413
1.2426
1.242225
1.242225
1.258726
1.511859
1.923434
1.923434
2.253444
2.412074
2.458387
2.320946
2.041
1.699739
1.360167
1.245975
1.242038
1.242038
1.242225
1.2426
1.242413
1.242413
1.242225
1.253851
1.481858
1.890808
2.243131
2.243131
2.414136
2.451825
2.317383
2.038
1.707052
1.371042
1.246538
1.242038
1.242038
1.242038
1.242413
1.2426
1.2426
1.242225
1.249726
1.443794
1.863432
2.216318
2.399511
2.399511
2.443387
2.332384
2.070813
1.739491
1.391855
1.247851
1.242225
1.242413
1.242413
1.242413
1.242788
1.2426
1.242038
1.248226
1.427106
1.847494
2.19363
2.394073
2.394073
2.44995
2.343071
2.088251
1.762366
1.411918
1.250851
1.242225
1.242413
1.242413
1.242413
1.242413
1.242413
1.242038
1.248038
1.419231
1.828743
2.190629
2.401761
2.461013
2.461013
2.37101
2.113002
1.794242
1.439294
1.253663
1.242225
1.242225
1.2426
1.2426
1.2426
1.242225
1.242413
1.245975
1.396543
1.818431
2.153503
2.387323
2.452387
2.37626
2.37626
2.130627
1.812805
1.46142
1.256851
1.242413
1.242225
1.242413
1.2426
1.242788
1.242788
1.242225
1.245225
1.378917
1.78618
2.148066
2.398386
2.464388
2.393886
2.393886
2.160441
1.837744
1.494421
1.260038
1.242413
1.242038
1.242225
1.2426
1.242413
1.242413
1.242038
1.244475
1.360541
1.765741
2.12369
2.386385
2.465513
2.398198
2.166629
2.166629
1.861182
1.508109
1.265101
1.2426
1.242225
1.2426
1.242413
1.242413
1.242225
1.242225
1.243538
1.344979
1.737428
2.097064
2.368572
2.456137
2.409261
2.180692
1.867932
1.867932
1.517484
1.265851
1.2426
1.242038
1.242413
1.2426
1.242413
1.242225
1.242225
1.243163
1.330728
1.714177
2.075126
2.358822
2.453887
2.415636
2.209755
1.893995
1.893995
1.549735
1.280289
1.242788
1.242225
1.242413
1.2426
1.2426
1.242225
1.242975
1.242975
1.317415
1.677801
2.033312
2.336321
2.422574
2.399511
2.187817
1.881057
1.527422
1.527422
1.273164
1.242788
1.242225
1.2426
1.2426
1.2426
1.242225
1.242225
1.279727
1.279727
1.611612
1.986436
2.292445
2.397823
2.394635
2.195129
1.891933
1.554798
1.554798
1.282914
1.242975
1.242038
1.242413
1.242413
1.242788
1.242413
1.242413
1.287789
1.287789
1.620799
2.000499
2.327696
2.440762
2.419949
2.254194
1.959997
1.611424
1.303165
1.303165
1.243163
1.242225
1.242413
1.2426
1.242413
1.242225
1.242413
1.284602
1.606737
1.606737
1.998249
2.326759
2.444325
2.4492
2.275382
1.975373
1.629987
1.316478
1.243913
1.243913
1.242225
1.242225
1.2426
1.242413
1.242413
1.242225
1.278039
1.592299
1.985498
1.985498
2.321696
2.450512
2.460638
2.290195
2.001624
1.654551
1.334103
1.244288
1.244288
1.242225
1.242225
1.2426
1.2426
1.242225
1.242038
1.269601
1.563423
1.967685
1.967685
2.302945
2.438512
2.464575
2.308196
2.017187
1.677051
1.341791
1.245038
1.242038
1.242038
1.242225
1.2426
1.2426
1.242413
1.242225
1.261163
1.533234
1.938434
2.268819
2.268819
2.429137
2.479013
2.330696
2.049625
1.715865
1.375542
1.246538
1.242038
1.242413
1.242413
1.242413
1.2426
1.242225
1.242225
1.263039
1.518984
1.903746
2.19738
2.19738
2.303883
2.294883
2.120315
1.795742
1.406106
1.245038
1.242225
1.242788
1.243163
1.243163
1.243538
1.243351
1.243163
1.242413
1.251601
1.477357
1.821243
2.136065
2.319821
2.319821
2.453137
2.415261
2.260007
2.100814
1.809805
1.479795
1.269226
1.242975
1.242038
1.242038
1.24185
1.242038
1.2441
1.362042
1.721303
2.108877
2.431387
2.589079
2.603892
2.603892
2.488014
2.195504
1.835306
1.453544
1.251601
1.242225
1.242413
1.2426
1.2426
1.2426
1.2426
1.242413
1.245038
1.376667
1.782242
2.13569
2.349634
2.403636
2.403636
2.30632
2.03875
1.70649
1.360916
1.245788
1.242038
1.242413
1.2426
1.2426
1.2426
1.2426
1.242038
1.2441
1.356041
1.752616
2.109064
2.330884
2.381135
2.297508
2.297508
2.038
1.72299
1.379667
1.246351
1.242038
1.242225
1.2426
1.242413
1.2426
1.2426
1.242225
1.243913
1.338603
1.736866
2.090314
2.324883
2.396136
2.313446
2.060688
2.060688
1.741366
1.386417
1.246913
1.242225
1.242413
1.242413
1.242788
1.242788
1.242788
1.242413
1.243163
1.32004
1.702177
2.055625
2.314571
2.395386
2.323196
2.086001
2.086001
1.763116
1.409293
1.249538
1.242038
1.242413
1.2426
1.2426
1.2426
1.242225
1.242225
1.242975
1.313102
1.686051
2.051125
2.317383
2.38976
2.330321
2.087876
1.774179
1.774179
1.426919
1.250476
1.242038
1.2426
1.2426
1.2426
1.2426
1.242225
1.242413
1.242413
1.297352
1.660176
2.007811
2.305195
2.39201
2.347197
2.115814
1.801742
1.801742
1.446419
1.252351
1.242225
1.242225
1.2426
1.2426
1.2426
1.242413
1.242413
1.242413
1.284977
1.627925
2.000874
2.292633
2.380573
2.343634
2.125377
1.810555
1.456732
1.456732
1.253288
1.242038
1.242413
1.242413
1.242788
1.242788
1.242225
1.242038
1.275789
1.275789
1.592674
1.962622
2.267132
2.35901
2.331821
2.120877
1.809805
1.46592
1.253851
1.253851
1.242038
1.242225
1.2426
1.2426
1.242788
1.242413
1.242225
1.260413
1.527797
1.527797
1.910308
2.21463
2.315508
2.295633
2.096876
1.434794
1.250663
1.242038
1.242225
1.242225
1.242788
1.242788
1.242788
1.242413
1.242038
1.248601
1.462357
1.837744
2.152191
2.152191
2.257944
2.257381
2.070438
1.769116
1.422606
1.249163
1.242225
1.242413
1.2426
1.2426
1.242788
1.242788
1.2426
1.242038
1.246538
1.427856
1.812243
2.12594
2.243131
2.243131
2.249881
2.071188
1.773429
1.419606
1.248788
1.242038
1.242413
1.2426
1.2426
1.2426
1.242788
1.242788
1.242225
1.245788
1.407793
1.80118
2.136628
2.267882
2.267882
2.281757
2.117877
1.830243
1.497983
1.261163
1.242413
1.242225
1.242413
1.242788
1.242788
1.242975
1.242788
1.242038
1.248976
1.451107
1.854244
2.187629
2.339884
2.36576
2.36576
2.216318
1.940684
1.606362
1.297727
1.243163
1.242225
1.242413
1.2426
1.2426
1.2426
1.2426
1.242038
1.251038
1.467982
1.87937
2.217255
2.373447
2.411324
2.411324
2.278195
1.985311
1.656613
1.336166
1.244475
1.242225
1.242413
1.2426
1.2426
1.2426
1.2426
1.242038
1.250476
1.465357
1.885745
2.219693
2.386198
2.429324
2.304633
2.304633
2.026749
1.689052
1.354541
1.2456
1.242225
1.242413
1.2426
1.2426
1.242413
1.242413
1.242225
1.250101
1.446982
1.853307
2.203192
2.393886
2.434199
2.308946
2.046625
2.046625
1.705739
1.363167
1.245975
1.24185
1.242413
1.242413
1.242788
1.242413
1.242225
1.242225
1.247101
1.422231
1.840931
2.186317
2.37926
2.424636
2.325258
2.04025
2.04025
1.713802
1.371417
1.246163
1.242225
1.242413
1.242225
1.242788
1.2426
1.242225
1.242225
1.2456
1.39148
1.783742
2.147878
2.356385
2.411886
2.314196
2.05675
1.730115
1.730115
1.382667
1.246913
1.242038
1.242413
1.242413
1.2426
1.2426
1.242038
1.244288
1.244288
1.359979
1.766866
2.122002
2.350197
2.415074
2.31232
2.0605
1.740428
1.388855
1.388855
1.247476
1.242038
1.242413
1.2426
1.242788
1.2426
1.242038
1.243351
1.243351
1.331853
1.729178
2.079251
2.329946
2.391448
2.327696
2.084689
1.751491
1.406293
1.406293
1.248601
1.242225
1.242225
1.2426
1.242788
1.2426
1.242225
1.243351
1.320603
1.320603
1.701052
2.062001
2.322446
2.396698
2.331821
2.093502
1.774742
1.425043
1.250288
1.250288
1.242038
1.242413
1.242788
1.242788
1.242788
1.242413
1.242975
1.315165
1.688489
1.688489
2.058625
2.334071
2.410011
2.353197
2.122752
1.80568
1.457294
1.254226
1.254226
1.242225
1.242225
1.242413
1.242788
1.2426
1.242225
1.242413
1.303352
1.661676
1.661676
2.032
2.311196
2.400261
2.36276
2.134378
1.827431
1.463857
1.255163
1.242225
1.242225
1.242413
1.242413
1.242788
1.2426
1.242225
1.242413
1.298477
1.638425
2.008749
2.008749
2.311383
2.403448
2.37026
2.158566
1.847869
1.487108
1.261726
1.242225
1.242225
1.242225
1.242413
1.242788
1.2426
1.242225
1.242225
1.282539
1.619299
1.997686
2.302945
2.302945
2.395386
2.384323
2.182004
1.872995
1.522734
1.267914
1.2426
1.242225
1.242225
1.242413
1.2426
1.242788
1.242225
1.242038
1.275039
1.590611
1.971435
2.272007
2.272007
2.399136
2.382635
2.19363
1.890808
1.530047
1.275601
1.2426
1.242225
1.242413
1.242413
1.2426
1.242788
1.242413
1.242038
1.269226
1.56511
1.953435
2.275757
2.393323
2.393323
2.385448
2.203942
1.906933
1.557423
1.279539
1.242788
1.242225
1.242413
1.2426
1.2426
1.242788
1.242413
1.242038
1.261163
1.547485
1.945559
2.270882
2.403636
2.403636
2.408699
2.241818
1.945934
1.598486
1.296414
1.243163
1.242038
1.242413
1.2426
1.2426
1.2426
1.242413
1.242038
1.254788
1.485233
1.902808
2.234318
2.364635
2.386573
2.386573
2.22438
1.925496
1.578048
1.286102
1.242788
1.242225
1.2426
1.242788
1.2426
1.2426
1.242413
1.242225
1.250101
1.461982
1.869995
2.214443
2.363884
2.392573
2.242381
2.242381
1.960935
1.620799
1.30804
1.243725
1.242225
1.2426
1.242413
1.2426
1.2426
1.2426
1.242038
1.251226
1.469295
1.880307
2.219693
2.381698
2.412074
2.272194
2.272194
1.987748
1.650613
1.334666
1.244288
1.242225
1.242413
1.2426
1.2426
1.2426
1.2426
1.242225
1.249726
1.458232
1.876182
2.214443
2.38751
2.428012
2.30332
2.025249
2.025249
1.694677
1.350229
1.245038
1.242038
1.242413
1.2426
1.2426
1.2426
1.242225
1.242225
1.248976
1.440794
1.862494
2.207317
2.39426
2.436825
2.319258
2.052063
1.721303
1.721303
1.355854
1.246163
1.242225
1.242413
1.242225
1.2426
1.242413
1.242225
1.242225
1.247476
1.422231
1.824806
2.167191
2.408324
2.448825
2.342322
2.069313
1.750928
1.750928
1.395605
1.247476
1.242038
1.242225
1.242413
1.2426
1.2426
1.242225
1.247476
1.247476
1.397668
1.850681
2.184254
2.382823
2.445262
2.366135
2.103252
1.78618
1.440794
1.440794
1.252726
1.242225
1.242413
1.2426
1.242788
1.242788
1.242413
1.242225
1.248976
1.248976
1.438731
1.739491
1.908808
1.956435
1.81693
1.525921
1.291539
1.2441
1.2441
1.2426
1.24185
1.242225
1.242788
1.242788
1.242788
1.242225
1.259101
1.6343
1.6343
2.170566
2.536765
2.664644
2.664456
2.655456
2.508264
2.173754
1.784305
1.435356
1.435356
1.254038
1.2426
1.242225
1.242225
1.242225
1.242038
1.249726
1.443419
1.830618
1.830618
2.159691
2.399511
2.437012
2.353759
2.112064
1.785617
1.427106
1.250101
1.242225
1.242225
1.242225
1.2426
1.2426
1.242975
1.242225
1.2426
1.304852
1.670676
2.036312
2.036312
2.311008
2.381135
2.330884
2.094439
1.797055
1.429544
1.251413
1.242225
1.242225
1.242225
1.2426
1.242788
1.2426
1.242413
1.242413
1.291539
1.63955
2.002936
2.002936
2.294695
2.38901
2.346822
2.131002
1.820868
1.460857
1.254788
1.242413
1.242225
1.242225
1.242413
1.2426
1.2426
1.242038
1.242225
1.282539
1.621362
1.997686
2.300883
2.300883
2.386198
2.363697
2.159878
1.848619
1.496858
1.261163
1.242413
1.242038
1.2426
1.2426
1.2426
1.2426
1.242038
1.242225
1.275789
1.589298
1.966747
2.28082
2.383198
2.383198
2.374573
2.173566
1.87562
1.522359
1.258538
1.242225
1.242225
1.242413
1.242413
1.242788
1.242788
1.242413
1.242038
1.267539
1.565673
1.95381
2.273319
2.378697
2.378697
2.377385
2.188004
1.88162
1.530609
1.268476
1.242788
1.242413
1.242413
1.2426
1.2426
1.2426
1.242413
1.242225
1.263789
1.546735
1.930934
2.264319
2.376635
2.376072
2.376072
2.20263
1.904496
1.556485
1.276539
1.242788
1.242038
1.2426
1.2426
1.242788
1.242788
1.242413
1.242038
1.259288
1.529109
1.914621
2.249131
2.380948
2.392948
2.392948
2.21913
1.922309
1.587423
1.287789
1.242975
1.242225
1.2426
1.242788
1.2426
1.2426
1.242413
1.242225
1.252538
1.482608
1.886495
2.210692
2.358634
2.370635
2.215568
2.215568
1.920059
1.575986
1.282539
1.2426
1.242225
1.242413
1.2426
1.242788
1.242413
1.242413
1.242225
1.246913
1.418481
1.823868
2.165879
2.301633
2.332571
2.178629
1.876932
1.876932
1.548047
1.269976
1.242225
1.242413
1.242788
1.242788
1.2426
1.242225
1.244475
1.371417
1.371417
1.764429
2.100627
2.264132
2.298258
2.150128
1.877682
1.518609
1.271101
1.271101
1.242413
1.242225
1.242788
1.242975
1.242788
1.2426
1.242225
1.243725
1.343104
1.343104
1.734991
2.078688
2.258881
2.297883
2.169441
1.892495
1.56361
1.277101
1.242788
1.242788
1.242225
1.2426
1.2426
1.2426
1.2426
1.242225
1.243913
1.357354
1.760866
1.760866
2.107564
2.309508
2.360697
2.254194
1.986811
1.660176
1.329228
1.244288
1.242038
1.242038
1.242413
1.2426
1.242788
1.242413
1.242225
1.245788
1.401605
1.814868
2.156691
2.156691
2.37101
2.423887
2.321696
2.045687
1.766304
1.407793
1.248413
1.242225
1.242225
1.242038
1.242413
1.2426
1.242413
1.242038
1.246726
1.415293
1.831931
2.181817
2.181817
2.412261
2.466263
2.382823
2.127065
1.79968
1.442669
1.252913
1.242225
1.242225
1.242225
1.242413
1.2426
1.242413
1.242225
1.246538
1.403855
1.80793
2.162316
2.389198
2.389198
2.4567
2.383385
2.138503
1.81093
1.450544
1.254413
1.242225
1.242225
1.242413
1.242413
1.242788
1.242413
1.242225
1.244475
1.366917
1.773429
2.131752
2.372323
2.372323
2.447887
2.385448
2.14544
1.819931
1.454857
1.254413
1.242413
1.242225
1.242413
1.242413
1.2426
1.2426
1.242225
1.243725
1.344604
1.743428
2.099689
2.371385
2.452575
2.452575
2.396698
2.153503
1.838306
1.498921
1.260038
1.242225
1.242225
1.242225
1.242413
1.242413
1.2426
1.242225
1.242975
1.334291
1.70949
2.078688
2.361072
2.43945
2.392761
2.392761
2.173379
1.857994
1.504171
1.263414
1.242413
1.242225
1.242413
1.242413
1.242413
1.242413
1.242225
1.242788
1.320603
1.690739
2.05675
2.353009
2.437199
2.405886
2.405886
2.189317
1.87787
1.529484
1.269976
1.242413
1.242225
1.242413
1.2426
1.2426
1.2426
1.242225
1.2426
1.301102
1.651738
2.029749
2.336696
2.427636
2.402698
2.20638
2.20638
1.903933
1.54636
1.274851
1.2426
1.242038
1.242413
1.242413
1.2426
1.242413
1.242413
1.242413
1.294727
1.632612
2.014936
2.324134
2.428387
2.415449
2.22138
2.22138
1.917434
1.571673
1.285539
1.242788
1.242038
1.242413
1.2426
1.2426
1.242225
1.242225
1.242413
1.284039
1.599049
1.996936
2.312883
2.427636
2.425761
2.238443
1.939184
1.939184
1.596424
1.29979
1.243163
1.242038
1.242413
1.242413
1.2426
1.242413
1.242413
1.242413
1.277664
1.583111
1.983248
2.306695
2.430449
2.433637
2.268632
1.96506
1.617987
1.617987
1.30654
1.243351
1.242038
1.242413
1.242788
1.242788
1.242225
1.242225
1.270351
1.270351
1.560798
1.962435
2.293758
2.425386
2.438324
2.281945
1.986811
1.645363
1.645363
1.32379
1.243913
1.242225
1.242413
1.2426
1.2426
1.242413
1.242038
1.260601
1.260601
1.531922
1.936934
2.272382
2.422761
2.438137
2.296383
2.010999
1.664488
1.328478
1.328478
1.244288
1.24185
1.242413
1.2426
1.2426
1.242225
1.242225
1.258726
1.510921
1.510921
1.921559
2.258319
2.417699
2.447512
2.310821
2.029187
1.692614
1.349666
1.245225
1.245225
1.242413
1.242413
1.2426
1.2426
1.2426
1.242038
1.254601
1.482983
1.888558
1.888558
2.230381
2.407011
2.441512
2.312133
2.035937
1.704427
1.358479
1.2456
1.2456
1.242225
1.242413
1.2426
1.2426
1.242413
1.242225
1.252538
1.47042
1.873557
1.873557
2.209755
2.409636
2.450887
2.329384
2.052063
1.719052
1.365792
1.245975
1.242038
1.242038
1.242413
1.242413
1.242788
1.242413
1.242225
1.246913
1.411168
1.822743
2.152191
2.152191
2.36576
2.405511
2.303695
2.032375
1.700114
1.356604
1.245788
1.242225
1.242225
1.242225
1.2426
1.242788
1.2426
1.242225
1.246726
1.403105
1.812243
2.164191
2.164191
2.389573
2.441887
2.342134
2.087876
1.763679
1.40798
1.249163
1.242225
1.242413
1.242413
1.2426
1.242788
1.2426
1.242038
1.246351
1.400855
1.805305
2.154816
2.388073
2.388073
2.4522
2.368385
2.118252
1.78918
1.436856
1.252726
1.242225
1.242413
1.242413
1.242413
1.2426
1.242413
1.242225
1.245038
1.376667
1.781492
2.13194
2.383198
2.451637
2.451637
2.376635
2.144691
1.816555
1.453357
1.254788
1.242225
1.242038
1.2426
1.2426
1.242413
1.2426
1.242038
1.2441
1.364854
1.761616
2.109814
2.388823
2.454638
2.454638
2.390698
2.158753
1.845806
1.483545
1.258538
1.242413
1.242225
1.242413
1.242788
1.242788
1.242413
1.242038
1.243725
1.350416
1.733865
2.091251
2.36951
2.451262
2.408511
2.408511
2.188754
1.868307
1.513359
1.266226
1.242225
1.242038
1.242225
1.2426
1.242788
1.242788
1.242038
1.243163
1.340853
1.728428
2.103814
2.395948
2.4732
2.413011
2.178442
2.178442
1.821431
1.423918
1.246163
1.242225
1.242413
1.242975
1.243163
1.243351
1.243351
1.242975
1.242413
1.242225
1.292664
1.625675
2.12369
2.413949
2.416386
2.148253
2.148253
1.78918
1.422793
1.261539
1.243163
1.242225
1.2426
1.242225
1.242038
1.244475
1.244475
1.303915
1.640675
2.010062
2.380385
2.60708
2.664644
2.651706
2.496639
2.161003
2.161003
1.784117
1.40498
1.248038
1.242413
1.242225
1.242413
1.242413
1.242413
1.242225
1.242225
1.277289
1.575611
1.959247
2.266569
2.36801
2.363322
2.173941
1.872995
1.872995
1.523672
1.266601
1.2426
1.242038
1.242413
1.242788
1.2426
1.2426
1.242225
1.242225
1.258163
1.521234
1.908246
2.239381
2.357884
2.361259
2.188004
1.891745
1.540547
1.540547
1.271664
1.2426
1.242038
1.242225
1.242788
1.242788
1.242413
1.242413
1.255726
1.255726
1.500608
1.891558
2.226443
2.360884
2.370447
2.209942
1.913683
1.575798
1.284414
1.284414
1.242788
1.242225
1.2426
1.2426
1.2426
1.242225
1.242038
1.253288
1.486545
1.486545
1.887058
2.216505
2.35976
2.384885
2.232256
1.932059
1.593986
1.294352
1.294352
1.243163
1.242038
1.2426
1.2426
1.242788
1.2426
1.242225
1.250476
1.462545
1.462545
1.872995
2.199442
2.352259
2.38976
2.247444
1.958122
1.622675
1.307665
1.243351
1.243351
1.242225
1.2426
1.242413
1.242788
1.2426
1.242038
1.248226
1.441169
1.853494
1.853494
2.188754
2.351322
2.393698
2.261694
1.981935
1.6463
1.319103
1.243913
1.242038
1.242038
1.2426
1.2426
1.2426
1.242413
1.242225
1.247101
1.419231
1.827056
1.827056
2.160254
2.345134
2.390511
2.265069
1.982873
1.650613
1.322103
1.243913
1.242225
1.242225
1.242413
1.2426
1.2426
1.242413
1.242038
1.2456
1.392043
1.791617
2.127815
2.127815
2.324321
2.360322
2.248569
1.991686
1.659988
1.324728
1.243913
1.242225
1.242413
1.242413
1.2426
1.242975
1.242413
1.242225
1.243725
1.340103
1.725615
2.070063
2.284382
2.284382
2.329759
2.229068
1.96731
1.63055
1.308977
1.243163
1.242225
1.2426
1.242788
1.242788
1.242975
1.242788
1.242413
1.2426
1.290414
1.639738
1.988123
2.214255
2.214255
2.270507
2.178254
1.928309
1.597174
1.291539
1.242788
1.242225
1.2426
1.242975
1.242975
1.242975
1.242413
1.242413
1.275226
1.608987
1.95156
2.185004
2.252694
2.171316
2.171316
1.920246
1.607112
1.295477
1.243163
1.242413
1.242788
1.242788
1.242975
1.242788
1.242788
1.242413
1.242413
1.268851
1.583673
1.937497
2.203755
2.276695
2.218755
1.981561
1.981561
1.668801
1.338416
1.2441
1.242225
1.242413
1.242788
1.242788
1.242975
1.242225
1.242225
1.242413
1.288914
1.647613
2.015687
2.29057
2.366697
2.311571
2.091626
1.779804
1.779804
1.431794
1.251976
1.242225
1.242225
1.2426
1.242788
1.2426
1.242038
1.2426
1.2426
1.320603
1.686427
2.046813
2.352259
2.436825
2.399698
2.180129
1.870182
1.870182
1.519171
1.266414
1.2426
1.242225
1.242413
1.2426
1.2426
1.242038
1.242788
1.242788
1.327541
1.697489
2.068188
2.375698
2.468138
2.434199
2.229631
1.914246
1.564735
1.564735
1.278789
1.242788
1.242413
1.2426
1.2426
1.2426
1.242413
1.242788
1.307102
1.307102
1.661488
2.053
2.358447
2.453887
2.435699
2.233568
1.920996
1.571673
1.288539
1.288539
1.242788
1.242225
1.2426
1.2426
1.2426
1.242225
1.242413
1.297915
1.639175
1.639175
2.019812
2.334446
2.449762
2.428574
2.237506
1.942934
1.593986
1.296414
1.296414
1.243163
1.242225
1.242413
1.2426
1.2426
1.242225
1.242225
1.285164
1.602986
1.602986
1.993373
2.311008
2.426887
2.425761
2.245194
1.950247
1.601111
1.296414
1.243163
1.243163
1.242038
1.242413
1.242413
1.2426
1.242225
1.242038
1.269789
1.570923
1.975185
1.975185
2.292258
2.419199
2.427262
2.255319
1.959622
1.614799
1.30504
1.243351
1.242038
1.242038
1.242413
1.2426
1.242413
1.242413
1.242225
1.264539
1.548047
1.943872
1.943872
2.274444
2.412074
2.423887
2.263381
1.970498
1.626237
1.312353
1.243351
1.242225
1.242225
1.242413
1.2426
1.242975
1.242413
1.242038
1.259663
1.517671
1.927934
2.260007
2.260007
2.416574
2.437199
2.281007
1.990936
1.663363
1.332416
1.244288
1.242038
1.242413
1.242413
1.2426
1.2426
1.242225
1.242038
1.256663
1.505108
1.907683
2.243693
2.413199
2.413199
2.43945
2.30482
2.023937
1.689989
1.346854
1.245225
1.242038
1.242413
1.242413
1.242413
1.2426
1.242413
1.242225
1.252726
1.470045
1.884058
2.22363
2.402323
2.402323
2.442262
2.318883
2.045687
1.711177
1.365979
1.245788
1.242225
1.2426
1.2426
1.2426
1.242788
1.242413
1.242225
1.248601
1.448669
1.871307
2.209942
2.402886
2.449762
2.449762
2.341572
2.071938
1.735928
1.379667
1.246913
1.242225
1.242225
1.242413
1.2426
1.2426
1.242413
1.242225
1.247851
1.424106
1.838119
2.179379
2.386573
2.443574
2.349634
2.349634
2.083189
1.752616
1.40123
1.249351
1.242038
1.242225
1.2426
1.2426
1.2426
1.242413
1.242038
1.246726
1.407793
1.823493
2.154816
2.397823
2.445825
2.354509
2.354509
2.097814
1.773429
1.419418
1.249538
1.242225
1.242413
1.2426
1.2426
1.242413
1.242413
1.242038
1.245225
1.382292
1.781492
2.135128
2.373447
2.422199
2.345509
2.102689
2.102689
1.780929
1.422793
1.249538
1.242225
1.242225
1.2426
1.242788
1.2426
1.242413
1.242413
1.243163
1.32454
1.709865
2.059188
2.312508
2.378323
2.309508
2.078126
1.749053
1.749053
1.397668
1.248038
1.242225
1.242225
1.242788
1.242788
1.2426
1.242413
1.242413
1.242975
1.326041
1.705927
2.071751
2.347009
2.419761
2.363697
2.136065
1.817305
1.817305
1.458795
1.254226
1.242225
1.242225
1.242413
1.2426
1.2426
1.242225
1.243351
1.243351
1.330166
1.705177
2.069126
2.354509
2.427824
2.38376
2.164191
1.843744
1.488795
1.488795
1.260976
1.242413
1.242225
1.242413
1.242788
1.2426
1.242225
1.242788
1.316665
1.316665
1.685489
2.059375
2.356009
2.434199
2.39126
2.191942
1.884433
1.529672
1.529672
1.268851
1.242413
1.242413
1.242413
1.2426
1.242413
1.242225
1.242413
1.30654
1.30654
1.657926
2.028999
2.334446
2.436825
2.408511
2.210692
1.898495
1.545235
1.276164
1.276164
1.2426
1.242038
1.242413
1.242788
1.2426
1.242413
1.242413
1.293414
1.626425
1.626425
2.014187
2.326196
2.422761
2.405699
2.21913
1.922121
1.561735
1.284602
1.242975
1.242975
1.242225
1.242413
1.2426
1.242413
1.242413
1.242413
1.286664
1.621924
2.007249
2.007249
2.337446
2.456325
2.450512
2.246694
1.933934
1.555735
1.264726
1.242225
1.242225
1.242413
1.242975
1.242975
1.243163
1.242788
1.2426
1.242225
1.282352
1.605799
1.605799
1.940122
2.287382
2.470201
2.35901
1.994686
1.601674
1.286289
1.243163
1.242038
1.242038
1.242225
1.242038
1.242413
1.245038
1.287789
1.561548
1.907496
2.29432
2.565453
2.565453
2.654894
2.664456
2.550078
2.241256
1.871495
1.491796
1.257413
1.242413
1.242225
1.242225
1.242225
1.2426
1.242225
1.242225
1.259288
1.497421
1.896058
2.212755
2.212755
2.346259
2.352447
2.204317
1.915746
1.57111
1.284414
1.242975
1.242225
1.242413
1.242413
1.2426
1.2426
1.2426
1.242038
1.248413
1.439294
1.832306
2.163253
2.323383
2.323383
2.36276
2.223068
1.932246
1.593611
1.289477
1.243163
1.242225
1.242413
1.242788
1.242788
1.242788
1.242413
1.242038
1.247101
1.417918
1.831743
2.164379
2.330508
2.369697
2.369697
2.247631
1.965998
1.633925
1.309727
1.243913
1.242225
1.242413
1.2426
1.242788
1.242788
1.2426
1.242225
1.246163
1.404043
1.81543
2.155003
2.338384
2.375323
2.375323
2.256819
1.979498
1.64555
1.32154
1.2441
1.242038
1.242413
1.2426
1.242788
1.242788
1.242788
1.242225
1.245225
1.371229
1.790305
2.12744
2.332196
2.37926
2.264882
2.264882
2.004999
1.667488
1.332603
1.244288
1.242225
1.242413
1.2426
1.242975
1.2426
1.2426
1.242038
1.244663
1.363542
1.753553
2.089751
2.322258
2.374197
2.278944
2.022062
2.022062
1.690927
1.349479
1.244663
1.242038
1.242413
1.2426
1.242788
1.2426
1.2426
1.242225
1.243725
1.346291
1.744553
2.081876
2.30032
2.37101
2.281569
2.029187
2.029187
1.717177
1.364292
1.245788
1.242225
1.2426
1.242788
1.242975
1.2426
1.242225
1.242225
1.242975
1.32154
1.701802
2.050375
2.299008
2.358259
2.27857
2.04475
1.721115
1.721115
1.371042
1.246913
1.242038
1.242413
1.242413
1.242788
1.242788
1.242413
1.242788
1.242788
1.287789
1.64405
2.011749
2.271444
2.338759
2.257756
2.021687
1.690177
1.352479
1.352479
1.244663
1.242225
1.2426
1.242788
1.242788
1.2426
1.242413
1.242225
1.242225
1.267164
1.570735
1.923246
2.207317
2.28457
2.220255
1.985873
1.664301
1.337291
1.337291
1.2441
1.242225
1.242788
1.242788
1.242975
1.242975
1.2426
1.242225
1.258726
1.258726
1.527984
1.887058
2.160816
2.243881
2.20713
1.989623
1.685864
1.338603
1.243913
1.243913
1.242225
1.242413
1.242788
1.242975
1.242975
1.2426
1.242225
1.251976
1.493858
1.493858
1.872245
2.169816
2.249694
2.21538
2.011561
1.703302
1.38248
1.247101
1.247101
1.242038
1.2426
1.2426
1.242975
1.242788
1.242225
1.260601
1.54561
1.938434
2.247444
2.247444
2.353947
2.324321
2.135128
1.829118
1.484858
1.256663
1.2426
1.242413
1.2426
1.2426
1.242788
1.242788
1.242225
1.2426
1.279727
1.595861
1.979873
2.319258
2.430824
2.430824
2.437012
2.242756
1.930934
1.580298
1.286477
1.243163
1.242225
1.242413
1.2426
1.2426
1.2426
1.242413
1.242413
1.292477
1.631675
2.012499
2.324321
2.444887
2.457638
2.457638
2.270882
1.991311
1.632987
1.314603
1.2441
1.242038
1.2426
1.2426
1.2426
1.2426
1.242225
1.242413
1.284414
1.608424
2.010249
2.317758
2.436637
2.445637
2.445637
2.272569
1.978185
1.647613
1.31779
1.243538
1.242413
1.242413
1.2426
1.242788
1.242788
1.242413
1.242038
1.264164
1.544672
1.95756
2.284007
2.438699
2.442262
2.28607
2.28607
1.983998
1.643113
1.318353
1.245038
1.242225
1.242413
1.2426
1.242788
1.242225
1.242225
1.242413
1.258913
1.518421
1.902433
2.247256
2.405324
2.442824
2.289445
1.997873
1.997873
1.654363
1.32229
1.243913
1.242225
1.242413
1.2426
1.2426
1.242413
1.242413
1.242225
1.253476
1.491421
1.891183
2.213318
2.374948
2.417699
2.288132
2.020187
2.020187
1.658676
1.328478
1.245038
1.242038
1.242413
1.2426
1.242788
1.2426
1.242225
1.242225
1.250288
1.455607
1.872245
2.191192
2.379072
2.416199
2.291882
2.023562
1.692614
1.692614
1.351916
1.244288
1.242225
1.242413
1.2426
1.2426
1.242413
1.242038
1.247851
1.247851
1.415668
1.842056
2.185567
2.390886
2.430637
2.320383
2.045875
1.712677
1.367104
1.367104
1.246726
1.242225
1.242225
1.2426
1.242788
1.2426
1.242225
1.247476
1.247476
1.415481
1.810368
2.169629
2.388448
2.441137
2.338384
2.058438
1.744741
1.386605
1.386605
1.247288
1.242038
1.242225
1.2426
1.2426
1.242413
1.242038
1.246726
1.40948
1.40948
1.817118
2.147316
2.363322
2.438512
2.349072
2.103627
1.762929
1.40198
1.249163
1.249163
1.242225
1.242225
1.242413
1.2426
1.2426
1.242225
1.245225
1.386792
1.800617
1.800617
2.141878
2.37701
2.434949
2.353759
2.115627
1.792555
1.457482
1.251788
1.251788
1.242225
1.2426
1.2426
1.2426
1.2426
1.242225
1.244475
1.356791
1.758991
1.758991
2.129128
2.390136
2.440574
2.374948
2.131565
1.80943
1.450169
1.255163
1.242038
1.242038
1.242413
1.242413
1.2426
1.242413
1.242413
1.243538
1.349479
1.728803
2.080001
2.080001
2.360884
2.430824
2.392761
2.146753
1.821806
1.462545
1.255351
1.242225
1.242225
1.242225
1.242413
1.2426
1.242788
1.242038
1.242975
1.333916
1.702552
2.062751
2.062751
2.341197
2.432887
2.387885
2.179566
1.846369
1.491421
1.263976
1.242225
1.242225
1.242225
1.242413
1.2426
1.2426
1.242225
1.242788
1.317228
1.682301
2.061813
2.346259
2.346259
2.425949
2.384135
2.174504
1.863244
1.520484
1.261163
1.242225
1.242225
1.2426
1.2426
1.2426
1.242788
1.242413
1.242413
1.283664
1.619487
1.995998
2.324321
2.398386
2.398386
2.36651
2.156316
1.849369
1.493296
1.260976
1.2426
1.242038
1.2426
1.242788
1.242788
1.2426
1.242413
1.242413
1.279164
1.580673
1.966185
2.286632
2.396698
2.396698
2.406074
2.197942
1.893058
1.537734
1.272976
1.242788
1.242225
1.2426
1.242788
1.242788
1.2426
1.242413
1.242413
1.294165
1.603549
1.986998
2.290007
2.416761
2.419386
2.419386
2.238256
1.929621
1.575986
1.288727
1.243163
1.242038
1.242413
1.242788
1.242788
1.242788
1.242413
1.242413
1.279164
1.587799
1.986811
2.287195
2.411886
2.413574
2.242943
2.242943
1.941247
1.609362
1.293039
1.242975
1.242225
1.242413
1.2426
1.242413
1.242413
1.242413
1.242225
1.262289
1.550297
1.958872
2.290195
2.416761
2.422199
2.258131
2.258131
1.964872
1.621174
1.30504
1.245225
1.242225
1.242413
1.242788
1.2426
1.242413
1.242413
1.242413
1.260976
1.520859
1.919684
2.264507
2.424262
2.457825
2.295445
2.001249
2.001249
1.651363
1.31554
1.243725
1.242225
1.2426
1.2426
1.242975
1.242413
1.242038
1.242038
1.267726
1.535484
1.936559
2.244819
2.408324
2.428949
2.308758
2.040437
1.695802
1.695802
1.360729
1.246538
1.242225
1.242413
1.2426
1.242788
1.242788
1.242413
1.242413
1.242413
1.271289
1.560798
1.828556
1.954747
1.935247
1.760116
1.462732
1.266601
1.266601
1.242413
1.242038
1.242413
1.2426
1.242788
1.242975
1.2426
1.242038
1.259288
1.259288
1.606362
2.177691
2.544453
2.664644
2.664644
2.596392
2.374197
2.009124
1.618549
1.618549
1.329978
1.244851
1.242413
1.242413
1.242413
1.242225
1.2426
1.267539
1.517109
1.517109
1.889495
2.224943
2.398198
2.415449
2.276695
2.007624
1.671426
1.329228
1.329228
1.243913
1.242225
1.2426
1.2426
1.242788
1.242788
1.242225
1.246538
1.377042
1.377042
1.768366
2.093502
2.326946
2.386948
2.289257
2.045687
1.692989
1.348354
1.245225
1.245225
1.242038
1.242413
1.242788
1.2426
1.242413
1.242413
1.243725
1.352291
1.756554
1.756554
2.093502
2.324883
2.373073
2.293945
2.047563
1.742678
1.375729
1.245788
1.242225
1.242225
1.242413
1.242788
1.242788
1.242788
1.242225
1.243538
1.330916
1.725053
2.074376
2.074376
2.340634
2.38601
2.310821
2.068751
1.739303
1.39448
1.250851
1.242038
1.242038
1.242413
1.2426
1.2426
1.2426
1.242225
1.243163
1.324728
1.678739
2.054688
2.054688
2.320196
2.407198
2.330884
2.090501
1.769116
1.406293
1.248226
1.242225
1.242413
1.242413
1.2426
1.242788
1.2426
1.242225
1.242788
1.320978
1.682114
2.033312
2.309883
2.309883
2.397073
2.347009
2.132878
1.797617
1.437231
1.252913
1.242038
1.242413
1.2426
1.2426
1.2426
1.2426
1.242413
1.2426
1.306915
1.683239
2.033687
2.310446
2.310446
2.38376
2.352634
2.139628
1.821806
1.468732
1.253851
1.242413
1.242225
1.2426
1.2426
1.2426
1.2426
1.242413
1.2426
1.291164
1.638988
2.015499
2.329946
2.400636
2.400636
2.37176
2.154816
1.841119
1.491796
1.261163
1.242413
1.242225
1.2426
1.242788
1.242788
1.242788
1.242413
1.242038
1.282164
1.583298
1.983998
2.293383
2.398573
2.37251
2.37251
2.163441
1.850494
1.487858
1.257601
1.242038
1.242225
1.2426
1.242788
1.242788
1.242788
1.242413
1.242225
1.268101
1.547485
1.928496
2.227193
2.334259
2.327883
2.327883
2.150128
1.825368
1.46667
1.253663
1.242038
1.242413
1.2426
1.242788
1.242788
1.242788
1.2426
1.242038
1.253101
1.500421
1.881995
2.185567
2.29357
2.295258
2.125002
2.125002
1.81393
1.475483
1.251788
1.242038
1.242413
1.242788
1.242788
1.242788
1.2426
1.2426
1.242413
1.247663
1.425043
1.839056
2.165879
2.282507
2.281007
2.110564
1.813743
1.813743
1.465732
1.257226
1.242413
1.242225
1.242788
1.242788
1.242788
1.2426
1.2426
1.242413
1.247476
1.420356
1.836431
2.176941
2.317571
2.340634
2.175442
1.886495
1.886495
1.538672
1.270164
1.2426
1.242413
1.2426
1.242788
1.242975
1.242413
1.242225
1.242225
1.470045
1.879745
2.194567
2.36201
2.395761
2.271069
1.975185
1.62905
1.307665
1.243351
1.243351
1.242225
1.2426
1.2426
1.2426
1.242413
1.242225
1.253476
1.478295
1.478295
1.89287
2.228318
2.386573
2.428574
2.291507
2.011749
1.690739
1.330353
1.244475
1.244475
1.242413
1.242225
1.242788
1.2426
1.2426
1.242413
1.250288
1.462732
1.876182
1.876182
2.219693
2.393136
2.421449
2.29732
2.025062
1.692802
1.357729
1.245788
1.242225
1.242225
1.242225
1.242788
1.2426
1.2426
1.242225
1.248788
1.423168
1.834556
2.180317
2.180317
2.37551
2.429324
2.305758
2.021499
1.692614
1.347979
1.244663
1.242038
1.242038
1.242225
1.2426
1.242788
1.2426
1.242038
1.2456
1.392043
1.803243
2.127627
2.127627
2.353947
2.401948
2.297695
2.034062
1.700864
1.352104
1.245413
1.242225
1.242413
1.242413
1.2426
1.242788
1.2426
1.242225
1.244288
1.369354
1.780367
2.109627
2.346822
2.346822
2.396511
2.302008
2.050562
1.71699
1.361667
1.2456
1.242038
1.242413
1.2426
1.2426
1.242788
1.2426
1.242225
1.243913
1.342541
1.741366
2.101002
2.340822
2.400448
2.400448
2.321133
2.065001
1.742491
1.384542
1.246538
1.242225
1.242413
1.2426
1.2426
1.242788
1.2426
1.242413
1.243163
1.331291
1.71624
2.074001
2.330884
2.392761
2.392761
2.323383
2.081313
1.755241
1.392605
1.247288
1.242225
1.242413
1.2426
1.242788
1.242788
1.242788
1.242225
1.242975
1.324915
1.701052
2.049625
2.326009
2.390511
2.332009
2.332009
2.097439
1.777742
1.417356
1.248788
1.242038
1.242413
1.242413
1.242788
1.2426
1.2426
1.242413
1.2426
1.30954
1.676864
2.04475
2.331634
2.404761
2.37626
2.37626
2.155753
1.852744
1.474545
1.254788
1.242225
1.242225
1.242413
1.242413
1.2426
1.2426
1.242225
1.2426
1.31104
1.667488
2.044187
2.338946
2.414136
2.381135
2.161941
2.161941
1.841119
1.48317
1.269601
1.242225
1.242225
1.2426
1.242788
1.2426
1.242413
1.242413
1.242225
1.289664
1.611237
2.013249
2.317758
2.416011
2.379822
2.172441
1.852369
1.852369
1.494608
1.258726
1.2426
1.242225
1.2426
1.242788
1.242788
1.242413
1.242225
1.242225
1.281977
1.599424
1.96881
2.282695
2.386198
2.358259
2.166254
1.854057
1.854057
1.497608
1.259663
1.242413
1.242225
1.2426
1.242788
1.2426
1.242413
1.242038
1.242038
1.265476
1.555547
1.944622
2.253444
2.366135
2.363884
2.175816
1.871307
1.515609
1.515609
1.262289
1.242413
1.242225
1.242413
1.2426
1.2426
1.2426
1.242038
1.260038
1.260038
1.524234
1.932059
2.244444
2.372885
2.368385
2.195317
1.88987
1.542422
1.269976
1.269976
1.242413
1.242038
1.2426
1.242788
1.242788
1.2426
1.242225
1.254413
1.254413
1.494983
1.903933
2.225693
2.363322
2.37401
2.20713
1.908808
1.564923
1.275789
1.275789
1.2426
1.242225
1.242413
1.242788
1.242788
1.2426
1.242225
1.248976
1.443419
1.443419
1.848056
2.168316
2.317571
2.337634
2.181442
1.885745
1.532484
1.264539
1.242413
1.242413
1.242413
1.2426
1.242788
1.242975
1.2426
1.242225
1.246913
1.410981
1.81468
1.81468
2.151628
2.320008
2.344384
2.206755
1.920059
1.574861
1.279539
1.242975
1.242225
1.242225
1.242413
1.242788
1.242788
1.2426
1.242225
1.246913
1.419606
1.840556
1.840556
2.155566
2.346634
2.376822
2.247069
1.969748
1.619487
1.302602
1.243163
1.242413
1.242413
1.2426
1.242788
1.242788
1.2426
1.242413
1.246163
1.396168
1.813555
2.152191
2.152191
2.336321
2.381323
2.263194
1.989998
1.651738
1.319103
1.243351
1.242225
1.242413
1.242413
1.2426
1.242788
1.2426
1.242225
1.2456
1.38773
1.791617
2.135503
2.337446
2.337446
2.38226
2.28382
2.000874
1.667676
1.327165
1.243913
1.242225
1.2426
1.2426
1.2426
1.242975
1.2426
1.242225
1.244663
1.371604
1.771742
2.114127
2.337071
2.337071
2.381135
2.281945
2.024312
1.687739
1.342728
1.244475
1.242413
1.2426
1.2426
1.2426
1.242975
1.2426
1.242225
1.244288
1.365417
1.753741
2.087314
2.318696
2.386948
2.386948
2.305758
2.05525
1.742866
1.385105
1.245975
1.242225
1.2426
1.242788
1.242975
1.242975
1.243163
1.242788
1.242225
1.2441
1.356041
1.620049
1.847494
1.864744
1.864744
1.72674
1.520671
1.285727
1.249913
1.242788
1.242225
1.242788
1.242975
1.242975
1.242975
1.2426
1.242038
1.271664
1.660363
2.110002
2.469075
2.648893
2.664644
2.63258
2.63258
2.438137
2.068376
1.680989
1.353041
1.245225
1.242225
1.242413
1.242413
1.242413
1.242413
1.242225
1.2441
1.360167
1.718678
2.043437
2.294883
2.341947
2.269944
2.047
2.047
1.70799
1.358292
1.244663
1.242038
1.242225
1.2426
1.242788
1.242975
1.2426
1.2426
1.242038
1.271289
1.570548
1.946122
2.234881
2.317571
2.266007
2.032
2.032
1.720365
1.374042
1.245413
1.242225
1.2426
1.242975
1.242788
1.242788
1.242413
1.242413
1.242038
1.265289
1.548797
1.920434
2.221755
2.308008
2.280632
2.066313
1.748116
1.748116
1.395043
1.246913
1.242038
1.242413
1.242788
1.242975
1.242788
1.2426
1.242225
1.242225
1.259476
1.533422
1.907121
2.21013
2.308008
2.293945
2.093689
1.778492
1.418106
1.418106
1.248226
1.242225
1.242413
1.2426
1.242788
1.242975
1.2426
1.242038
1.242038
1.254038
1.502296
1.888558
2.194567
2.297883
2.311196
2.111315
1.79968
1.452794
1.452794
1.251038
1.242225
1.242413
1.242413
1.242788
1.242788
1.242413
1.242225
1.252538
1.252538
1.486358
1.874682
2.182004
2.302383
2.301258
2.116377
1.803992
1.463857
1.252351
1.252351
1.242225
1.242413
1.242788
1.242788
1.242975
1.2426
1.242225
1.249351
1.457107
1.457107
1.853307
2.178629
2.308196
2.310071
2.146003
1.835681
1.49292
1.255538
1.242225
1.242225
1.242413
1.242788
1.2426
1.242975
1.2426
1.242225
1.247663
1.431419
1.431419
1.823681
2.152378
2.29207
2.30482
2.139253
1.837744
1.508109
1.258726
1.242413
1.242413
1.242413
1.2426
1.242788
1.242975
1.242788
1.242038
1.245225
1.389605
1.78918
1.78918
2.114877
2.269944
2.287382
2.13269
1.836806
1.491796
1.257226
1.242413
1.242225
1.242225
1.2426
1.242975
1.242975
1.242788
1.242413
1.243913
1.351166
1.727865
2.048312
2.048312
2.220443
2.243693
2.103252
1.808868
1.463295
1.251601
1.242225
1.242225
1.242225
1.2426
1.242975
1.243163
1.242788
1.242225
1.242975
1.302602
1.665613
1.991686
1.991686
2.181067
2.218005
2.091064
1.80943
1.466482
1.251976
1.242225
1.242413
1.242975
1.242975
1.242975
1.243351
1.242788
1.2426
1.2426
1.283852
1.625487
1.962622
2.160254
2.160254
2.200005
2.087876
1.818431
1.484108
1.255163
1.242225
1.242225
1.242788
1.242975
1.242975
1.243163
1.242788
1.242413
1.242788
1.300352
1.666738
2.010436
2.226068
2.274819
2.274819
2.189879
1.909183
1.578986
1.288352
1.242788
1.242413
1.242788
1.242788
1.242788
1.242975
1.242788
1.242225
1.243163
1.331291
1.715677
2.065938
2.348509
2.258881
2.008374
2.008374
1.679114
1.338791
1.244475
1.242225
1.2426
1.2426
1.242788
1.2426
1.242225
1.242225
1.243725
1.342353
1.731428
2.081501
2.335009
2.384323
2.30107
2.048312
1.71324
1.71324
1.365792
1.2456
1.242038
1.242413
1.242788
1.242788
1.2426
1.242225
1.243163
1.243163
1.324728
1.699177
2.060688
2.322446
2.380198
2.311383
2.073063
1.738741
1.37423
1.37423
1.245225
1.242038
1.2426
1.2426
1.242788
1.242788
1.242225
1.242038
1.242038
1.280852
1.608424
1.96356
2.234693
2.297132
2.240693
2.002186
1.677426
1.338603
1.338603
1.2441
1.242413
1.2426
1.242788
1.243163
1.242975
1.2426
1.242225
1.263976
1.263976
1.550297
1.923621
2.209567
2.278757
2.229818
2.002186
1.676114
1.337666
1.243913
1.243913
1.242225
1.2426
1.242975
1.242975
1.242975
1.2426
1.242225
1.257601
1.519734
1.519734
1.887245
2.177879
2.260382
2.224568
2.004249
1.674614
1.336728
1.2441
1.2441
1.242038
1.2426
1.242788
1.243163
1.242975
1.2426
1.242413
1.251601
1.475295
1.475295
1.849369
2.155941
2.244256
2.217255
2.017561
1.702927
1.355291
1.244288
1.242225
1.242225
1.2426
1.243163
1.242975
1.242975
1.242788
1.242225
1.248976
1.449044
1.827806
1.827806
2.133628
2.239193
2.22438
2.029187
1.71324
1.368604
1.245413
1.242038
1.242413
1.242413
1.242975
1.242975
1.242975
1.2426
1.242225
1.247288
1.431794
1.824806
1.824806
2.138128
2.246131
2.231506
2.05
1.740991
1.387917
1.246163
1.242225
1.2426
1.2426
1.242788
1.242975
1.242788
1.2426
1.242225
1.245975
1.407793
1.802118
2.118065
2.118065
2.239943
2.247069
2.075126
1.767991
1.419606
1.247288
1.242038
1.2426
1.242788
1.242788
1.242975
1.242975
1.2426
1.242038
1.245413
1.386792
1.778867
2.105127
2.242381
2.242381
2.242568
2.077751
1.780367
1.438544
1.249163
1.242038
1.2426
1.242975
1.242975
1.242975
1.243163
1.242788
1.242225
1.244475
1.37423
1.762179
2.089376
2.243131
2.243131
2.256631
2.098189
1.816555
1.463857
1.250476
1.242225
1.242413
1.2426
1.242788
1.242788
1.242975
1.242788
1.242225
1.243913
1.349291
1.746053
2.076438
2.238443
2.254944
2.254944
2.119002
1.826306
1.47867
1.253663
1.242413
1.242225
1.242788
1.242975
1.242975
1.242975
1.242788
1.242225
1.243538
1.337291
1.720178
2.048875
2.229443
2.259444
2.123877
2.123877
1.837368
1.496296
1.256476
1.242225
1.242413
1.242788
1.243163
1.243163
1.243163
1.242975
1.242225
1.243163
1.316665
1.692614
2.033124
2.232068
2.271257
2.152753
2.152753
1.868495
1.522359
1.260788
1.242225
1.242225
1.242788
1.242975
1.242975
1.242788
1.242788
1.242413
1.242975
1.308977
1.679301
2.008749
2.221005
2.263757
2.157254
1.881245
1.881245
1.535484
1.265851
1.242225
1.242225
1.242788
1.242975
1.242975
1.242788
1.242413
1.242413
1.2426
1.281789
1.621737
1.96206
2.188379
2.224755
2.128002
1.859119
1.519171
1.519171
1.262851
1.242225
1.242413
1.2426
1.242975
1.243163
1.242975
1.242413
1.242413
1.242225
1.277476
1.608612
1.954935
2.195692
2.262257
2.184629
1.920621
1.584798
1.584798
1.285164
1.2426
1.242225
1.2426
1.242788
1.242975
1.243163
1.242413
1.242413
1.242413
1.276164
1.606174
1.958122
2.209192
2.262444
2.195129
1.946872
1.618737
1.301477
1.301477
1.242975
1.242225
1.2426
1.242975
1.242975
1.242975
1.2426
1.242225
1.268664
1.268664
1.585736
1.940497
2.206005
2.275194
2.20863
1.971623
1.638988
1.309352
1.309352
1.243351
1.242413
1.242788
1.242975
1.243163
1.242975
1.242413
1.242413
1.265289
1.265289
1.569235
1.930184
2.20788
2.270507
2.21763
1.994873
1.671614
1.335041
1.243725
1.243725
1.242413
1.242788
1.242788
1.243163
1.242975
1.2426
1.242038
1.260788
1.539047
1.539047
1.909558
2.207505
2.279882
2.230381
2.020562
1.692052
1.345729
1.244475
1.242225
1.242225
1.2426
1.242788
1.242975
1.242975
1.2426
1.242225
1.259101
1.516734
1.915183
1.915183
2.223255
2.300508
2.256256
2.028624
1.690364
1.316853
1.2426
1.2426
1.2426
1.242975
1.243351
1.243725
1.243538
1.243538
1.242788
1.242225
1.248601
1.435169
1.435169
1.891745
2.219693
2.27632
2.020187
1.649488
1.307102
1.243163
1.242225
1.242225
1.242225
1.242225
1.242038
1.242413
1.242225
1.248038
1.448669
1.827618
2.200942
2.493264
2.493264
2.579516
2.563016
2.352259
2.007436
1.623237
1.287977
1.242413
1.242413
1.2426
1.2426
1.242788
1.242788
1.2426
1.242038
1.246726
1.410418
1.782617
2.091439
2.091439
2.203567
2.202442
2.029374
1.716615
1.376292
1.244851
1.242225
1.242413
1.242788
1.242788
1.242975
1.243163
1.242975
1.242225
1.244288
1.370667
1.753741
2.070813
2.214818
2.214818
2.217068
2.04625
1.740803
1.391292
1.2456
1.242038
1.2426
1.242975
1.243163
1.243163
1.243163
1.242788
1.242413
1.2441
1.362604
1.748866
2.068001
2.223818
2.241631
2.241631
2.089001
1.779242
1.428606
1.249163
1.242413
1.2426
1.242788
1.243163
1.243163
1.243163
1.242788
1.2426
1.243913
1.359792
1.760679
2.089564
2.237318
2.253444
2.253444
2.122002
1.833618
1.488983
1.261351
1.242038
1.242413
1.242788
1.242975
1.243163
1.243163
1.242975
1.242225
1.243538
1.342166
1.730865
2.062563
2.244631
2.253256
2.119565
2.119565
1.833243
1.491796
1.254788
1.242413
1.242413
1.242788
1.242975
1.242975
1.242975
1.242975
1.242413
1.242975
1.310665
1.687176
2.033124
2.221005
2.262632
2.144878
1.850307
1.850307
1.506796
1.258913
1.242038
1.242413
1.242788
1.243163
1.243163
1.242788
1.242788
1.242413
1.242975
1.311415
1.670676
1.994498
2.221005
2.254381
2.139065
1.874307
1.874307
1.515421
1.260976
1.242413
1.2426
1.242788
1.242788
1.242975
1.242975
1.242413
1.242413
1.2426
1.290602
1.651925
1.989623
2.187817
2.227943
2.140565
1.87637
1.535672
1.535672
1.273726
1.242413
1.2426
1.242788
1.242975
1.243163
1.242975
1.2426
1.242413
1.242413
1.269226
1.588173
1.929246
2.173754
2.205255
2.107939
1.837931
1.494608
1.257038
1.257038
1.242225
1.242413
1.242975
1.243351
1.243351
1.243163
1.242788
1.242225
1.242225
1.251038
1.491421
1.840931
2.095376
2.152753
2.070626
1.807368
1.46142
1.252163
1.252163
1.242038
1.2426
1.243163
1.243163
1.243351
1.242975
1.242788
1.242225
1.248413
1.248413
1.452982
1.793492
2.077751
2.143378
2.074188
1.825181
1.478858
1.257038
1.242225
1.242225
1.242413
1.242788
1.243163
1.243163
1.243351
1.242975
1.242225
1.247101
1.457294
1.457294
1.805492
2.082814
2.150691
2.098752
1.868682
1.557985
1.273351
1.242413
1.242413
1.242413
1.242788
1.242975
1.243163
1.243163
1.2426
1.242038
1.254038
1.509421
1.509421
1.887995
2.172254
2.258694
2.203567
1.990186
1.672739
1.335603
1.245038
1.242038
1.242038
1.2426
1.242975
1.242788
1.242975
1.242413
1.242038
1.259476
1.54411
1.943122
1.943122
2.233193
2.329946
2.079813
1.756929
1.39673
1.246913
1.242225
1.242413
1.242788
1.242788
1.242975
1.242788
1.2426
1.242413
1.272039
1.569985
1.940872
2.253444
2.355072
2.355072
2.332196
2.129503
1.80268
1.446419
1.250476
1.242038
1.2426
1.242788
1.242788
1.242788
1.242788
1.2426
1.242225
1.264914
1.55611
1.935622
2.239381
2.341384
2.335571
2.335571
2.134753
1.828931
1.462357
1.252538
1.242225
1.242413
1.2426
1.242788
1.242788
1.242788
1.2426
1.242225
1.256476
1.515984
1.911621
2.221943
2.329946
2.321133
2.321133
2.14094
1.825556
1.464607
1.258163
1.242225
1.242413
1.242975
1.242788
1.242788
1.242788
1.2426
1.242225
1.251038
1.466107
1.878995
2.195129
2.327508
2.323196
2.148441
2.148441
1.842056
1.47867
1.252538
1.242225
1.242413
1.242788
1.242788
1.242788
1.242788
1.242788
1.242225
1.249351
1.446419
1.837744
2.170941
2.318696
2.326009
2.180879
1.860432
1.860432
1.490296
1.257976
1.242225
1.242225
1.242788
1.2426
1.242975
1.2426
1.2426
1.242225
1.247663
1.433481
1.829118
2.159691
2.303695
2.328071
2.184629
1.898683
1.898683
1.538484
1.259476
1.242788
1.242225
1.2426
1.242788
1.242788
1.2426
1.242225
1.242225
1.246538
1.413043
1.812243
2.148066
2.317383
2.346822
2.197567
1.911058
1.564735
1.564735
1.282727
1.2426
1.242413
1.242788
1.242788
1.242975
1.242788
1.242225
1.245225
1.245225
1.373667
1.796867
2.134378
2.323758
2.354134
2.21988
1.931121
1.595486
1.595486
1.285914
1.242788
1.242225
1.242413
1.242975
1.242975
1.2426
1.242413
1.244663
1.244663
1.371792
1.768929
2.11394
2.316633
2.344197
2.226255
1.945934
1.609549
1.291727
1.291727
1.242788
1.242225
1.2426
1.242788
1.242788
1.242788
1.242225
1.243725
1.350229
1.350229
1.756554
2.103627
2.314758
2.344947
2.244256
1.970123
1.62905
1.29979
1.242975
1.242975
1.242225
1.2426
1.2426
1.242975
1.242788
1.242225
1.243351
1.335416
1.335416
1.728428
2.082063
2.317758
2.35976
2.263381
2.000124
1.657738
1.318353
1.243351
1.243351
1.242225
1.242413
1.242788
1.242975
1.242788
1.242413
1.243163
1.325103
1.713615
1.713615
2.055625
2.299195
2.351509
2.279507
2.027499
1.684364
1.335041
1.243725
1.242225
1.242225
1.2426
1.242975
1.242975
1.242975
1.242413
1.2426
1.308602
1.675176
2.031437
2.031437
2.28832
2.345509
2.270882
2.021687
1.682114
1.331103
1.243725
1.242225
1.242413
1.242413
1.242975
1.242975
1.242975
1.242413
1.242413
1.280477
1.620049
1.987936
1.987936
2.264319
2.333509
2.269757
2.027499
1.699177
1.350416
1.244288
1.242225
1.2426
1.2426
1.242788
1.242975
1.242788
1.2426
1.242225
1.287039
1.634675
1.997498
2.282695
2.282695
2.359572
2.313446
2.082814
1.749241
1.392417
1.245975
1.242225
1.242413
1.242788
1.242788
1.242788
1.242788
1.2426
1.242413
1.285352
1.622862
1.990373
2.28457
2.36651
2.36651
2.323008
2.103439
1.782054
1.410418
1.247101
1.242225
1.242413
1.242788
1.242788
1.2426
1.242788
1.242413
1.242038
1.277101
1.597361
1.978935
2.271819
2.367635
2.367635
2.335196
2.123315
1.80343
1.442294
1.250101
1.242225
1.242413
1.2426
1.242788
1.242788
1.242788
1.242413
1.242225
1.269976
1.572235
1.959997
2.265444
2.36951
2.353572
2.353572
2.148628
1.832868
1.473232
1.252913
1.242225
1.242413
1.2426
1.242788
1.2426
1.2426
1.2426
1.242225
1.263601
1.549547
1.942559
2.257569
2.378697
2.377385
2.377385
2.199255
1.890245
1.518609
1.259851
1.242225
1.242413
1.2426
1.242788
1.242975
1.242975
1.242413
1.242413
1.259476
1.524796
1.896808
2.171879
2.262444
2.20938
1.989061
1.989061
1.671988
1.321915
1.2426
1.2426
1.242975
1.243538
1.243351
1.243351
1.242788
1.242788
1.242413
1.284227
1.549172
1.914246
2.196067
2.384698
2.470763
2.459512
2.341009
2.341009
2.099314
1.732928
1.372917
1.246163
1.242038
1.242038
1.242225
1.242038
1.246726
1.246726
1.411918
1.764991
2.151816
2.440762
2.562078
2.568266
2.378885
2.049438
2.049438
1.679864
1.31704
1.243163
1.242225
1.242413
1.242788
1.242975
1.2426
1.242225
1.242225
1.245975
1.411918
1.81918
2.152566
2.315696
2.334634
2.180504
1.879932
1.532297
1.532297
1.263976
1.242413
1.242225
1.242788
1.242975
1.242975
1.2426
1.242413
1.244475
1.244475
1.39298
1.802118
2.137753
2.308946
2.344009
2.20488
1.910496
1.559485
1.274101
1.274101
1.2426
1.242225
1.2426
1.242788
1.242975
1.2426
1.242413
1.244851
1.244851
1.382667
1.805118
2.13719
2.329384
2.344384
2.242756
1.962435
1.605236
1.287414
1.287414
1.242788
1.242038
1.2426
1.242788
1.242975
1.242788
1.242225
1.244475
1.362604
1.362604
1.758991
2.107002
2.316633
2.350009
2.242193
1.965247
1.620612
1.30054
1.243163
1.243163
1.242225
1.242788
1.242788
1.242975
1.242975
1.242225
1.243351
1.342728
1.747553
1.747553
2.089376
2.321508
2.358259
2.253819
1.98006
1.640112
1.30954
1.243163
1.242038
1.242038
1.2426
1.242788
1.242975
1.242788
1.242413
1.243163
1.332228
1.722803
1.722803
2.068751
2.30932
2.358822
2.264132
1.993373
1.652863
1.317415
1.243163
1.242413
1.242413
1.2426
1.2426
1.242975
1.242975
1.242413
1.242788
1.314603
1.692614
2.039875
2.039875
2.289445
2.340259
2.258881
1.998999
1.661113
1.324165
1.243725
1.242225
1.2426
1.2426
1.242975
1.242788
1.242788
1.242413
1.2426
1.296227
1.648363
2.001436
2.266194
2.266194
2.316071
2.242381
1.998623
1.657363
1.321915
1.242975
1.242038
1.242788
1.242788
1.242975
1.243163
1.242975
1.2426
1.242038
1.267164
1.57336
1.934122
2.208817
2.208817
2.267132
2.20488
1.962247
1.62605
1.302977
1.242788
1.242225
1.242788
1.242975
1.242975
1.243163
1.242975
1.242788
1.242225
1.252913
1.496483
1.866245
2.148441
2.215193
2.215193
2.170754
1.938059
1.599049
1.291164
1.2426
1.242413
1.242788
1.243163
1.243163
1.243163
1.243163
1.2426
1.242225
1.248226
1.452982
1.826681
2.12369
2.207692
2.161753
2.161753
1.945372
1.608424
1.297915
1.242788
1.242413
1.242788
1.242975
1.243163
1.243163
1.242975
1.2426
1.242038
1.248976
1.468732
1.854619
2.149753
2.252319
2.228881
2.228881
2.016812
1.70724
1.359792
1.244663
1.242413
1.2426
1.242788
1.242975
1.242975
1.242975
1.242413
1.242225
1.258913
1.526672
1.919309
2.240131
2.341947
2.344009
2.148441
2.148441
1.828931
1.469857
1.252538
1.242225
1.242413
1.242788
1.242975
1.242788
1.242413
1.242413
1.242225
1.271101
1.569048
1.974623
2.288132
2.409823
2.402136
2.217818
2.217818
1.899245
1.540735
1.268476
1.242413
1.242225
1.2426
1.242788
1.242788
1.2426
1.2426
1.242225
1.270539
1.564548
1.96656
2.293008
2.422574
2.422761
2.252881
1.943497
1.943497
1.581611
1.280477
1.2426
1.242225
1.2426
1.242788
1.2426
1.242413
1.242225
1.242225
1.263789
1.539797
1.942559
2.266382
2.417699
2.423699
2.261507
1.940872
1.589674
1.2426
1.2426
1.242225
1.2426
1.242788
1.242788
1.242413
1.242038
1.256476
1.506796
1.913121
1.913121
2.237881
2.407761
2.420511
2.275569
1.976685
1.623987
1.294165
1.242975
1.242975
1.242225
1.2426
1.2426
1.242788
1.2426
1.242225
1.252726
1.482795
1.895495
1.895495
2.222505
2.383385
2.399136
2.257381
1.951935
1.590799
1.281602
1.2426
1.242225
1.242225
1.242413
1.242975
1.2426
1.242413
1.242225
1.247476
1.425981
1.845431
2.173754
2.173754
2.363509
2.387323
2.253819
1.963372
1.614799
1.292664
1.242788
1.242225
1.2426
1.2426
1.242975
1.242788
1.242788
1.242225
1.246726
1.414168
1.828181
2.161191
2.366135
2.366135
2.404573
2.282507
1.997311
1.652113
1.319103
1.243538
1.242225
1.2426
1.2426
1.242788
1.2426
1.2426
1.242225
1.246351
1.407793
1.821243
2.160441
2.379635
2.379635
2.423699
2.318321
2.034062
1.701614
1.349291
1.244663
1.242038
1.2426
1.2426
1.2426
1.242788
1.2426
1.242038
1.245225
1.389792
1.79743
2.149566
2.380948
2.423324
2.423324
2.327696
2.062188
1.726553
1.370104
1.2456
1.242225
1.2426
1.242975
1.242975
1.242975
1.242413
1.242225
1.244288
1.374979
1.769866
2.113752
2.363884
2.410198
2.410198
2.327321
2.071376
1.734803
1.373104
1.245788
1.242225
1.242413
1.242975
1.242788
1.242788
1.242788
1.242413
1.243725
1.358854
1.753553
2.109439
2.37476
2.419386
2.345884
2.345884
2.093502
1.757866
1.397105
1.247101
1.242038
1.242413
1.242788
1.242788
1.2426
1.2426
1.242413
1.243351
1.350791
1.733303
2.094626
2.369322
2.426324
2.373635
2.131002
2.131002
1.793867
1.424293
1.248413
1.242225
1.2426
1.2426
1.242975
1.242788
1.242225
1.242225
1.242788
1.327541
1.704615
2.071751
2.36426
2.429137
2.376822
2.147691
2.147691
1.808868
1.444169
1.250476
1.242038
1.242225
1.2426
1.242788
1.242788
1.242413
1.242413
1.2426
1.315165
1.674614
2.051875
2.344384
2.421637
2.374197
2.152566
1.819555
1.819555
1.450357
1.251226
1.242225
1.242413
1.242788
1.242975
1.242788
1.2426
1.242413
1.242413
1.286852
1.615174
2.000874
2.293758
2.380198
2.351884
2.13794
1.821431
1.46442
1.46442
1.252538
1.242038
1.242413
1.242788
1.242975
1.242975
1.242413
1.242413
1.242413
1.283477
1.608799
2.002749
2.313821
2.405886
2.390511
2.192692
1.873182
1.504733
1.504733
1.256851
1.242413
1.242413
1.2426
1.242788
1.242975
1.242225
1.242225
1.282352
1.282352
1.608424
2.001998
2.314945
2.428199
2.412261
2.224755
1.911246
1.54786
1.269601
1.269601
1.242413
1.242225
1.2426
1.242788
1.242788
1.242413
1.242225
1.278789
1.584423
1.584423
1.980435
2.302758
2.429887
2.418636
2.239006
1.934684
1.567923
1.274289
1.274289
1.2426
1.242225
1.242413
1.242788
1.242788
1.2426
1.242038
1.270164
1.56811
1.56811
1.970685
2.288132
2.425761
2.429699
2.268069
1.958872
1.603736
1.289289
1.242975
1.242975
1.242413
1.242413
1.2426
1.242788
1.2426
1.242038
1.261539
1.518609
1.929621
1.929621
2.256444
2.406261
2.417511
2.268444
1.976685
1.622675
1.290414
1.243351
1.242038
1.242038
1.242413
1.242788
1.2426
1.242413
1.242225
1.259476
1.526484
1.940872
2.246131
2.246131
2.382823
2.364072
2.163441
1.818806
1.412856
1.245225
1.242225
1.242975
1.242975
1.243351
1.243538
1.243725
1.243538
1.242975
1.242225
1.265851
1.713802
2.140378
2.140378
2.297695
2.264132
2.144503
1.900371
1.645363
1.331853
1.247663
1.243538
1.242225
1.242225
1.242225
1.242225
1.242038
1.244288
1.338603
1.691864
2.100439
2.434199
2.615705
2.615705
2.612517
2.470388
2.157441
1.781304
1.400855
1.246726
1.242225
1.2426
1.2426
1.2426
1.242975
1.2426
1.242225
1.245038
1.37798
1.783742
2.12069
2.336884
2.336884
2.376072
2.265632
1.992061
1.646488
1.308602
1.243163
1.242038
1.2426
1.242788
1.242788
1.242975
1.242788
1.242225
1.244288
1.358292
1.765366
2.115439
2.340634
2.383573
2.383573
2.285507
2.011374
1.672739
1.322103
1.243538
1.242225
1.242413
1.242788
1.242975
1.242975
1.242788
1.242225
1.243913
1.365979
1.765554
2.113752
2.352447
2.400448
2.309508
2.309508
2.04925
1.705927
1.346666
1.244288
1.242038
1.2426
1.242788
1.242788
1.242788
1.242788
1.242225
1.243351
1.351541
1.743428
2.094439
2.352822
2.408324
2.334071
2.334071
2.076813
1.738366
1.370854
1.2456
1.242225
1.2426
1.2426
1.242788
1.242788
1.242788
1.242225
1.242788
1.333166
1.710052
2.070251
2.341197
2.396511
2.329009
2.087501
2.087501
1.755616
1.387355
1.246163
1.242225
1.2426
1.242788
1.242788
1.242788
1.242413
1.242413
1.242413
1.313478
1.677051
2.045875
2.320008
2.39126
2.328259
2.094439
1.766117
1.766117
1.395793
1.246351
1.242038
1.242413
1.242788
1.242788
1.2426
1.242413
1.242413
1.242413
1.306915
1.656801
2.025812
2.322446
2.395948
2.344384
2.120877
1.790867
1.790867
1.422418
1.248413
1.242225
1.242413
1.242788
1.242788
1.242975
1.242413
1.242225
1.242225
1.293789
1.641425
2.022249
2.328446
2.408324
2.382823
2.168691
1.831368
1.453919
1.453919
1.251413
1.242225
1.242413
1.242788
1.242975
1.242975
1.242413
1.242038
1.269601
1.269601
1.56886
1.95156
2.254381
2.341197
2.316258
2.105877
1.779617
1.413793
1.246913
1.246913
1.242225
1.242225
1.242788
1.243163
1.242975
1.2426
1.242225
1.256663
1.256663
1.515984
1.903371
2.20113
2.310821
2.294508
2.098752
1.766866
1.403855
1.246351
1.246351
1.242413
1.242413
1.242788
1.242975
1.242975
1.242788
1.242225
1.250663
1.469107
1.469107
1.861744
2.172629
2.28982
2.277257
2.090501
1.771929
1.416981
1.247288
1.242225
1.242225
1.2426
1.242788
1.243163
1.242975
1.242788
1.242225
1.248226
1.445294
1.841869
1.841869
2.165129
2.29882
2.296945
2.132128
1.826681
1.464795
1.251413
1.242225
1.242225
1.242413
1.242788
1.242975
1.242788
1.2426
1.242413
1.252351
1.484295
1.890995
1.890995
2.211255
2.362572
2.371385
2.221005
1.908808
1.551422
1.269414
1.242413
1.242413
1.242413
1.2426
1.242975
1.242788
1.242788
1.242413
1.257976
1.510734
1.917808
2.245006
2.245006
2.400823
2.415449
2.272382
1.975748
1.6238
1.29904
1.243163
1.242225
1.2426
1.2426
1.242788
1.242788
1.2426
1.242413
1.254976
1.506046
1.920059
2.235443
2.417511
2.417511
2.424262
2.29357
1.996936
1.642925
1.306352
1.243538
1.242225
1.242413
1.242413
1.2426
1.2426
1.2426
1.242038
1.252351
1.473232
1.888745
2.217818
2.413574
2.413574
2.438887
2.30557
2.020374
1.668801
1.327728
1.2441
1.242413
1.2426
1.242788
1.242788
1.242788
1.242413
1.242413
1.249163
1.447357
1.865119
2.191192
2.403261
2.440387
2.440387
2.319258
2.035
1.687364
1.338228
1.244475
1.242225
1.2426
1.242788
1.242975
1.242975
1.2426
1.242225
1.246913
1.421106
1.834743
2.170191
2.386385
2.427824
2.427824
2.326384
2.049813
1.699927
1.341228
1.2441
1.242225
1.242788
1.2426
1.242788
1.242225
1.242225
1.245225
1.397293
1.809055
2.149941
2.39201
2.431012
2.336509
2.070813
1.727115
1.727115
1.359604
1.244851
1.242038
1.242413
1.2426
1.2426
1.2426
1.242225
1.242225
1.2441
1.375729
1.775117
2.121627
2.37176
2.422949
2.346259
2.082251
1.740053
1.740053
1.372917
1.245413
1.242038
1.242413
1.242788
1.242788
1.242788
1.242413
1.243351
1.243351
1.355291
1.750554
2.103064
2.364822
2.418261
2.343446
2.094251
1.749616
1.37948
1.37948
1.246538
1.24185
1.242413
1.242788
1.242788
1.2426
1.242225
1.242975
1.341416
1.341416
1.724115
2.092376
2.35901
2.421262
2.359947
2.12219
1.789367
1.420918
1.420918
1.247851
1.242038
1.242413
1.242788
1.242975
1.242788
1.242413
1.242788
1.332603
1.332603
1.71249
2.081688
2.36801
2.43645
2.383573
2.147128
1.810555
1.440981
1.249726
1.249726
1.242038
1.242413
1.2426
1.2426
1.242788
1.242413
1.242413
1.319665
1.682114
1.682114
2.05975
2.358822
2.437199
2.389573
2.171879
1.826868
1.472482
1.254976
1.242038
1.242038
1.242413
1.2426
1.2426
1.242788
1.242225
1.242788
1.343666
1.703677
2.080376
2.080376
2.373635
2.45145
2.398948
2.186879
1.857807
1.48017
1.253663
1.242225
1.242225
1.2426
1.242788
1.242788
1.242788
1.242413
1.242413
1.289664
1.610299
1.997311
1.997311
2.297883
2.408886
2.381885
2.171129
1.841681
1.486358
1.255351
1.242225
1.242413
1.242413
1.2426
1.242975
1.242788
1.2426
1.242038
1.267539
1.555735
1.958685
2.265257
2.265257
2.374385
2.370072
2.171504
1.851057
1.497233
1.256663
1.242413
1.242225
1.2426
1.2426
1.242788
1.242788
1.242413
1.242038
1.269226
1.573173
1.983811
2.30407
2.30407
2.431199
2.428199
2.248194
1.937872
1.566798
1.269601
1.2426
1.242413
1.2426
1.2426
1.242788
1.242788
1.242225
1.242413
1.272789
1.569048
1.974998
2.288882
2.430449
2.430449
2.434574
2.274257
1.95831
1.600361
1.286852
1.2426
1.242225
1.2426
1.242788
1.242788
1.2426
1.2426
1.242225
1.265289
1.543922
1.95681
2.270319
2.435699
2.444887
2.444887
2.289632
1.98456
1.6358
1.307477
1.242975
1.242225
1.2426
1.242788
1.242975
1.242975
1.242413
1.242038
1.259851
1.516359
1.931497
2.260569
2.425011
2.434199
2.434199
2.29132
1.994498
1.636737
1.303915
1.243163
1.242413
1.242413
1.2426
1.242788
1.242788
1.2426
1.242225
1.254976
1.48992
1.908246
2.227005
2.429699
2.4582
2.314945
2.314945
2.019624
1.681176
1.338978
1.244475
1.242038
1.242413
1.242788
1.242788
1.2426
1.2426
1.242225
1.253101
1.48842
1.911621
2.233568
2.416386
2.411511
2.225693
1.914808
1.914808
1.519921
1.252913
1.242225
1.242788
1.243163
1.243538
1.243725
1.243725
1.243725
1.242975
1.242225
1.251788
1.6538
2.158191
2.376822
2.345884
2.222318
1.964685
1.964685
1.735365
1.46292
1.286664
1.251038
1.243538
1.242225
1.242038
1.242225
1.246726
1.246726
1.396543
1.763304
2.12069
2.474888
2.649081
2.659581
2.563766
2.275382
1.910308
1.910308
1.521796
1.261726
1.242225
1.242225
1.242413
1.2426
1.242788
1.242225
1.2441
1.2441
1.371229
1.766117
2.105877
2.352822
2.398198
2.309508
2.048687
1.713052
1.360729
1.360729
1.244663
1.242225
1.2426
1.242788
1.242975
1.2426
1.242413
1.243163
1.243163
1.344791
1.73649
2.089939
2.343634
2.411511
2.331446
2.084876
1.741741
1.374792
1.374792
1.245413
1.242225
1.2426
1.242788
1.242788
1.242788
1.242413
1.242975
1.341978
1.341978
1.71849
2.077751
2.373822
2.429699
2.352822
2.117877
1.774929
1.407793
1.247476
1.247476
1.242038
1.242413
1.2426
1.242788
1.242788
1.242225
1.242788
1.330728
1.708365
1.708365
2.069688
2.359385
2.417136
2.375323
2.13419
1.803805
1.429169
1.248601
1.248601
1.242038
1.2426
1.242788
1.242788
1.242788
1.242413
1.2426
1.318353
1.675176
1.675176
2.052625
2.343446
2.425574
2.378697
2.149378
1.820493
1.448482
1.250476
1.242225
1.242225
1.242038
1.242413
1.242975
1.242788
1.242413
1.242413
1.30129
1.648363
2.032562
2.032562
2.322446
2.408886
2.381698
2.167191
1.832868
1.470607
1.254038
1.242225
1.242413
1.242413
1.2426
1.242788
1.242788
1.242413
1.242225
1.289102
1.619112
2.012124
2.012124
2.313258
2.400448
2.375135
2.190817
1.859494
1.48617
1.254976
1.242413
1.242413
1.242413
1.2426
1.242975
1.242788
1.242413
1.242225
1.273914
1.585361
1.979123
2.280257
2.280257
2.387885
2.365197
2.176191
1.850307
1.484483
1.253851
1.242225
1.242413
1.242788
1.242788
1.2426
1.242788
1.2426
1.242225
1.257788
1.515421
1.921371
2.232068
2.348884
2.348884
2.329946
2.154816
1.831743
1.453357
1.249538
1.242413
1.2426
1.242788
1.243163
1.243163
1.243163
1.2426
1.242225
1.249726
1.454294
1.844869
2.155566
2.289257
2.289257
2.285695
2.112814
1.79593
1.431794
1.248226
1.242225
1.242413
1.243163
1.242975
1.242975
1.242975
1.2426
1.242413
1.2456
1.408355
1.809805
2.129315
2.272194
2.272569
2.272569
2.109627
1.803055
1.440231
1.248413
1.242225
1.242413
1.242975
1.242975
1.242975
1.242975
1.2426
1.242413
1.245413
1.395043
1.804743
2.13794
2.299383
2.317383
2.176191
2.176191
1.869244
1.524421
1.260413
1.242413
1.242413
1.242788
1.242788
1.242975
1.242975
1.2426
1.242225
1.250101
1.449419
1.870745
2.21538
2.401198
2.428574
2.28982
2.28982
2.002374
1.653988
1.309727
1.243538
1.242038
1.242413
1.2426
1.242788
1.2426
1.2426
1.242225
1.259288
1.508484
1.920621
2.249319
2.444887
2.493076
2.374385
2.095752
2.095752
1.731428
1.371792
1.245975
1.242225
1.242413
1.2426
1.242788
1.2426
1.242225
1.242225
1.258538
1.514859
1.937497
2.264694
2.474888
2.504889
2.397636
2.122002
1.774367
1.774367
1.390918
1.246538
1.242413
1.242413
1.242413
1.2426
1.2426
1.242225
1.242225
1.252351
1.48467
1.906746
2.247819
2.482763
2.514264
2.404948
2.123127
1.783929
1.783929
1.408918
1.250476
1.242038
1.242413
1.2426
1.242788
1.2426
1.242225
1.248226
1.248226
1.442669
1.849556
2.208067
2.460075
2.507139
2.399323
2.137378
1.79293
1.418106
1.418106
1.247663
1.242225
1.2426
1.2426
1.242788
1.2426
1.242225
1.247101
1.428794
1.428794
1.827056
2.163253
2.426699
2.486326
2.406074
2.155753
1.794805
1.429731
1.429731
1.249726
1.242225
1.242225
1.2426
1.2426
1.242788
1.242225
1.244475
1.401043
1.401043
1.812993
2.158003
2.422386
2.477138
2.386198
2.173191
1.828743
1.445669
1.250288
1.250288
1.242225
1.242413
1.2426
1.2426
1.242788
1.242038
1.243913
1.375355
1.773429
1.773429
2.136815
2.415449
2.467575
2.410386
2.169441
1.830431
1.461982
1.257601
1.242225
1.242225
1.2426
1.2426
1.2426
1.2426
1.242413
1.243163
1.351729
1.729553
2.11094
2.11094
2.406823
2.497201
2.437012
2.20563
1.867745
1.493671
1.258538
1.2426
1.2426
1.242413
1.2426
1.2426
1.242225
1.243725
1.351541
1.725803
2.091626
2.389948
2.479388
2.479388
2.445637
2.232818
1.887433
1.516921
1.263414
1.2426
1.242225
1.2426
1.2426
1.2426
1.2426
1.242413
1.242788
1.333166
1.721115
2.095001
2.388448
2.471138
2.452762
2.452762
2.245756
1.927746
1.548422
1.268289
1.242788
1.242413
1.2426
1.2426
1.2426
1.2426
1.242413
1.242788
1.323978
1.693177
2.085064
2.401573
2.490076
2.468138
2.270132
2.270132
1.941809
1.571673
1.289852
1.2426
1.242413
1.242413
1.242788
1.2426
1.2426
1.242413
1.242413
1.307665
1.636175
2.059938
2.36651
2.504326
2.476388
2.284382
2.284382
1.97406
1.606174
1.290789
1.243163
1.242225
1.242413
1.2426
1.2426
1.242413
1.242413
1.242413
1.305602
1.6403
2.038375
2.353197
2.492889
2.488576
2.329759
1.992623
1.992623
1.620049
1.298102
1.242975
1.242038
1.2426
1.2426
1.2426
1.242413
1.242225
1.242225
1.281602
1.603549
2.003499
2.321696
2.450137
2.452575
2.288882
1.982686
1.982686
1.625112
1.290414
1.243163
1.242225
1.2426
1.242788
1.2426
1.242413
1.242225
1.242225
1.270539
1.575236
1.996186
2.329009
2.47395
2.482201
2.325634
2.020187
1.664863
1.664863
1.337478
1.2441
1.242225
1.2426
1.2426
1.2426
1.242413
1.242225
1.272226
1.272226
1.545047
1.982498
2.314383
2.499451
2.523077
2.362947
2.066875
1.708927
1.351354
1.351354
1.244851
1.242413
1.242413
1.242788
1.2426
1.242413
1.242225
1.276914
1.276914
1.56286
1.96281
2.28307
2.485576
2.511827
2.402698
2.098001
1.735928
1.368792
1.368792
1.2456
1.242038
1.2426
1.2426
1.2426
1.242413
1.242038
1.264914
1.538297
1.538297
1.962247
2.289445
2.485951
2.518952
2.401386
2.12369
1.79293
1.39748
1.247663
1.247663
1.242225
1.242413
1.2426
1.2426
1.2426
1.242225
1.257038
1.525734
1.942934
1.942934
2.288507
2.496451
2.526452
2.413386
2.139253
1.789555
1.427669
1.250288
1.24185
1.24185
1.242413
1.242413
1.2426
1.242413
1.242413
1.254226
1.496296
1.927934
1.927934
2.27932
2.506764
2.55364
2.436262
2.171316
1.827806
1.46892
1.255726
1.242788
1.242788
1.242413
1.242788
1.242788
1.2426
1.242225
1.243163
1.282914
1.578986
1.862307
1.862307
2.076063
2.089001
1.994498
1.646675
1.343291
1.246163
1.2426
1.242225
1.242225
1.242225
1.242975
1.242975
1.2426
1.242413
1.275976
1.729365
2.297508
2.632768
2.664644
2.664644
2.664269
2.664456
2.564891
2.236943
1.839619
1.448107
1.254226
1.2426
1.2426
1.242225
1.242225
1.242413
1.242413
1.259476
1.539235
1.920434
2.243131
2.485763
2.485763
2.522702
2.422761
2.162691
1.80493
1.430669
1.249163
1.242225
1.2426
1.2426
1.2426
1.242788
1.242788
1.242225
1.243163
1.342353
1.71999
2.094439
2.370072
2.431949
2.431949
2.378135
2.147691
1.80643
1.435919
1.249351
1.242038
1.242413
1.2426
1.242788
1.242788
1.2426
1.242413
1.242788
1.332791
1.702739
2.074188
2.372135
2.449387
2.449387
2.410949
2.180692
1.841869
1.476233
1.254601
1.242413
1.242225
1.2426
1.2426
1.2426
1.2426
1.242225
1.2426
1.320228
1.681551
2.064063
2.353947
2.44245
2.413011
2.413011
2.20713
1.867745
1.501546
1.259101
1.242225
1.242413
1.2426
1.242788
1.242788
1.242788
1.242225
1.2426
1.309915
1.662238
2.051875
2.351697
2.446575
2.431012
2.22588
2.22588
1.893245
1.525172
1.263601
1.242225
1.242413
1.242788
1.242975
1.242788
1.242413
1.242413
1.242413
1.300352
1.64405
2.042875
2.347572
2.458762
2.438137
2.247069
2.247069
1.923809
1.553672
1.271101
1.2426
1.242225
1.2426
1.242788
1.2426
1.242413
1.242413
1.242413
1.291352
1.616862
1.995998
2.335009
2.474888
2.482388
2.337071
1.983061
1.983061
1.621737
1.293414
1.243163
1.242038
1.2426
1.2426
1.2426
1.2426
1.242413
1.242413
1.297165
1.634487
2.037062
2.336321
2.438512
2.479763
2.310821
1.997873
1.666926
1.666926
1.30354
1.243913
1.242413
1.2426
1.2426
1.2426
1.2426
1.242413
1.264164
1.264164
1.575048
1.982123
2.292445
2.467013
2.440012
2.262819
1.960372
1.610299
1.610299
1.289289
1.2441
1.242225
1.242788
1.242788
1.242788
1.2426
1.242413
1.256663
1.256663
1.472482
1.824431
2.203005
2.384698
2.392948
2.267319
1.933559
1.56886
1.269226
1.269226
1.242413
1.242225
1.2426
1.2426
1.242788
1.242975
1.242225
1.248601
1.436669
1.436669
1.853307
2.169441
2.317946
2.339884
2.230943
1.929434
1.573173
1.282914
1.243538
1.243538
1.242225
1.242788
1.242975
1.242788
1.242788
1.2426
1.246351
1.345729
1.345729
1.812618
2.152566
2.343446
2.39426
2.250256
1.950622
1.584798
1.284789
1.242975
1.242975
1.242225
1.242788
1.2426
1.243163
1.242788
1.242225
1.248788
1.451107
1.894183
1.894183
2.20413
2.377948
2.454825
2.356009
2.078126
1.756929
1.376667
1.2456
1.242413
1.242413
1.242413
1.2426
1.242788
1.242788
1.242038
1.248788
1.481483
1.933184
2.273507
2.273507
2.52514
2.559266
2.438324
2.156316
1.825368
1.46442
1.254038
1.243351
1.242413
1.242413
1.2426
1.2426
1.242225
1.242225
1.262851
1.548235
1.939184
2.231131
2.231131
2.523077
2.583454
2.504326
2.249694
1.894558
1.512984
1.260788
1.242413
1.242225
1.242225
1.242413
1.242413
1.242413
1.242413
1.257226
1.523859
1.941059
2.309883
2.54839
2.54839
2.572016
2.4732
2.235631
1.905433
1.540547
1.276539
1.242413
1.242225
1.242225
1.242225
1.2426
1.242413
1.2426
1.250663
1.454857
1.832868
2.251194
2.524015
2.583266
2.583266
2.52664
2.252694
1.916496
1.539235
1.271289
1.242413
1.242413
1.2426
1.2426
1.2426
1.242413
1.242225
1.247851
1.472295
1.877307
2.221943
2.460075
2.547828
2.547828
2.506576
2.270132
1.952872
1.581048
1.277664
1.243163
1.242225
1.242413
1.2426
1.2426
1.242413
1.242038
1.244851
1.413793
1.829868
2.202067
2.512764
2.569391
2.509202
2.509202
2.272007
1.942934
1.574861
1.288164
1.243725
1.242038
1.2426
1.2426
1.2426
1.2426
1.242225
1.245788
1.407793
1.784492
2.14019
2.45895
2.54764
2.519889
2.306695
2.306695
1.96506
1.596049
1.285352
1.242975
1.242038
1.2426
1.242413
1.2426
1.2426
1.242413
1.243913
1.380792
1.765929
2.156691
2.454075
2.542015
2.52439
2.305383
2.305383
1.977435
1.610487
1.29604
1.243163
1.242413
1.242413
1.2426
1.2426
1.242225
1.242225
1.243351
1.353791
1.730115
2.125002
2.431387
2.53039
2.513702
2.325634
1.998623
1.998623
1.629612
1.304477
1.243351
1.242225
1.2426
1.2426
1.2426
1.242413
1.242975
1.242975
1.337103
1.707615
2.107002
2.425761
2.53789
2.516327
2.336696
2.020562
2.020562
1.657176
1.32004
1.243913
1.242038
1.242225
1.2426
1.2426
1.242225
1.242413
1.242413
1.324915
1.690364
2.090876
2.409261
2.541078
2.53414
2.359947
2.0485
1.685489
1.685489
1.335603
1.244663
1.242225
1.242225
1.2426
1.2426
1.242225
1.314228
1.655488
1.655488
2.067438
2.387885
2.525327
2.529452
2.37851
2.073063
1.711927
1.353979
1.245038
1.245038
1.242225
1.242225
1.2426
1.2426
1.242413
1.242413
1.297727
1.63355
2.046062
2.046062
2.365572
2.534328
2.549515
2.393511
2.089564
1.722053
1.371604
1.245788
1.242225
1.242225
1.242413
1.2426
1.2426
1.242225
1.242225
1.279164
1.586673
1.994311
2.325071
2.325071
2.500014
2.511264
2.369885
2.072313
1.71099
1.343853
1.244475
1.242038
1.242413
1.242413
1.242413
1.242788
1.2426
1.242038
1.270914
1.565485
1.983998
2.311758
2.311758
2.503764
2.53264
2.405324
2.11919
1.771929
1.39973
1.248226
1.242225
1.2426
1.2426
1.242413
1.2426
1.242413
1.242225
1.270539
1.566235
1.979123
2.315883
2.520639
2.520639
2.559078
2.442824
2.161753
1.816368
1.441356
1.250476
1.242413
1.242225
1.242413
1.242413
1.2426
1.242413
1.242225
1.262851
1.545235
1.970873
2.304633
2.522327
2.561516
2.561516
2.456325
2.184067
1.836994
1.468545
1.253476
1.242225
1.2426
1.242413
1.2426
1.2426
1.242413
1.242225
1.258913
1.522922
1.938622
2.288507
2.526452
2.567141
2.567141
2.480138
2.214818
1.861744
1.491233
1.257976
1.242413
1.242225
1.2426
1.2426
1.2426
1.242413
1.242225
1.255351
1.517671
1.932246
2.271632
2.521202
2.564328
2.487826
2.487826
2.230568
1.89512
1.512796
1.262289
1.242225
1.242413
1.242413
1.2426
1.2426
1.2426
1.242038
1.253476
1.513734
1.915371
2.266944
2.525327
2.587016
2.521389
2.275382
2.275382
1.944434
1.579548
1.283102
1.242788
1.242225
1.242413
1.242788
1.2426
1.2426
1.242413
1.242788
1.310665
1.6493
1.971435
2.181442
2.212005
2.123315
1.904683
1.904683
1.587423
1.435356
1.294352
1.245413
1.242225
1.242413
1.242413
1.2426
1.242413
1.242413
1.327916
1.87112
2.38226
2.649643
2.664081
2.664081
2.664456
2.61608
2.328634
2.328634
1.933934
1.584048
1.29829
1.243725
1.242225
1.242225
1.242225
1.242225
1.260038
1.260038
1.536797
1.919684
2.269007
2.520639
2.565078
2.501889
2.269944
1.930371
1.930371
1.543547
1.269039
1.242413
1.242225
1.2426
1.242788
1.242413
1.242413
1.243351
1.243351
1.365604
1.741366
2.124253
2.411324
2.498889
2.459325
2.247444
1.925309
1.558735
1.558735
1.273539
1.242975
1.242225
1.2426
1.2426
1.242413
1.242225
1.242975
1.334853
1.334853
1.708552
2.109627
2.415074
2.512952
2.495514
2.289632
1.962435
1.596236
1.288352
1.288352
1.242788
1.242225
1.2426
1.2426
1.2426
1.242225
1.242975
1.328853
1.685114
1.685114
2.085626
2.39426
2.512014
2.491951
2.299757
1.981561
1.617987
1.297727
1.297727
1.243163
1.242413
1.242413
1.2426
1.2426
1.242413
1.2426
1.313665
1.671426
1.671426
2.06725
2.37251
2.504514
2.500201
2.323758
2.007811
1.645175
1.312915
1.243163
1.243163
1.242225
1.2426
1.2426
1.242788
1.242413
1.242413
1.299977
1.635612
2.050188
2.050188
2.366322
2.486138
2.491763
2.336509
2.025249
1.681551
1.339353
1.243913
1.242225
1.242225
1.242413
1.242413
1.242788
1.2426
1.2426
1.272414
1.621362
2.037062
2.037062
2.361259
2.52814
2.508639
2.339134
2.040625
1.692239
1.343104
1.245788
1.242038
1.242038
1.242413
1.2426
1.242788
1.242413
1.242413
1.282164
1.575236
1.926059
2.317008
2.317008
2.491576
2.520639
2.38376
2.057125
1.692239
1.337291
1.244475
1.242038
1.2426
1.2426
1.242788
1.242788
1.2426
1.242413
1.266601
1.542797
1.959435
2.27932
2.423887
2.423887
2.432887
2.324134
2.033499
1.696552
1.332791
1.243538
1.242225
1.2426
1.242788
1.242788
1.242788
1.242788
1.242413
1.246726
1.422606
1.87637
2.204692
2.406823
2.406823
2.436825
2.272007
1.969373
1.62605
1.30204
1.242975
1.242413
1.2426
1.242788
1.242788
1.242975
1.242788
1.242413
1.247851
1.411168
1.803055
2.077939
2.339696
2.381885
2.381885
2.268444
2.013624
1.639175
1.294915
1.243538
1.242225
1.2426
1.242788
1.242788
1.242788
1.2426
1.2426
1.245225
1.389792
1.794992
2.156316
2.369885
2.392573
2.275007
2.275007
2.036687
1.697864
1.349479
1.246726
1.242225
1.2426
1.242788
1.242788
1.242788
1.242788
1.242413
1.246913
1.382292
1.819931
2.213318
2.467575
2.534702
2.460075
2.460075
2.172254
1.828931
1.463482
1.253101
1.242225
1.242413
1.242413
1.2426
1.2426
1.2426
1.242038
1.255351
1.541484
1.936934
2.268632
2.497014
2.602392
2.541265
2.294695
2.294695
1.974435
1.590424
1.288539
1.243351
1.242225
1.242413
1.242413
1.242413
1.242225
1.242225
1.251038
1.548985
1.979685
2.335946
2.563391
2.593954
2.576516
2.322821
2.001998
2.001998
1.6328
1.322478
1.245788
1.242038
1.242413
1.2426
1.242225
1.242413
1.242413
1.261913
1.54861
1.896995
2.275382
2.592267
2.589079
2.587204
2.391448
2.022999
2.022999
1.638988
1.318915
1.2441
1.242413
1.2426
1.242413
1.242413
1.242413
1.253101
1.253101
1.524609
1.925121
2.288882
2.559266
2.578579
2.589642
2.37251
2.037812
1.692614
1.692614
1.337666
1.244288
1.242413
1.242225
1.242413
1.242413
1.242225
1.247476
1.407605
1.407605
1.828743
2.257194
2.553265
2.593392
2.567703
2.37776
2.028999
1.670114
1.670114
1.332041
1.244475
1.242413
1.242225
1.2426
1.242413
1.242038
1.246726
1.460857
1.460857
1.842431
2.197567
2.475075
2.613642
2.589267
2.390698
2.078126
1.700302
1.346104
1.346104
1.245225
1.242225
1.242225
1.2426
1.242413
1.242413
1.2441
1.408168
1.815618
1.815618
2.213318
2.513702
2.605955
2.553078
2.380948
2.077564
1.71999
1.369729
1.249538
1.249538
1.242038
1.242413
1.242225
1.2426
1.242225
1.246726
1.387355
1.739303
1.739303
2.129128
2.496451
2.612142
2.587766
2.429699
2.103252
1.730678
1.374417
1.246163
1.246163
1.242413
1.242413
1.242413
1.242413
1.242225
1.243913
1.383792
1.776992
2.180317
2.180317
2.479763
2.569016
2.599954
2.4417
2.146565
1.794242
1.397293
1.249913
1.242413
1.242413
1.242225
1.242413
1.242413
1.242413
1.243538
1.315915
1.747366
2.162316
2.477701
2.477701
2.595642
2.60783
2.447137
2.14394
1.798367
1.432356
1.257601
1.2426
1.242413
1.242413
1.242413
1.242225
1.242038
1.244475
1.354729
1.718115
2.084689
2.425761
2.425761
2.615142
2.603704
2.496826
2.197567
1.817305
1.438731
1.251226
1.242225
1.242413
1.242413
1.242413
1.2426
1.242413
1.242975
1.337103
1.698052
2.113564
2.430074
2.595829
2.595829
2.585329
2.481638
2.191379
1.845994
1.46892
1.254226
1.242413
1.242413
1.2426
1.2426
1.2426
1.242225
1.242788
1.300727
1.63505
2.061813
2.392761
2.589454
2.599204
2.599204
2.4672
2.178254
1.816368
1.438919
1.251601
1.242038
1.242413
1.242413
1.242413
1.242413
1.242413
1.242413
1.277476
1.577111
1.985686
2.325071
2.534328
2.565828
2.565828
2.452387
2.177879
1.824618
1.444919
1.252726
1.242413
1.2426
1.242413
1.2426
1.2426
1.242413
1.242225
1.275226
1.587236
2.341947
2.568641
2.608392
2.504889
2.234318
1.88087
1.88087
1.509046
1.263601
1.242413
1.242225
1.242413
1.2426
1.2426
1.242413
1.269976
1.269976
1.580111
1.989436
2.327696
2.573328
2.613642
2.521952
2.257006
1.913496
1.536422
1.536422
1.269601
1.242413
1.242038
1.242413
1.242413
1.242413
1.242225
1.265851
1.265851
1.559673
1.968998
2.322258
2.569016
2.613455
2.536765
2.28457
1.949685
1.574861
1.574861
1.285164
1.242788
1.242413
1.242413
1.2426
1.242413
1.242038
1.257038
1.535109
1.535109
1.944059
2.304445
2.564328
2.608392
2.54764
2.302383
1.96731
1.597549
1.29529
1.29529
1.243163
1.242225
1.242413
1.2426
1.242413
1.242225
1.251976
1.508859
1.919496
1.919496
2.282882
2.55289
2.615517
2.556828
2.317946
1.992623
1.629425
1.313478
1.243538
1.243538
1.242413
1.242413
1.2426
1.2426
1.242225
1.251226
1.514109
1.926246
1.926246
2.28457
2.561703
2.607642
2.51614
2.239193
1.846744
1.423731
1.246163
1.242413
1.242413
1.242788
1.242975
1.243163
1.243163
1.242788
1.242225
1.254413
1.675551
2.229068
2.229068
2.557016
2.579141
2.494576
2.252694
2.021124
1.740803
1.490483
1.368604
1.264164
1.264164
1.244288
1.2426
1.242225
1.247663
1.363354
1.754491
2.125565
2.489888
2.655081
2.655081
2.664456
2.664644
2.54314
2.20488
1.825556
1.446794
1.250288
1.242225
1.242225
1.242225
1.242413
1.2426
1.242413
1.243725
1.368417
1.745678
2.133628
2.434574
2.434574
2.536577
2.518014
2.317946
1.998623
1.630737
1.31104
1.243538
1.242225
1.242413
1.242413
1.242413
1.2426
1.242413
1.243163
1.347041
1.721115
2.108877
2.420699
2.536577
2.536577
2.528702
2.343822
2.020187
1.656988
1.317603
1.243538
1.242413
1.242413
1.242788
1.242788
1.2426
1.242225
1.242788
1.335041
1.698989
2.104564
2.412074
2.541078
2.541078
2.538265
2.367447
2.048312
1.681739
1.337291
1.244663
1.242225
1.242413
1.2426
1.2426
1.242788
1.242413
1.242975
1.32379
1.681926
2.094439
2.413949
2.551765
2.54239
2.54239
2.378323
2.070813
1.713802
1.355479
1.245038
1.242225
1.242413
1.242788
1.2426
1.2426
1.242413
1.2426
1.31029
1.654176
2.064438
2.390886
2.544828
2.556453
2.400448
2.400448
2.089564
1.738366
1.37423
1.246163
1.242038
1.2426
1.2426
1.242788
1.242788
1.242225
1.2426
1.301477
1.641425
2.040812
2.366322
2.539765
2.557578
2.416386
2.416386
2.120502
1.765179
1.391105
1.246913
1.242038
1.242413
1.2426
1.2426
1.242413
1.242413
1.242225
1.290602
1.614799
2.021312
2.350009
2.53489
2.559828
2.435887
2.14094
2.14094
1.785242
1.410981
1.249163
1.242225
1.242413
1.2426
1.242788
1.242413
1.2426
1.2426
1.277476
1.582361
2.002936
2.338384
2.52964
2.54764
2.433074
2.149003
2.149003
1.802118
1.437794
1.254601
1.242225
1.242413
1.242413
1.2426
1.242413
1.242413
1.242413
1.255726
1.48392
1.967873
2.296383
2.521952
2.554203
2.428574
2.128377
1.783554
1.783554
1.414731
1.249351
1.242413
1.242225
1.242788
1.2426
1.242788
1.242225
1.255163
1.255163
1.481295
1.873745
2.170004
2.46045
2.497951
2.410386
2.133815
1.763304
1.37948
1.37948
1.246538
1.242225
1.2426
1.242788
1.2426
1.242413
1.242225
1.247288
1.449044
1.449044
1.853869
2.209942
2.434949
2.44245
2.361822
2.113752
1.775117
1.420918
1.420918
1.252913
1.242413
1.2426
1.2426
1.2426
1.2426
1.242413
1.245038
1.368604
1.368604
1.789742
2.192129
2.452575
2.514639
2.452387
2.174316
1.831181
1.464607
1.253851
1.253851
1.242413
1.242413
1.2426
1.242788
1.2426
1.242225
1.249351
1.492358
1.907683
1.907683
2.246506
2.488014
2.570891
2.533202
2.302008
1.98456
1.607112
1.290227
1.243538
1.243538
1.242225
1.242413
1.242413
1.242413
1.242225
1.247663
1.510359
1.936747
1.936747
2.308383
2.577454
2.597892
2.578016
2.347572
2.029937
1.665613
1.340291
1.246163
1.246163
1.242413
1.2426
1.242413
1.242413
1.242788
1.263976
1.519359
1.842994
2.273694
2.273694
2.583454
2.598454
2.581766
2.414136
2.05525
1.667488
1.339353
1.244663
1.242413
1.242413
1.242413
1.242788
1.242413
1.242413
1.252351
1.508484
1.909371
2.281195
2.534702
2.534702
2.583266
2.593767
2.407761
2.086189
1.732365
1.355479
1.247288
1.242225
1.242413
1.242413
1.242413
1.242413
1.242413
1.246351
1.402918
1.868307
2.259444
2.54014
2.54014
2.583454
2.597704
2.398011
2.087126
1.721303
1.366917
1.247663
1.2426
1.2426
1.2426
1.2426
1.242413
1.242225
1.246913
1.443232
1.813555
2.151441
2.501514
2.608205
2.608205
2.598829
2.441512
2.117315
1.740053
1.376104
1.246726
1.242225
1.242413
1.2426
1.2426
1.242413
1.242225
1.245038
1.408168
1.802868
2.21088
2.509202
2.597517
2.570328
2.570328
2.422949
2.11169
1.768554
1.425981
1.247288
1.2426
1.242413
1.242413
1.242413
1.242225
1.242413
1.244851
1.364104
1.688489
2.175629
2.501889
2.61383
2.588517
2.588517
2.442262
2.130065
1.770804
1.410418
1.248413
1.242413
1.242413
1.242413
1.2426
1.2426
1.242038
1.243538
1.366542
1.749991
2.155003
2.430824
2.587016
2.613642
2.470575
2.470575
2.169066
1.825743
1.419981
1.252913
1.2426
1.242225
1.2426
1.242413
1.242413
1.242413
1.243163
1.316853
1.72299
2.149941
2.468888
2.596392
2.606517
2.470013
2.177129
2.177129
1.832681
1.45992
1.261726
1.243163
1.242225
1.2426
1.242413
1.242225
1.242225
1.244288
1.346479
1.699927
2.065563
2.419011
2.602767
2.599204
2.517452
2.22513
2.22513
1.858557
1.472482
1.257601
1.242413
1.242225
1.2426
1.2426
1.242413
1.242788
1.242788
1.323978
1.688864
2.117502
2.43645
2.595454
2.577266
2.527577
2.249131
1.904308
1.904308
1.534359
1.265851
1.242975
1.242413
1.242413
1.242413
1.242413
1.242975
1.278602
1.278602
1.604674
2.086564
2.421637
2.598642
2.592454
2.544453
2.255131
1.912183
1.912183
1.547297
1.275226
1.243351
1.2426
1.242413
1.242413
1.242225
1.2426
1.302415
1.302415
1.658676
2.050937
2.335571
2.586641
2.601454
2.550078
2.304633
1.951747
1.549922
1.549922
1.274664
1.242788
1.242225
1.2426
1.242413
1.242413
1.2426
1.286289
1.62905
1.62905
2.039687
2.394635
2.600517
2.585141
2.531327
2.288882
1.945747
1.572423
1.289664
1.289664
1.242788
1.242413
1.242225
1.242413
1.242413
1.242413
1.258163
1.508484
1.963935
1.963935
2.317196
2.575766
2.583079
2.534702
2.284007
1.935622
1.56661
1.281977
1.281977
1.243163
1.242413
1.242413
1.242788
1.242413
1.242225
1.255726
1.54186
1.951372
1.951372
2.303695
2.580079
2.612892
2.574266
2.335009
1.996748
1.613674
1.301665
1.243163
1.243163
1.242413
1.242413
1.242413
1.242225
1.242413
1.254413
1.530422
1.933371
2.299383
2.299383
2.569016
2.582891
2.557391
2.341384
2.015874
1.636925
1.309352
1.243913
1.242225
1.242225
1.242413
1.2426
1.242413
1.242413
1.251226
1.508671
1.908433
2.27857
2.27857
2.595829
2.579891
2.37626
2.026187
1.657738
1.323603
1.244475
1.242225
1.242413
1.2426
1.2426
1.2426
1.242413
1.249538
1.483545
1.886495
2.263944
2.557578
2.587391
2.577829
2.577829
2.394073
2.062751
1.695989
1.347229
1.245413
1.242413
1.242225
1.242413
1.2426
1.2426
1.242225
1.247101
1.452607
1.858932
2.248756
2.541078
2.608955
2.601267
2.601267
2.398011
2.075688
1.71849
1.363917
1.246351
1.242225
1.242413
1.242413
1.2426
1.2426
1.242225
1.245413
1.443232
1.839244
2.230006
2.514452
2.597704
2.54464
2.288882
2.288882
1.921371
1.496858
1.252726
1.242225
1.2426
1.243163
1.243163
1.243351
1.243163
1.243163
1.2426
1.243351
1.428231
2.020187
2.434762
2.550453
2.461575
2.299757
2.038375
2.038375
1.789367
1.510921
1.323415
1.262101
1.2456
1.243538
1.242788
1.246726
1.246726
1.352854
1.716427
2.075313
2.449762
2.645331
2.664456
2.664456
2.602767
2.30032
2.30032
1.917434
1.526859
1.267539
1.242413
1.242225
1.242413
1.242413
1.242225
1.242975
1.242975
1.333353
1.697114
2.098564
2.406636
2.551203
2.551953
2.397823
2.089939
1.740053
1.740053
1.376104
1.245975
1.242038
1.242413
1.2426
1.242788
1.242413
1.2426
1.31404
1.31404
1.651175
2.069126
2.391448
2.560953
2.566391
2.413949
2.114689
1.755616
1.755616
1.384917
1.247101
1.24185
1.2426
1.242413
1.2426
1.2426
1.2426
1.303352
1.303352
1.639925
2.05375
2.37701
2.556641
2.577641
2.433824
2.143753
1.784305
1.407605
1.407605
1.247851
1.242225
1.242413
1.2426
1.2426
1.242413
1.242413
1.296414
1.630175
1.630175
2.048125
2.371385
2.564703
2.587391
2.463638
2.169254
1.819931
1.440044
1.251226
1.251226
1.242413
1.242413
1.242413
1.2426
1.2426
1.242413
1.281789
1.604111
2.018499
2.018499
2.349822
2.565641
2.590204
2.477888
2.198692
1.850494
1.46967
1.255538
1.255538
1.242225
1.242413
1.242413
1.2426
1.242413
1.242225
1.274101
1.579361
2.002186
2.002186
2.342322
2.570516
2.601829
2.497389
2.214068
1.87412
1.493671
1.258726
1.242413
1.242413
1.242225
1.242413
1.2426
1.242413
1.242225
1.264539
1.568673
1.973873
2.314383
2.314383
2.562266
2.600704
2.506951
2.235631
1.88987
1.517671
1.263976
1.242413
1.242413
1.242413
1.2426
1.2426
1.242225
1.242413
1.258351
1.537172
1.942934
2.292445
2.292445
2.54464
2.584954
2.501514
2.240506
1.89512
1.517484
1.264351
1.242413
1.242413
1.242413
1.242413
1.2426
1.242788
1.242413
1.248601
1.479608
1.88537
2.238631
2.500764
2.500764
2.54839
2.474138
2.217443
1.873745
1.494983
1.257413
1.242413
1.242413
1.2426
1.2426
1.242788
1.2426
1.242225
1.244851
1.407418
1.803805
2.166254
2.436637
2.493826
2.493826
2.427636
2.188004
1.845431
1.470045
1.253288
1.242413
1.242413
1.242413
1.242413
1.242788
1.2426
1.242413
1.243538
1.368604
1.762179
2.126503
2.402886
2.477888
2.477888
2.423699
2.192692
1.850869
1.480545
1.254038
1.242225
1.242413
1.2426
1.242788
1.242788
1.242788
1.242225
1.242975
1.356604
1.740616
2.115814
2.407573
2.486326
2.457263
2.457263
2.242006
1.912371
1.542235
1.267914
1.2426
1.242225
1.242413
1.2426
1.2426
1.2426
1.242225
1.244288
1.398605
1.791992
2.185567
2.488389
2.578766
2.55289
2.345696
2.345696
2.017187
1.665238
1.326416
1.243725
1.242225
1.242413
1.2426
1.242413
1.242413
1.242225
1.245413
1.424668
1.822931
2.220818
2.52889
2.60558
2.602954
2.419386
2.419386
2.094439
1.724303
1.370479
1.245975
1.242038
1.242225
1.242413
1.242413
1.242225
1.242225
1.245788
1.428044
1.827056
2.215755
2.530015
2.598642
2.596767
2.443762
2.128377
2.128377
1.762366
1.392417
1.247101
1.242038
1.242225
1.2426
1.242413
1.242225
1.244851
1.244851
1.399355
1.79293
2.202442
2.509764
2.591704
2.599017
2.4627
2.147691
1.783742
1.783742
1.413418
1.249726
1.242225
1.242413
1.242413
1.242225
1.242413
1.2441
1.2441
1.380605
1.767804
2.171879
2.485013
2.61758
2.597704
2.470763
2.158378
1.797992
1.797992
1.418668
1.249351
1.242225
1.242225
1.242413
1.2426
1.242038
1.243351
1.354916
1.354916
1.728803
2.143565
2.467013
2.610267
2.603892
2.484826
2.181254
1.814868
1.434606
1.434606
1.250851
1.242413
1.242225
1.242413
1.2426
1.242225
1.242788
1.334478
1.698802
1.698802
2.109814
2.44245
2.609892
2.615892
2.485389
2.19363
1.829681
1.455794
1.455794
1.253101
1.242413
1.242413
1.242413
1.242788
1.242413
1.242788
1.318915
1.674989
1.674989
2.090876
2.419574
2.605392
2.620955
2.507889
2.214068
1.847869
1.473045
1.256663
1.256663
1.242413
1.242225
1.242413
1.242413
1.242225
1.2426
1.30054
1.6463
2.064813
2.064813
2.398761
2.606142
2.619267
2.514452
2.229631
1.87712
1.497796
1.261913
1.242225
1.242225
1.242225
1.242413
1.242225
1.242413
1.2426
1.286664
1.626237
2.042875
2.042875
2.383198
2.60558
2.613455
2.533202
2.262069
1.906746
1.528172
1.269039
1.242413
1.242413
1.242413
1.2426
1.242413
1.242413
1.242225
1.281039
1.613674
2.016812
2.356385
2.356385
2.603704
2.607642
2.548765
2.280445
1.937497
1.55836
1.273726
1.2426
1.242225
1.242225
1.242413
1.2426
1.242225
1.242225
1.271476
1.584611
2.000499
2.349259
2.595454
2.595454
2.60708
2.560953
2.301445
1.956435
1.576736
1.284039
1.242975
1.242225
1.242413
1.242413
1.242413
1.242413
1.242225
1.263976
1.569235
1.975373
2.329196
2.590954
2.590954
2.611767
2.564516
2.319821
1.974435
1.602799
1.295477
1.243163
1.242225
1.242225
1.242225
1.2426
1.2426
1.242038
1.257038
1.540359
1.939184
2.305383
2.588142
2.611205
2.611205
2.582141
2.351322
2.010624
1.630362
1.31104
1.243351
1.242225
1.242413
1.242225
1.242225
1.242413
1.242225
1.252726
1.518984
1.927934
2.291507
2.575391
2.607455
2.586829
2.586829
2.37026
2.034062
1.653238
1.322853
1.243913
1.242225
1.242413
1.242413
1.242413
1.242225
1.242038
1.250851
1.502671
1.903371
2.278382
2.569016
2.598829
2.592267
2.592267
2.38151
2.053
1.683989
1.336541
1.243913
1.242038
1.242413
1.2426
1.242413
1.242413
1.242225
1.246163
1.442107
1.846181
2.235443
2.53189
2.605767
2.580641
2.369697
2.369697
2.038937
1.671051
1.329978
1.2441
1.242225
1.242225
1.242413
1.242413
1.242225
1.242225
1.2456
1.425418
1.824243
2.21463
2.524577
2.621893
2.601829
2.411324
2.088251
2.088251
1.728428
1.368042
1.2456
1.242038
1.242413
1.242413
1.2426
1.242038
1.242038
1.2456
1.426919
1.822556
2.220818
2.532827
2.595079
2.603704
2.4447
2.127627
2.127627
1.763116
1.39598
1.247101
1.242225
1.242413
1.2426
1.242413
1.242225
1.244475
1.244475
1.411543
1.804743
2.203755
2.516702
2.608017
2.600704
2.46345
2.153316
1.788992
1.788992
1.420168
1.249913
1.242413
1.242225
1.242413
1.242413
1.242413
1.2441
1.387542
1.387542
1.781679
2.191754
2.503577
2.596767
2.60933
2.497389
1.818056
1.445294
1.252351
1.242413
1.242413
1.242413
1.242413
1.242413
1.242225
1.243913
1.371042
1.762554
2.175254
2.490451
2.490451
2.596204
2.597142
2.506576
2.200755
1.837368
1.46442
1.255538
1.242413
1.242413
1.242413
1.242413
1.242413
1.242225
1.243725
1.364854
1.738178
2.143378
2.476576
2.476576
2.592829
2.629018
2.550078
2.255881
1.879932
1.484295
1.256663
1.242225
1.2426
1.2426
1.242788
1.242788
1.2426
1.242413
1.245225
1.357729
1.724865
2.05
2.184442
2.184442
2.218005
2.162316
2.110189
1.908058
1.517109
1.255538
1.242038
1.242413
1.242413
1.242413
1.242225
1.242975
1.360167
1.752428
2.11769
2.503389
2.661081
2.664081
2.664081
2.664081
2.664269
2.565453
2.219505
1.826306
1.452794
1.252351
1.242413
1.242038
1.242038
1.242038
1.242038
1.2441
1.333353
1.689052
2.080939
2.390323
2.600329
2.62208
2.62208
2.508077
2.224943
1.867182
1.491045
1.259476
1.242413
1.242038
1.2426
1.2426
1.2426
1.242413
1.242413
1.273351
1.581986
1.988311
2.333321
2.565078
2.599767
2.508264
2.508264
2.240506
1.89362
1.515046
1.265664
1.242413
1.242413
1.242413
1.2426
1.242413
1.242413
1.242225
1.261351
1.557797
1.97331
2.322633
2.575579
2.60933
2.535077
2.535077
2.277445
1.930746
1.546172
1.273914
1.2426
1.242225
1.2426
1.242413
1.242225
1.242225
1.242225
1.257226
1.542797
1.953622
2.308008
2.577829
2.617392
2.551953
2.299945
2.299945
1.953435
1.576548
1.284039
1.242788
1.242413
1.242413
1.2426
1.242413
1.242038
1.242038
1.252726
1.510171
1.917621
2.279132
2.558328
2.61233
2.556266
2.322071
1.985686
1.985686
1.603736
1.293414
1.242975
1.242225
1.242413
1.2426
1.2426
1.242225
1.242225
1.249913
1.491983
1.895308
2.266757
2.559266
2.613642
2.563016
2.330508
1.996186
1.996186
1.621174
1.304477
1.243351
1.242038
1.242413
1.2426
1.242413
1.242225
1.248788
1.248788
1.476983
1.87037
2.243506
2.53489
2.612142
2.573516
2.354134
2.021874
1.64255
1.64255
1.31479
1.243538
1.242225
1.242225
1.2426
1.242788
1.242038
1.245975
1.435919
1.435919
1.833618
2.208067
2.506951
2.598079
2.562641
2.351134
2.019624
1.65005
1.31254
1.31254
1.243351
1.242038
1.2426
1.242413
1.242413
1.242413
1.2441
1.38473
1.38473
1.770054
2.162503
2.468325
2.566203
2.536577
2.330884
2.004624
1.635237
1.306165
1.306165
1.242975
1.242413
1.2426
1.2426
1.2426
1.242413
1.242788
1.330916
1.690177
1.690177
2.085064
2.391635
2.502451
2.485201
2.28907
1.971998
1.601861
1.282727
1.2426
1.2426
1.242225
1.2426
1.242788
1.242975
1.242413
1.2426
1.300915
1.634862
2.03425
2.03425
2.338571
2.475263
2.46195
2.28757
1.973123
1.605424
1.287414
1.242788
1.242788
1.242413
1.2426
1.242788
1.242788
1.242413
1.242413
1.289664
1.611799
2.017936
2.017936
2.333134
2.480513
2.483888
2.313446
2.005374
1.64405
1.310103
1.243351
1.242225
1.242225
1.2426
1.2426
1.2426
1.242413
1.2426
1.312915
1.673114
2.087876
2.408511
2.408511
2.569766
2.583079
2.430637
2.13194
1.787304
1.414918
1.249163
1.242413
1.242225
1.242225
1.2426
1.2426
1.242038
1.242975
1.347416
1.72599
2.142628
2.477326
2.599954
2.599954
2.602579
2.523077
2.226443
1.871495
1.495546
1.260788
1.2426
1.242413
1.242413
1.242225
1.242413
1.242413
1.243725
1.361667
1.746803
2.163628
2.490076
2.624705
2.624705
2.656394
2.560953
2.281007
1.925871
1.550485
1.277289
1.242975
1.242413
1.242225
1.242225
1.242225
1.242038
1.243351
1.347791
1.726178
2.143565
2.475263
2.602392
2.655831
2.655831
2.565828
2.297132
1.942559
1.559298
1.280664
1.242975
1.242038
1.242413
1.242413
1.242413
1.242225
1.242975
1.328291
1.697302
2.105689
2.444137
2.592079
2.656394
2.656394
2.572579
2.315133
1.965622
1.586673
1.287789
1.242788
1.242225
1.242413
1.2426
1.2426
1.242413
1.242788
1.30279
1.662238
2.073251
2.420699
2.589454
2.640455
2.575954
2.575954
2.324134
1.97781
1.595111
1.294915
1.243163
1.242225
1.242413
1.242413
1.242413
1.242413
1.2426
1.284602
1.636737
2.049813
2.393698
2.613267
2.60558
2.577829
2.337634
2.337634
1.986623
1.608612
1.29829
1.243163
1.242225
1.2426
1.2426
1.242225
1.242225
1.242225
1.272226
1.593236
1.995811
2.353384
2.593392
2.588704
2.580829
2.328446
2.328446
1.982123
1.603549
1.299227
1.243163
1.242225
1.242413
1.242413
1.242413
1.242225
1.242225
1.261351
1.567548
1.97706
2.336134
2.587579
2.595454
2.584391
2.363697
2.021312
2.021312
1.641425
1.312915
1.243538
1.242413
1.242413
1.242225
1.242225
1.242225
1.257413
1.257413
1.546547
1.95231
2.320196
2.585141
2.596017
2.591892
2.385635
2.044187
1.672176
1.672176
1.32979
1.244288
1.242225
1.2426
1.242413
1.242413
1.242225
1.254413
1.254413
1.534359
1.938622
2.319258
2.575016
2.597329
2.600517
2.417699
2.078314
1.701052
1.701052
1.348166
1.244475
1.242225
1.242225
1.2426
1.242413
1.242413
1.250663
1.501546
1.501546
1.911246
2.29957
2.565828
2.605767
2.601079
2.428387
2.103064
1.726178
1.371604
1.371604
1.245975
1.242225
1.242413
1.242225
1.242413
1.242225
1.249538
1.483358
1.88912
1.88912
2.281007
2.564141
2.589829
2.601454
2.445825
2.117315
1.752428
1.394668
1.394668
1.247851
1.242225
1.242225
1.242413
1.242413
1.242225
1.247101
1.450544
1.852369
1.852369
2.257006
2.548015
2.632393
2.617767
2.473013
2.139815
1.772304
1.415856
1.249351
1.249351
1.242225
1.242038
1.242413
1.242413
1.242225
1.246163
1.432356
1.835494
2.240693
2.240693
2.53414
2.600517
2.608392
2.470763
2.156503
1.788242
1.40948
1.248413
1.242225
1.242225
1.242413
1.2426
1.242413
1.242225
1.244288
1.390167
1.781304
2.185004
2.500576
2.500576
2.615705
2.606142
2.454075
2.143378
1.779054
1.40273
1.248226
1.242225
1.242225
1.242225
1.2426
1.2426
1.242225
1.243913
1.378167
1.765929
2.173754
2.490451
2.490451
2.599017
2.593392
2.508639
2.206755
1.847306
1.468545
1.255726
1.242413
1.242413
1.242413
1.242413
1.242413
1.242225
1.243725
1.366542
1.757304
2.174691
2.499451
2.595829
2.595829
2.611017
2.529265
2.227005
1.870932
1.498171
1.262101
1.242413
1.242413
1.242413
1.242413
1.242413
1.242225
1.243351
1.357354
1.740803
2.155191
2.485013
2.593579
2.593579
2.640831
2.549328
2.263194
1.911808
1.531359
1.269601
1.242788
1.242225
1.242413
1.242413
1.242413
1.242413
1.243538
1.342353
1.71924
2.141315
2.4732
2.605392
2.652831
2.652831
2.565641
2.289632
1.937872
1.556672
1.281227
1.242788
1.242225
1.242225
1.2426
1.2426
1.242225
1.242788
1.322478
1.695239
2.104752
2.444887
2.596767
2.647768
2.574266
2.574266
2.312883
1.95606
1.577298
1.290977
1.243351
1.242413
1.242225
1.242413
1.242413
1.242225
1.242788
1.31554
1.690739
2.108877
2.457638
2.637455
2.664644
2.581954
2.581954
2.330321
1.955122
1.257601
1.242413
1.242413
1.242788
1.242788
1.242975
1.242225
1.2426
1.2426
1.281977
1.589861
1.976685
2.353947
2.591516
2.587016
2.330508
1.918184
1.918184
1.522171
1.264726
1.243725
1.242038
1.2426
1.243163
1.244663
1.291914
1.545797
1.545797
1.948184
2.341947
2.630705
2.664269
2.664269
2.664456
2.593954
2.258506
1.851244
1.851244
1.47267
1.253476
1.2426
1.242038
1.242413
1.242225
1.2426
1.267914
1.572798
1.572798
1.96731
2.314571
2.582141
2.625268
2.561516
2.316633
1.976685
1.601486
1.293602
1.293602
1.242975
1.242413
1.242413
1.2426
1.242413
1.242225
1.252726
1.519359
1.920434
1.920434
2.28907
2.574079
2.605392
2.581204
2.341009
2.003686
1.632425
1.311978
1.311978
1.243725
1.242225
1.242413
1.242413
1.242413
1.242225
1.251038
1.499108
1.901308
1.901308
2.280257
2.565453
2.615142
2.595454
2.377198
2.036687
1.665051
1.328103
1.244288
1.244288
1.242038
1.242413
1.242413
1.2426
1.242413
1.248413
1.475857
1.88837
2.265444
2.265444
2.559828
2.600704
2.588517
2.393136
2.063125
1.695802
1.345353
1.244663
1.242225
1.242225
1.2426
1.242413
1.242413
1.242225
1.247288
1.460857
1.861182
2.247444
2.247444
2.548578
2.608955
2.594517
2.413574
2.086751
1.71774
1.363167
1.245413
1.242038
1.242038
1.242225
1.2426
1.2426
1.242225
1.2456
1.424481
1.826868
2.225693
2.530577
2.530577
2.600704
2.602017
2.438699
2.111127
1.733678
1.372542
1.246163
1.242225
1.242225
1.242225
1.2426
1.2426
1.242038
1.244663
1.410981
1.806993
2.20413
2.514077
2.612517
2.612517
2.603329
2.449762
2.130627
1.769116
1.394668
1.247288
1.242413
1.242225
1.242225
1.242413
1.242413
1.242038
1.244288
1.391292
1.785054
2.184442
2.506014
2.608767
2.608767
2.605205
2.468325
2.151253
1.79068
1.412106
1.248601
1.242225
1.242225
1.242413
1.242413
1.2426
1.242225
1.243538
1.357166
1.732928
2.13944
2.462138
2.612517
2.607455
2.607455
2.454825
2.147316
1.781117
1.40123
1.247663
1.242413
1.242413
1.2426
1.2426
1.2426
1.242413
1.242975
1.315728
1.670114
2.079063
2.399323
2.572204
2.578954
2.420699
2.420699
2.112064
1.753179
1.381355
1.246163
1.242038
1.242413
1.2426
1.2426
1.2426
1.242413
1.242413
1.287602
1.610299
2.028437
2.354697
2.53864
2.547453
2.401761
2.401761
2.107752
1.749241
1.376104
1.245788
1.242413
1.2426
1.2426
1.242788
1.2426
1.2426
1.242225
1.271101
1.575611
1.993748
2.328446
2.53264
2.560203
2.43645
2.140565
2.140565
1.783929
1.413793
1.248601
1.242225
1.242225
1.242413
1.242788
1.242413
1.242413
1.242413
1.286477
1.623612
2.042875
2.38451
2.602767
2.616267
2.528327
2.258694
2.258694
1.905808
1.524047
1.267539
1.242788
1.242225
1.2426
1.242413
1.242225
1.2426
1.2426
1.306165
1.665426
2.082438
2.422386
2.592642
2.650393
2.581766
2.331821
1.97931
1.97931
1.605049
1.29904
1.243351
1.242225
1.242413
1.2426
1.242225
1.243163
1.307102
1.307102
1.677614
2.092752
2.442262
2.625455
2.664644
2.603329
2.378697
2.028624
1.644988
1.644988
1.318915
1.244288
1.242225
1.2426
1.242413
1.242413
1.242788
1.29979
1.656801
1.656801
2.0635
2.418824
2.604079
2.664644
2.606517
2.390698
2.0485
1.670864
1.670864
1.332228
1.244663
1.242225
1.242413
1.242225
1.242225
1.2426
1.280102
1.623237
1.623237
2.024124
2.38901
2.591329
2.664831
2.609142
2.409823
2.061438
1.679301
1.337666
1.337666
1.244475
1.242225
1.242413
1.2426
1.242225
1.242413
1.267164
1.591361
2.001061
2.001061
2.364072
2.589079
2.662394
2.621893
2.414324
2.069501
1.692427
1.346104
1.244851
1.244851
1.242225
1.242413
1.242413
1.242225
1.242225
1.260413
1.560235
1.96806
1.96806
2.347384
2.587766
2.647956
2.615517
2.428012
2.096689
1.715677
1.359041
1.245413
1.245413
1.242225
1.242413
1.242413
1.242225
1.242225
1.254226
1.530797
1.937684
2.319446
2.319446
2.576329
2.630705
2.61908
2.445262
2.112064
1.740803
1.38173
1.246538
1.242225
1.242225
1.242225
1.2426
1.2426
1.242225
1.250476
1.498921
1.905246
2.293758
2.559078
2.559078
2.639518
2.629955
2.46495
2.137565
1.763679
1.40198
1.247851
1.242225
1.242225
1.242225
1.242413
1.242225
1.242225
1.248788
1.47642
1.88237
2.280445
2.558328
2.558328
2.623205
2.630705
2.486326
2.163628
1.794992
1.427856
1.250288
1.242413
1.242225
1.242225
1.242413
1.242225
1.242225
1.247663
1.456919
1.866619
2.268257
2.557766
2.650393
2.650393
2.641018
2.511264
2.194379
1.822743
1.450357
1.253288
1.242225
1.242225
1.242225
1.242225
1.242225
1.242225
1.246726
1.438169
1.847119
2.258881
2.54089
2.637643
2.650206
2.650206
2.529452
2.203755
1.854619
1.470232
1.256663
1.2426
1.242038
1.242225
1.242225
1.242413
1.242225
1.245788
1.420543
1.816555
2.217443
2.529827
2.639331
2.637643
2.637643
2.537515
2.234693
1.875807
1.495546
1.261726
1.2426
1.242225
1.242413
1.242413
1.242413
1.242038
1.245038
1.39898
1.791055
2.214443
2.521389
2.64308
2.654144
2.553828
2.553828
2.255506
1.889308
1.514859
1.265101
1.242413
1.242038
1.2426
1.242225
1.242225
1.242225
1.2441
1.374979
1.768929
2.190067
2.511264
2.630143
2.662394
2.554578
2.554578
2.275007
1.916308
1.532109
1.272414
1.2426
1.242225
1.242413
1.242413
1.242225
1.242225
1.243351
1.352104
1.738178
2.149941
2.476951
2.614955
2.649268
2.559453
2.274819
2.274819
1.921184
1.542235
1.271101
1.2426
1.242225
1.242413
1.242225
1.242225
1.242788
1.242788
1.315165
1.675364
2.098564
2.429887
2.596579
2.599204
2.556266
2.272757
1.920246
1.920246
1.54486
1.274289
1.242413
1.242225
1.242413
1.242413
1.242413
1.242788
1.30504
1.30504
1.668051
2.089939
2.437387
2.598267
2.658643
2.581579
2.335009
1.974998
1.974998
1.605236
1.296977
1.243163
1.242225
1.242413
1.2426
1.242413
1.242788
1.299227
1.299227
1.663738
2.085439
2.426324
2.607455
2.664644
2.586079
2.354697
2.006124
1.624925
1.624925
1.30879
1.243725
1.242225
1.242225
1.242413
1.242413
1.242788
1.291539
1.657176
1.657176
2.065001
2.417324
2.628643
2.664644
2.600517
2.380948
2.040625
1.657738
1.325103
1.325103
1.244288
1.242225
1.242413
1.242225
1.242225
1.2426
1.284414
1.637487
1.637487
2.052063
2.404198
2.619267
2.664644
2.620768
2.411886
2.063125
1.695052
1.350229
1.350229
1.244663
1.242225
1.242413
1.242413
1.242225
1.242413
1.272601
1.606549
2.012499
2.012499
2.381885
2.61683
2.664644
2.620205
2.446387
2.111877
1.738741
1.388292
1.247476
1.247476
1.242413
1.242225
1.242413
1.242413
1.242413
1.272414
1.613487
2.021874
2.36201
2.36201
2.584954
2.600329
2.558703
2.277257
1.875057
1.455794
1.246913
1.242225
1.242788
1.242788
1.243163
1.243351
1.243163
1.242975
1.242225
1.280289
1.757679
2.254006
2.254006
2.54464
2.582891
2.55139
2.379447
2.13269
1.785242
1.529672
1.377042
1.263601
1.2426
1.2426
1.242788
1.250288
1.386605
1.765366
2.161003
2.54239
2.664269
2.664269
2.664456
2.664456
2.591142
2.271069
1.889683
1.505671
1.259101
1.242413
1.242225
1.2426
1.2426
1.2426
1.242225
1.246913
1.450732
1.859307
2.258694
2.555515
2.596017
2.598267
2.4477
2.4477
2.13044
1.760116
1.395793
1.246913
1.242225
1.242413
1.2426
1.242413
1.242413
1.242225
1.245788
1.429356
1.834369
2.235818
2.54014
2.585704
2.594517
2.474138
2.474138
2.153691
1.782054
1.409855
1.248976
1.242225
1.242413
1.2426
1.2426
1.242225
1.242225
1.244851
1.410981
1.812243
2.21538
2.523452
2.596954
2.60483
2.495139
2.174504
2.174504
1.804555
1.434419
1.250288
1.242225
1.242413
1.242225
1.242413
1.242225
1.244851
1.244851
1.392605
1.788055
2.20563
2.509952
2.609892
2.615142
2.512764
2.200192
1.838869
1.838869
1.457294
1.254038
1.242413
1.242413
1.2426
1.2426
1.242225
1.244288
1.244288
1.381355
1.770617
2.186879
2.502639
2.599954
2.627143
2.529827
2.232631
1.867745
1.867745
1.48317
1.258913
1.242413
1.242413
1.2426
1.242413
1.242225
1.243725
1.364292
1.364292
1.759554
2.173754
2.498326
2.618892
2.637455
2.557766
2.255506
1.88387
1.509796
1.509796
1.263601
1.2426
1.242413
1.2426
1.242413
1.242413
1.243538
1.352854
1.73649
1.73649
2.154441
2.482013
2.61233
2.650768
2.564516
2.284195
1.928684
1.535297
1.535297
1.270539
1.242413
1.242225
1.242413
1.242413
1.242225
1.243163
1.334103
1.712115
1.712115
2.12819
2.46645
2.600892
2.664644
2.567141
2.306508
1.951747
1.570735
1.280102
1.280102
1.242975
1.242413
1.242413
1.242413
1.242225
1.243163
1.311228
1.674051
2.090501
2.090501
2.432512
2.601642
2.615892
2.566203
2.278757
1.956247
1.554985
1.273726
1.2426
1.2426
1.242225
1.2426
1.2426
1.242413
1.242413
1.277851
1.615549
2.025999
2.025999
2.370635
2.606142
2.619642
2.54839
2.276132
1.923246
1.540359
1.269976
1.2426
1.2426
1.242225
1.242413
1.2426
1.2426
1.242413
1.260976
1.56361
1.971998
2.318321
2.318321
2.568641
2.613642
2.535452
2.272382
1.924371
1.539984
1.269414
1.242413
1.242225
1.242225
1.242413
1.2426
1.242413
1.242225
1.253663
1.525921
1.938997
2.300883
2.573141
2.573141
2.61983
2.558703
2.313071
1.969748
1.593236
1.290227
1.242975
1.242413
1.242413
1.242413
1.2426
1.242413
1.242225
1.258538
1.549922
1.962435
2.324883
2.584954
2.584954
2.620205
2.594141
2.393886
2.054313
1.678926
1.337103
1.244663
1.242225
1.242225
1.242225
1.242413
1.242225
1.242413
1.260976
1.585361
2.000686
2.36876
2.596767
2.663331
2.663331
2.631268
2.451075
2.116752
1.746991
1.381355
1.246913
1.242413
1.242225
1.242413
1.242413
1.242225
1.242413
1.264164
1.577111
1.985873
2.358634
2.626768
2.664456
2.638768
2.638768
2.479388
2.146753
1.771929
1.413043
1.249351
1.242225
1.242225
1.242413
1.242413
1.242413
1.242413
1.259101
1.555735
1.956247
2.342884
2.598079
2.664644
2.640643
2.640643
2.497951
2.170941
1.795367
1.420356
1.250101
1.242413
1.242413
1.242413
1.242225
1.242225
1.242413
1.253288
1.516921
1.923059
2.321508
2.593204
2.664831
2.644206
2.517264
2.517264
2.189317
1.808118
1.433856
1.251601
1.2426
1.242225
1.242413
1.242225
1.242225
1.242225
1.250101
1.490483
1.890058
2.294132
2.565078
2.664644
2.649268
2.517264
2.192504
2.192504
1.824431
1.458232
1.251976
1.2426
1.242413
1.242413
1.2426
1.242038
1.242038
1.247101
1.455232
1.855369
2.269007
2.563016
2.664644
2.649831
2.521014
2.231318
2.231318
1.861932
1.476233
1.256663
1.2426
1.242413
1.242225
1.242413
1.242225
1.246726
1.246726
1.433294
1.828743
2.244631
2.536202
2.644206
2.649081
2.544265
2.234131
1.858932
1.858932
1.499858
1.261163
1.2426
1.242225
1.242225
1.242413
1.242038
1.245038
1.409105
1.409105
1.812618
2.22738
2.530765
2.63783
2.649831
2.553265
2.251006
1.896808
1.513734
1.513734
1.267164
1.2426
1.242413
1.242225
1.242413
1.242413
1.244288
1.38848
1.38848
1.782617
2.205255
2.514264
2.649831
2.658081
2.568641
2.28382
1.916871
1.535109
1.535109
1.271101
1.242788
1.242225
1.242413
1.2426
1.242225
1.2441
1.366354
1.73574
1.73574
2.182379
2.499076
2.654331
2.664831
2.562828
2.305008
1.950622
1.567173
1.282914
1.282914
1.243163
1.242413
1.242413
1.242413
1.242225
1.243538
1.349291
1.741366
2.155753
2.155753
2.489513
2.614205
2.664644
2.582891
2.328634
1.97706
1.597361
1.292289
1.292289
1.243163
1.242038
1.242225
1.2426
1.242225
1.243351
1.335228
1.720178
2.134003
2.134003
2.477326
2.637643
2.664831
2.585704
2.341572
2.006124
1.613112
1.301102
1.243351
1.243351
1.242038
1.242413
1.242413
1.242225
1.243163
1.31779
1.692802
2.107752
2.448637
2.448637
2.614767
2.664456
2.611767
2.375135
2.019249
1.63205
1.314978
1.243913
1.242225
1.242225
1.242413
1.242413
1.242225
1.242788
1.304852
1.677426
2.086564
2.432699
2.629768
2.629768
2.664644
2.616267
2.396323
2.047563
1.663926
1.330353
1.244475
1.242413
1.242413
1.242225
1.2426
1.242225
1.242413
1.289852
1.644613
2.042125
2.398573
2.600892
2.600892
2.662394
2.60708
2.389385
2.031437
1.65155
1.32454
1.2441
1.242225
1.242413
1.242413
1.242413
1.242413
1.2426
1.263601
1.584423
1.989811
2.356385
2.595079
2.653206
2.653206
2.593017
2.390323
2.05225
1.680989
1.342728
1.244851
1.242225
1.242413
1.242413
1.242413
1.242413
1.242413
1.266039
1.585736
1.990186
2.366322
2.606142
2.664831
2.664831
2.628455
2.44545
2.115064
1.73274
1.374792
1.246351
1.242038
1.242225
1.242413
1.242413
1.242413
1.242413
1.262664
1.572986
1.980435
2.353572
2.611767
2.664644
2.639331
2.639331
2.477138
2.14394
1.762554
1.410231
1.248226
1.242225
1.242225
1.242413
1.242413
1.242413
1.242413
1.259101
1.564923
1.965435
2.353197
2.61308
2.664644
2.643643
2.495889
2.495889
2.170191
1.80043
1.430294
1.249913
1.242225
1.242225
1.242413
1.242225
1.242225
1.242225
1.255538
1.531172
1.933371
2.328071
2.601267
2.664644
2.647206
2.517077
2.517077
2.191567
1.825931
1.452044
1.252913
1.242413
1.242413
1.242413
1.242413
1.242413
1.242413
1.252351
1.504171
1.915558
2.316821
2.593204
2.664456
2.662394
2.548765
2.234881
2.234881
1.856869
1.458607
1.255351
1.2426
1.242225
1.242413
1.242225
1.242413
1.247851
1.247851
1.437981
1.811305
2.161003
2.434949
2.515202
2.4747
2.230756
1.87037
1.447169
1.447169
1.244851
1.242413
1.242975
1.243163
1.243163
1.242975
1.242225
1.244663
1.244663
1.376667
1.708177
2.13419
2.494014
2.657519
2.664456
2.664644
2.60708
2.317571
2.317571
1.96056
1.590986
1.307665
1.246351
1.242975
1.242413
1.245413
1.326603
1.676301
1.676301
2.051687
2.431574
2.63783
2.664456
2.664269
2.626768
2.347947
1.945559
1.540547
1.540547
1.266601
1.242413
1.242038
1.2426
1.242225
1.243538
1.356041
1.740053
2.162879
2.162879
2.489888
2.595829
2.630143
2.538265
2.235631
1.876557
1.479608
1.257788
1.242413
1.242413
1.242413
1.242413
1.242413
1.242225
1.243163
1.343104
1.722615
2.13719
2.465325
2.465325
2.600892
2.601454
2.54989
2.259256
1.899995
1.514484
1.259288
1.2426
1.242413
1.242413
1.242225
1.242413
1.242225
1.243351
1.327728
1.697864
2.120127
2.45445
2.596579
2.596579
2.645893
2.566578
2.287007
1.926246
1.545235
1.273539
1.242788
1.242225
1.242225
1.242413
1.242413
1.242413
1.242975
1.315165
1.680426
2.086939
2.4447
2.595829
2.595829
2.643268
2.571828
2.310258
1.961497
1.575798
1.283289
1.242975
1.242225
1.242413
1.242413
1.242413
1.242413
1.242788
1.298477
1.661113
2.076438
2.422386
2.599954
2.652643
2.652643
2.583641
2.332196
1.980623
1.600924
1.295102
1.243163
1.242225
1.242413
1.242413
1.242413
1.242413
1.242413
1.286664
1.63655
2.048875
2.404198
2.593017
2.654894
2.654894
2.590579
2.351884
2.001436
1.629987
1.30729
1.243538
1.242225
1.242413
1.242413
1.242413
1.242413
1.242413
1.278227
1.619299
2.024124
2.380385
2.592454
2.653581
2.592454
2.592454
2.373635
2.026937
1.644613
1.319103
1.243913
1.242413
1.242413
1.242413
1.242413
1.242413
1.242225
1.264914
1.579173
1.985686
2.356572
2.594329
2.598267
2.582704
2.378323
2.378323
2.028624
1.64855
1.316853
1.243725
1.242225
1.242413
1.2426
1.242413
1.242413
1.242225
1.254038
1.519921
1.920621
2.29582
2.571828
2.61083
2.579141
2.341947
2.341947
2.002186
1.622487
1.300727
1.243163
1.242413
1.2426
1.2426
1.2426
1.242038
1.242038
1.246351
1.447169
1.846931
2.226818
2.515014
2.591329
2.547828
2.329571
1.980998
1.980998
1.610112
1.292102
1.242975
1.242038
1.242413
1.242788
1.2426
1.242038
1.244851
1.244851
1.403855
1.799492
2.185754
2.481638
2.575391
2.543515
2.324321
1.985873
1.614612
1.614612
1.293039
1.243163
1.242413
1.2426
1.2426
1.2426
1.242225
1.2441
1.2441
1.398043
1.80568
2.206005
2.504139
2.612517
2.592454
2.399886
2.079626
1.708365
1.708365
1.353979
1.245413
1.242225
1.242413
1.2426
1.242413
1.242038
1.247288
1.456919
1.456919
1.868307
2.272194
2.554015
2.651706
2.637643
2.507139
2.179379
1.822931
1.446044
1.446044
1.252163
1.242413
1.242225
1.242413
1.242225
1.242225
1.249913
1.480545
1.889308
1.889308
2.297883
2.587016
2.664644
2.664644
2.553453
2.246881
1.874682
1.507733
1.507733
1.265101
1.2426
1.242225
1.242225
1.242413
1.242413
1.248976
1.474545
1.878995
1.878995
2.290382
2.575016
2.664644
2.664456
2.565266
2.27857
1.908996
1.530797
1.271101
1.271101
1.242788
1.242225
1.242413
1.242413
1.242413
1.247476
1.445294
1.849744
2.262632
2.262632
2.562828
2.664456
2.664456
2.570141
2.28532
1.927559
1.547485
1.274851
1.242975
1.242975
1.242038
1.242413
1.242225
1.242225
1.2456
1.406855
1.804743
2.222318
2.536765
2.536765
2.664644
2.664456
2.577454
2.302945
1.944434
1.55836
1.279727
1.242975
1.242975
1.242413
1.242225
1.242413
1.242225
1.244663
1.388667
1.782992
2.200755
2.521014
2.521014
2.646456
2.664456
2.566953
2.309133
1.949309
1.566048
1.282727
1.243163
1.242225
1.242225
1.242413
1.242225
1.242413
1.2441
1.359979
1.761241
2.157441
2.496264
2.638768
2.638768
2.664831
2.583829
2.329571
1.972935
1.595111
1.294352
1.243351
1.242225
1.242413
1.242413
1.242413
1.242225
1.243538
1.338978
1.726178
2.143565
2.481638
2.63333
2.63333
2.664456
2.591142
2.349259
1.993561
1.611612
1.30204
1.243351
1.242225
1.242413
1.242413
1.242225
1.242413
1.243163
1.324353
1.71024
2.122565
2.467388
2.631643
2.664644
2.664644
2.604455
2.364822
2.021874
1.63355
1.312915
1.2441
1.242413
1.242413
1.242413
1.242413
1.242225
1.242975
1.30954
1.683614
2.093876
2.442075
2.633143
2.664456
2.612517
2.612517
2.395761
2.05675
1.667301
1.332041
1.244475
1.242225
1.242413
1.242413
1.242413
1.242225
1.242788
1.294165
1.660176
2.071188
2.425949
2.63483
2.664831
2.62058
2.62058
2.413949
2.067626
1.693927
1.350041
1.245038
1.242413
1.242038
1.242413
1.242413
1.242413
1.2426
1.285352
1.635612
2.045125
2.411699
2.628643
2.664831
2.64008
2.436637
2.436637
2.092564
1.718302
1.371792
1.245788
1.242225
1.242225
1.2426
1.242413
1.2426
1.2426
1.274476
1.616674
2.024312
2.393136
2.628455
2.664644
2.637268
2.461763
2.123877
2.123877
1.743428
1.384917
1.246913
1.2426
1.242225
1.242413
1.242413
1.242413
1.242413
1.266789
1.590611
1.998249
2.378697
2.628268
2.664644
2.636143
2.477138
2.141128
2.141128
1.768554
1.411543
1.248976
1.2426
1.242225
1.242413
1.242413
1.242225
1.261539
1.261539
1.564923
1.96506
2.353759
2.61308
2.664644
2.641768
2.487638
2.156878
1.787867
1.787867
1.426919
1.249913
1.242038
1.242225
1.242038
1.242225
1.242413
1.254038
1.518984
1.518984
1.927746
2.316633
2.577079
2.654144
2.64008
2.485576
2.151066
1.778492
1.40948
1.40948
1.248038
1.242225
1.242225
1.242413
1.242413
1.242413
1.248038
1.473045
1.473045
1.878057
2.282507
2.565641
2.649081
2.635205
2.509764
2.192879
1.824993
1.446794
1.446794
1.253288
1.242413
1.242225
1.242413
1.242413
1.242225
1.249913
1.481858
1.891558
1.891558
2.298633
2.575016
2.664644
2.661456
2.542203
2.227943
1.866994
1.491233
1.260413
1.260413
1.2426
1.242225
1.242413
1.242225
1.242413
1.247851
1.461982
1.866807
2.275382
2.275382
2.573704
2.664644
2.664644
2.550828
2.258881
1.88987
1.511484
1.266414
1.266414
1.242788
1.242225
1.242413
1.242413
1.242225
1.247101
1.443232
1.844119
2.259631
2.259631
2.558891
2.664456
2.664644
2.573328
2.29132
1.918371
1.544672
1.277664
1.242788
1.242788
1.242038
1.242225
1.242225
1.242413
1.245975
1.430106
1.833618
2.256256
2.553265
2.553265
2.664644
2.664644
2.583079
2.311571
1.952872
1.56961
1.286102
1.243163
1.242225
1.242225
1.242225
1.242225
1.242413
1.246163
1.417731
1.823493
2.237318
2.531327
2.531327
2.664644
2.664456
2.60858
2.345884
1.998623
1.620424
1.297727
1.243163
1.242413
1.242413
1.242413
1.2426
1.242413
1.242225
1.266789
1.532484
1.905058
2.189504
2.366885
2.366885
2.397636
2.239943
1.96581
1.746991
1.611987
1.388667
1.246351
1.242413
1.242413
1.242413
1.242413
1.242413
1.267164
1.689052
2.252881
2.623018
2.664269
2.663706
2.663706
2.663706
2.663894
2.645706
2.407011
2.014374
1.640675
1.320415
1.246163
1.242413
1.242413
1.242413
1.242413
1.251413
1.440231
1.821243
2.20263
2.511077
2.664456
2.664644
2.664644
2.593204
2.351509
1.98231
1.597174
1.290414
1.243163
1.242225
1.242413
1.2426
1.2426
1.2426
1.2426
1.291727
1.645363
2.056
2.400636
2.583454
2.64308
2.585891
2.585891
2.350572
1.999936
1.620424
1.306727
1.243351
1.242413
1.242413
1.242413
1.242413
1.242413
1.242413
1.625862
2.036687
2.393511
2.601642
2.663519
2.595829
2.385073
2.04025
1.650613
1.650613
1.323228
1.243913
1.242038
1.242413
1.242413
1.242413
1.2426
1.270351
1.606174
1.606174
2.012686
2.375885
2.591704
2.659206
2.617205
2.410011
2.068376
1.682864
1.682864
1.341416
1.244663
1.242225
1.242413
1.242413
1.242225
1.242413
1.263789
1.578048
1.578048
1.988873
2.355634
2.594141
2.659206
2.615142
2.419949
2.089001
1.70724
1.355854
1.355854
1.245225
1.242225
1.242413
1.242413
1.242225
1.242225
1.259101
1.551985
1.959997
1.959997
2.336696
2.581204
2.650768
2.621893
2.444887
2.102877
1.71774
1.366729
1.246351
1.246351
1.242225
1.242225
1.242413
1.242413
1.242225
1.253851
1.530234
1.940684
1.940684
2.326759
2.576516
2.656018
2.62433
2.450137
2.12219
1.753741
1.385292
1.246351
1.246351
1.242225
1.242413
1.2426
1.242413
1.242413
1.248788
1.478858
1.885932
2.276882
2.276882
2.554203
2.596954
2.606517
2.443949
2.127252
1.752053
1.380042
1.246351
1.242225
1.242225
1.242413
1.2426
1.2426
1.242413
1.246163
1.433856
1.830993
2.22588
2.528702
2.528702
2.612517
2.600892
2.435699
2.105877
1.727678
1.358479
1.245038
1.242225
1.2426
1.2426
1.242788
1.242413
1.242225
1.243538
1.368979
1.747553
2.145815
2.4597
2.4597
2.580454
2.566391
2.384135
2.059938
1.686239
1.337291
1.2441
1.242225
1.2426
1.2426
1.2426
1.2426
1.242225
1.2426
1.327541
1.693552
2.097439
2.401761
2.549703
2.549703
2.54539
2.380385
2.048125
1.689052
1.334103
1.2441
1.242413
1.2426
1.242788
1.242788
1.242788
1.242413
1.242413
1.311228
1.659988
2.077188
2.394073
2.551015
2.563203
2.563203
2.414511
2.108877
1.746241
1.372354
1.246351
1.242225
1.242225
1.2426
1.2426
1.2426
1.242413
1.242975
1.338041
1.707615
2.129315
2.452013
2.599767
2.593579
2.593579
2.528702
2.229443
1.875432
1.499858
1.262476
1.2426
1.242413
1.242413
1.242413
1.242413
1.242225
1.2441
1.381167
1.769116
2.20863
2.518577
2.664456
2.664831
2.594704
2.594704
2.335759
1.980998
1.603362
1.30654
1.243538
1.242225
1.2426
1.242413
1.242225
1.242225
1.2456
1.407605
1.804368
2.227005
2.544828
2.664644
2.664831
2.625455
2.625455
2.392573
2.044375
1.654363
1.329416
1.244851
1.242413
1.242413
1.242413
1.242225
1.242225
1.245225
1.390918
1.795742
2.20488
2.523639
2.664456
2.664456
2.633893
2.404198
2.404198
2.051875
1.666738
1.334853
1.244851
1.242038
1.242413
1.242225
1.242225
1.243913
1.243913
1.354916
1.753741
2.171316
2.502076
2.658831
2.664456
2.626205
2.413199
2.061063
2.061063
1.688114
1.354541
1.245413
1.242225
1.242413
1.242225
1.242225
1.243725
1.330541
1.330541
1.72149
2.135315
2.480138
2.654144
2.664644
2.636143
2.420699
2.079813
2.079813
1.699364
1.359416
1.245225
1.242225
1.242413
1.242413
1.242225
1.242975
1.303727
1.303727
1.677614
2.086376
2.433637
2.638768
2.664644
2.636706
2.429887
2.090314
1.714552
1.714552
1.368229
1.246538
1.242413
1.242413
1.242225
1.242413
