2.667644
2.667644
2.640643
2.414324
2.061625
1.699927
1.377792
1.242975
1.236413
1.236225
1.236225
1.236038
1.237163
1.290039
1.587611
1.97556
2.344384
2.599579
2.667644
2.667644
2.667644
2.638393
2.407198
2.065376
1.697864
1.371792
1.242225
1.2366
1.236038
1.236038
1.236038
1.237163
1.275039
1.547297
1.940309
2.314571
2.594329
2.667456
2.667644
2.643643
2.643643
2.4417
2.090126
1.717177
1.384167
1.243163
1.236413
1.236038
1.236038
1.236038
1.2366
1.264164
1.525547
1.921746
2.296383
2.569391
2.667831
2.667644
2.639143
2.639143
2.446012
2.099876
1.719615
1.38773
1.243538
1.2366
1.236225
1.236225
1.2366
1.2366
1.256101
1.492546
1.889495
2.261319
2.554203
2.667644
2.667644
2.650393
2.460075
2.460075
2.119377
1.743428
1.404043
1.245413
1.2366
1.236225
1.236038
1.236413
1.251976
1.251976
1.47492
1.87187
2.243693
2.54764
2.666519
2.667831
2.652269
2.478638
2.139065
2.139065
1.774179
1.430856
1.248038
1.236975
1.236225
1.236038
1.236225
1.249351
1.249351
1.45992
1.856494
2.22513
2.541453
2.665394
2.667831
2.641393
2.499451
2.155378
2.155378
1.783929
1.443044
1.250476
1.236788
1.236038
1.236225
1.236413
1.247851
1.438169
1.438169
1.826493
2.215943
2.533765
2.659956
2.667456
2.656769
2.509202
2.178816
1.809243
1.809243
1.46817
1.253101
1.237163
1.236413
1.236038
1.236413
1.246913
1.435731
1.820306
1.820306
2.199255
2.53114
2.659581
2.667644
2.663519
2.52889
2.200942
1.833993
1.833993
1.48542
1.259288
1.237163
1.236038
1.236038
1.236413
1.244475
1.411918
1.79668
1.79668
2.172066
2.519139
2.652456
2.667644
2.664081
2.540515
2.220443
1.846369
1.501921
1.501921
1.263039
1.237538
1.236225
1.236038
1.236038
1.242975
1.395793
1.778679
2.150691
2.150691
2.500952
2.652269
2.667831
2.667644
2.551578
2.234881
1.876182
1.521046
1.272976
1.272976
1.2381
1.236038
1.236225
1.24185
1.382855
1.749241
2.131377
2.488389
2.647956
2.667456
2.667456
2.667644
2.572391
2.270694
1.906933
1.545797
1.278227
1.2381
1.236225
1.236038
1.236038
1.236038
1.240913
1.363354
1.733115
2.113002
2.477326
2.647018
2.667644
2.667644
2.667644
2.573328
2.282132
1.926621
1.564548
1.288539
1.238663
1.236413
1.236038
1.236038
1.236225
1.2396
1.344604
1.71774
2.095564
2.459325
2.639518
2.667644
2.667644
2.667644
2.584016
2.30332
1.947622
1.583673
1.301852
1.239225
1.236225
1.236038
1.236038
1.236038
1.239413
1.339916
1.697677
2.072688
2.440199
2.638018
2.667644
2.667831
2.584954
2.584954
2.310633
1.946122
1.573735
1.291352
1.237725
1.236038
1.23585
1.236225
1.237913
1.237913
1.302415
1.63805
2.019624
2.391635
2.624518
2.667831
2.667831
2.576329
2.576329
2.28832
1.939934
1.583298
1.291164
1.238475
1.236038
1.236038
1.236038
1.237538
1.237538
1.300165
1.627925
2.002936
2.38676
2.626018
2.667644
2.667456
2.613267
2.347384
2.347384
2.001436
1.632425
1.32529
1.239788
1.236413
1.23585
1.236225
1.237913
1.298102
1.298102
1.625675
2.014374
2.383385
2.620955
2.667644
2.667644
2.631268
2.381885
2.027499
2.027499
1.661863
1.345166
1.240725
1.236413
1.236225
1.236225
1.23735
1.290227
1.290227
1.608799
1.999186
2.376635
2.620018
2.667644
2.667644
2.632768
2.400261
2.052813
2.052813
1.687551
1.370667
1.242038
1.236975
1.236038
1.236038
1.237538
1.289289
1.590424
1.590424
1.977435
2.36201
2.61533
2.667456
2.667644
2.642331
2.417511
2.071751
1.714927
1.714927
1.388667
1.2441
1.2366
1.236225
1.236225
1.23735
1.281602
1.57111
1.968998
1.968998
2.343071
2.60633
2.667456
2.667644
2.649268
2.462138
2.124065
1.766117
1.766117
1.426169
1.249913
1.236975
1.236413
1.236225
1.237725
1.290977
1.605986
2.007436
2.007436
2.37026
2.609892
2.667831
2.666331
2.576891
2.253631
1.860619
1.419418
1.24035
1.24035
1.236038
1.2366
1.236975
1.236975
1.236975
1.236225
1.238663
1.537359
2.090126
2.090126
2.446387
2.578391
2.577079
2.479763
2.343259
2.107002
1.869057
1.72299
1.539984
1.539984
1.355479
1.280289
1.253476
1.283664
1.493108
1.80268
2.152753
2.488389
2.488389
2.667644
2.667456
2.667269
2.667644
2.580079
2.246319
1.857057
1.499483
1.261163
1.261163
1.237538
1.236413
1.236038
1.236225
1.242975
1.408355
1.80418
2.174316
2.496264
2.496264
2.652831
2.667644
2.63183
2.433637
2.099876
1.738553
1.397293
1.243538
1.236413
1.236413
1.236225
1.236225
1.236225
1.242975
1.398043
1.79143
2.161753
2.492701
2.646831
2.646831
2.667644
2.632205
2.459137
2.12819
1.772867
1.416793
1.244475
1.236413
1.236038
1.236038
1.236038
1.236413
1.242975
1.399543
1.785617
2.159128
2.499076
2.651331
2.651331
2.667644
2.654144
2.492701
2.153128
1.797055
1.444544
1.251601
1.236975
1.236038
1.236038
1.236038
1.236038
1.242413
1.392605
1.780367
2.150503
2.494201
2.647581
2.667456
2.667456
2.654331
2.518014
2.192129
1.823681
1.468732
1.254788
1.237163
1.236225
1.236038
1.236038
1.236225
1.242225
1.389417
1.772304
2.139815
2.489701
2.644956
2.667644
2.664081
2.664081
2.524202
2.197942
1.839056
1.487483
1.260038
1.23735
1.236225
1.236038
1.236038
1.236225
1.24185
1.381917
1.752241
2.130627
2.483701
2.643643
2.667644
2.667644
2.667644
2.550078
2.239943
1.879557
1.515796
1.269601
1.237538
1.236225
1.236225
1.236038
1.236038
1.240163
1.358479
1.73649
2.116002
2.466263
2.639143
2.667644
2.667644
2.558328
2.558328
2.255131
1.899245
1.527609
1.270914
1.237913
1.236225
1.236038
1.236413
1.239413
1.239413
1.338041
1.694489
2.069126
2.43645
2.633518
2.667644
2.667644
2.560953
2.262819
2.262819
1.906933
1.538297
1.276351
1.237538
1.236038
1.236225
1.236413
1.2381
1.2381
1.313853
1.662801
2.039312
2.407011
2.625268
2.667831
2.667831
2.548953
2.247444
2.247444
1.884807
1.518046
1.267726
1.236975
1.236225
1.236038
1.236038
1.237163
1.283289
1.283289
1.603736
1.975185
2.347759
2.579141
2.667831
2.641393
2.536577
2.232818
1.873932
1.873932
1.501171
1.259288
1.236788
1.236038
1.236038
1.236038
1.236975
1.272976
1.575048
1.575048
1.957935
2.329759
2.580829
2.667831
2.660706
2.551203
2.255694
1.895308
1.535859
1.535859
1.276726
1.23735
1.236038
1.236038
1.236038
1.236788
1.266226
1.560235
1.560235
1.941622
2.320758
2.569016
2.667831
2.663519
2.569203
2.291695
1.938247
1.566423
1.566423
1.290414
1.2381
1.236225
1.236038
1.236225
1.236788
1.274289
1.574298
1.963185
1.963185
2.343446
2.595079
2.667644
2.667644
2.60708
2.36876
2.024687
1.654551
1.343853
1.343853
1.241288
1.236413
1.236225
1.236225
1.237725
1.295102
1.613674
2.003499
2.375135
2.375135
2.626393
2.667644
2.667456
2.645518
2.4477
2.097439
1.730678
1.408731
1.408731
1.247476
1.237163
1.236038
1.236225
1.2381
1.304852
1.621737
2.008936
2.372885
2.372885
2.62433
2.667644
2.667644
2.647206
2.458575
2.115064
1.749803
1.420543
1.247851
1.247851
1.237163
1.236225
1.236038
1.237725
1.294352
1.597549
1.995061
2.364072
2.617017
2.617017
2.667456
2.667456
2.646268
2.472075
2.129128
1.759929
1.428231
1.249351
1.23735
1.23735
1.236413
1.236225
1.237538
1.282539
1.569985
1.963185
2.334821
2.61233
2.667456
2.667456
2.667456
2.652269
2.488389
2.147878
1.772117
1.433294
1.249163
1.237163
1.237163
1.236225
1.236038
1.236975
1.268664
1.531922
1.932621
2.299757
2.587204
2.667456
2.667456
2.667456
2.655831
2.496639
2.152003
1.785992
1.447544
1.251038
1.237163
1.236413
1.236413
1.236038
1.236975
1.259101
1.501921
1.90112
2.268444
2.573141
2.667831
2.667644
2.667644
2.654144
2.501139
2.167566
1.796867
1.45992
1.253288
1.236975
1.236413
1.236038
1.236038
1.2366
1.253663
1.470607
1.870182
2.237131
2.557766
2.667456
2.667644
2.667644
2.660706
2.504889
2.166254
1.799867
1.461045
1.253851
1.23735
1.236225
1.236225
1.236225
1.2366
1.251413
1.455607
1.849931
2.223443
2.547265
2.665206
2.667644
2.656581
2.656581
2.510327
2.184817
1.81468
1.472857
1.256476
1.237538
1.236225
1.236225
1.2366
1.2366
1.248038
1.435731
1.830993
2.196442
2.532827
2.658831
2.667644
2.667644
2.52589
2.52589
2.208255
1.846181
1.498546
1.260788
1.237538
1.236225
1.236413
1.236225
1.236225
1.244663
1.415106
1.80418
2.181629
2.528327
2.655643
2.667644
2.667831
2.539765
2.539765
2.238818
1.87712
1.521609
1.273539
1.2381
1.236413
1.236225
1.236225
1.243351
1.243351
1.400855
1.779617
2.154628
2.514639
2.653769
2.667644
2.667644
2.55289
2.249506
2.249506
1.88612
1.530422
1.275226
1.2381
1.236413
1.236225
1.236225
1.241288
1.37948
1.37948
1.758616
2.137378
2.493264
2.641768
2.667644
2.667644
2.559266
2.260944
1.905808
1.905808
1.54336
1.278414
1.238288
1.236225
1.236038
1.236225
1.240913
1.749241
2.121627
2.121627
2.479013
2.638393
2.667456
2.667644
2.587766
2.297508
1.932246
1.568298
1.291914
1.291914
1.238663
1.236225
1.236225
1.236225
1.240538
1.358292
1.720927
2.095189
2.460638
2.460638
2.632768
2.667644
2.667644
2.590392
2.317008
1.959247
1.591361
1.303915
1.303915
1.239225
1.236413
1.236225
1.236225
1.239975
1.343104
1.691677
2.066313
2.444512
2.444512
2.638018
2.667644
2.667456
2.61608
2.336509
1.975748
1.623237
1.323978
1.239975
1.239975
1.236413
1.236225
1.236225
1.23885
1.333541
1.683614
2.064063
2.432324
2.63408
2.63408
2.667644
2.667644
2.62808
2.354509
1.992436
1.640488
1.334853
1.240538
1.236788
1.236788
1.236225
1.236413
1.238288
1.320603
1.662238
2.042312
2.407948
2.62733
2.62733
2.667644
2.667644
2.632205
2.363697
2.000311
1.646488
1.342916
1.2411
1.236788
1.236788
1.236413
1.236225
1.237913
1.30879
1.634675
2.017187
2.390698
2.618517
2.667456
2.667456
2.667644
2.636518
2.38751
2.031437
1.659051
1.340666
1.240725
1.236413
1.236038
1.236038
1.236038
1.23735
1.279352
1.572986
1.962622
2.336884
2.592642
2.667644
2.667644
2.667644
2.612142
2.363509
2.023562
1.658863
1.346104
1.241288
1.2366
1.236038
1.236225
1.236225
1.237538
1.286477
1.594174
1.989623
2.361259
2.611205
2.667456
2.667644
2.667644
2.642518
2.422574
2.074376
1.704802
1.38323
1.243913
1.236788
1.236225
1.236225
1.236225
1.23735
1.289664
1.584986
1.974435
2.345509
2.612517
2.667644
2.667644
2.648331
2.648331
2.452013
2.097439
1.728615
1.40348
1.246726
1.236788
1.236225
1.236038
1.23735
1.23735
1.283664
1.572235
1.973873
2.336321
2.602392
2.667644
2.667644
2.654519
2.478451
2.478451
2.13344
1.767054
1.430481
1.250476
1.23735
1.236225
1.236225
1.23735
1.23735
1.275789
1.549172
1.948559
2.311008
2.590954
2.667644
2.667456
2.653018
2.495514
2.495514
2.148253
1.79143
1.445669
1.251788
1.237538
1.236225
1.236038
1.236975
1.270914
1.270914
1.531734
1.922684
2.29807
2.584204
2.667456
2.667456
2.667831
2.534328
2.214255
2.214255
1.834181
1.48992
1.263601
1.23885
1.2366
1.236413
1.238475
1.286664
1.564923
1.564923
1.939184
2.275944
2.543515
2.654706
2.636518
2.55364
2.274632
1.871307
1.425231
1.425231
1.239975
1.236225
1.236413
1.236788
1.236788
1.2366
1.241475
1.439669
1.439669
1.79443
2.076813
2.37701
2.565266
2.667644
2.667644
2.666331
2.578954
2.303883
2.303883
1.908996
1.570173
1.321915
1.254226
1.245038
1.255163
1.403105
1.71474
2.087126
2.087126
2.434012
2.649081
2.667456
2.667456
2.667456
2.599767
2.278382
1.891558
1.518984
1.518984
1.264539
1.236975
1.236038
1.236038
1.236225
1.242225
1.385667
1.777554
2.145253
2.145253
2.490638
2.651518
2.667644
2.640643
2.507326
2.179004
1.81168
1.457294
1.457294
1.252163
1.236975
1.236038
1.236038
1.236225
1.240913
1.37423
1.760679
2.132878
2.132878
2.483326
2.641393
2.667831
2.665206
2.537702
2.198505
1.839056
1.490858
1.259101
1.259101
1.237163
1.236038
1.236038
1.236225
1.241475
1.366917
1.748491
2.11919
2.476013
2.476013
2.640831
2.667644
2.661081
2.543515
2.229818
1.866619
1.514859
1.270164
1.237725
1.237725
1.236225
1.236038
1.236225
1.240913
1.369167
1.746428
2.119002
2.463825
2.636518
2.636518
2.667644
2.667644
2.551578
2.250631
1.886308
1.530234
1.272226
1.237725
1.237725
1.236225
1.236038
1.236225
1.240163
1.341416
1.71249
2.092189
2.452387
2.634268
2.634268
2.667644
2.664081
2.561141
2.276695
1.917434
1.541484
1.277664
1.237913
1.236413
1.236413
1.236038
1.236225
1.23885
1.32529
1.687364
2.062938
2.425949
2.633893
2.667644
2.667644
2.667644
2.575954
2.288507
1.930934
1.569985
1.293602
1.238663
1.236225
1.236038
1.236038
1.236225
1.238475
1.318353
1.664301
2.042312
2.408324
2.626955
2.667644
2.667644
2.667644
2.577829
2.293008
1.936184
1.567173
1.288914
1.238663
1.236225
1.236038
1.236038
1.236225
1.237538
1.298102
1.6223
1.999374
2.370822
2.60558
2.667644
2.667644
2.667644
2.569578
2.301633
1.949122
1.582736
1.29679
1.2381
1.236413
1.236225
1.236225
1.236225
1.237163
1.279352
1.574111
1.950247
2.326384
2.578766
2.667831
2.662394
2.567703
2.567703
2.284382
1.918184
1.545797
1.279164
1.23735
1.236225
1.236038
1.236225
1.2366
1.2366
1.257226
1.513171
1.886308
2.264132
2.540328
2.639706
2.644768
2.549328
2.549328
2.249319
1.896245
1.536984
1.276914
1.237163
1.236038
1.236038
1.236225
1.236413
1.236413
1.248788
1.483733
1.87637
2.245381
2.523077
2.637268
2.629768
2.559641
2.28232
2.28232
1.923996
1.549922
1.280664
1.237538
1.236038
1.236038
1.236225
1.236225
1.249163
1.249163
1.46517
1.858369
2.237318
2.53114
2.656206
2.667831
2.579516
2.330696
1.989061
1.989061
1.623237
1.322103
1.2396
1.236413
1.236038
1.236038
1.236413
1.257788
1.257788
1.507359
1.908808
2.282132
2.565828
2.667831
2.667831
2.637081
2.420511
2.079438
2.079438
1.713052
1.387542
1.244851
1.236975
1.236413
1.236038
1.23735
1.275601
1.556298
1.556298
1.953435
2.323383
2.600517
2.667644
2.667644
2.658081
2.497014
2.155191
1.791617
1.791617
1.460857
1.255163
1.237725
1.236413
1.236225
1.237725
1.284414
1.56286
1.970498
1.970498
2.331071
2.603517
2.667456
2.667456
2.665769
2.523077
2.186692
1.818993
1.48917
1.48917
1.262664
1.2381
1.2366
1.236413
1.237538
1.272601
1.54486
1.946684
1.946684
2.306883
2.581204
2.667456
2.667644
2.663331
2.526827
2.195504
1.828181
1.48992
1.48992
1.260601
1.237725
1.236413
1.236413
1.236975
1.263226
1.508671
1.914808
2.27632
2.27632
2.577641
2.667644
2.667269
2.665206
2.52964
2.20038
1.832493
1.48617
1.258538
1.258538
1.237725
1.236413
1.236225
1.236975
1.253101
1.473045
1.872807
2.243506
2.560953
2.560953
2.667644
2.667456
2.665019
2.533765
2.209192
1.843556
1.504358
1.263039
1.263039
1.2381
1.236413
1.236225
1.2366
1.248976
1.444919
1.843369
2.212193
2.54389
2.54389
2.664831
2.667456
2.667644
2.536952
2.22213
1.854994
1.513359
1.269601
1.237725
1.237725
1.236225
1.236225
1.2366
1.247288
1.428981
1.817118
2.181442
2.526077
2.652269
2.652269
2.667644
2.665394
2.548953
2.229256
1.866057
1.526672
1.273351
1.238288
1.236413
1.236413
1.236225
1.236413
1.245413
1.413793
1.799492
2.168691
2.527015
2.653956
2.667644
2.667644
2.667644
2.571641
2.263569
1.904496
1.55761
1.285727
1.239038
1.236413
1.236413
1.236225
1.236413
1.243538
1.399355
1.784679
2.159691
2.51614
2.651518
2.667644
2.667644
2.667456
2.576329
2.281569
1.923434
1.566798
1.289852
1.239225
1.236413
1.236225
1.236225
1.236413
1.243163
1.38623
1.762741
2.132315
2.499451
2.641956
2.667644
2.667644
2.667644
2.596392
2.306883
1.950622
1.594736
1.307477
1.239788
1.236225
1.236225
1.236225
1.236225
1.241475
1.372917
1.746616
2.124253
2.642893
2.667456
2.667831
2.60708
2.327883
1.96881
1.96881
1.610299
1.315728
1.239975
1.236413
1.236225
1.236225
1.240913
1.362417
1.362417
1.730678
2.106064
2.46945
2.644956
2.667456
2.667269
2.618142
2.351322
1.994873
1.994873
1.633737
1.333916
1.241475
1.236413
1.236225
1.236413
1.240163
1.350041
1.701052
1.701052
2.079063
2.453512
2.633893
2.667644
2.667456
2.620955
2.370072
2.015124
1.650425
1.650425
1.337103
1.241475
1.236788
1.236225
1.236225
1.239413
1.335978
1.685301
2.061438
2.061438
2.432324
2.629955
2.667644
2.667644
2.628455
2.374197
2.021687
1.656051
1.351166
1.351166
1.242225
1.236788
1.236038
1.236413
1.238663
1.321728
1.654926
2.030312
2.030312
2.407011
2.62733
2.667269
2.667644
2.635018
2.392761
2.046813
1.688676
1.364479
1.364479
1.242975
1.236975
1.236413
1.236225
1.238475
1.304665
1.629987
2.012874
2.374385
2.374385
2.619642
2.667644
2.667456
2.629768
2.391823
2.034062
1.662801
1.350791
1.241663
1.241663
1.2366
1.236038
1.236225
1.237163
1.277664
1.567548
1.956997
2.326571
2.585329
2.585329
2.667456
2.667644
2.622455
2.391635
2.044375
1.679301
1.367479
1.242975
1.242975
1.2366
1.236413
1.236225
1.237538
1.288914
1.589674
1.981373
2.356009
2.611955
2.611955
2.667456
2.667456
2.648893
2.443387
2.102127
1.72974
1.40273
1.246538
1.236975
1.236975
1.236413
1.236413
1.237725
1.283477
1.57336
1.968998
2.339134
2.592079
2.667456
2.667456
2.667644
2.648331
2.467575
2.129128
1.762929
1.425793
1.248038
1.237538
1.236413
1.236413
1.236225
1.237538
1.279727
1.560235
1.95981
2.321321
2.582891
2.667456
2.667456
2.667456
2.658081
2.491951
2.150878
1.785242
1.449607
1.255351
1.237725
1.236413
1.236413
1.236413
1.237538
1.278227
1.544485
1.946122
2.308008
2.590954
2.667644
2.667644
2.667644
2.658456
2.509764
2.175816
1.80868
1.473045
1.258163
1.237913
1.236413
1.236413
1.236413
1.237163
1.267164
1.525547
1.929246
2.29507
2.584954
2.667644
2.667644
2.667644
2.667644
2.539015
2.232443
1.863807
1.517296
1.272601
1.239225
1.236788
1.236413
1.238475
1.238475
1.293789
1.564173
1.938434
2.271444
2.54239
2.649456
2.644206
2.560016
2.560016
2.27707
1.870557
1.440606
1.2411
1.236225
1.236413
1.236788
1.2366
1.236413
1.236413
1.239788
1.416043
1.776429
2.062938
2.371947
2.571266
2.665769
2.667831
2.667831
2.667831
2.578016
2.291695
1.911246
1.572235
1.317603
1.250288
1.243351
1.252163
1.389042
1.389042
1.689239
2.063313
2.416574
2.646081
2.667081
2.667269
2.667456
2.61983
2.314945
2.314945
1.924184
1.542047
1.271476
1.237913
1.236225
1.236225
1.236413
1.241475
1.241475
1.367292
1.749803
2.121627
2.4687
2.648518
2.667456
2.658456
2.522327
2.197192
2.197192
1.833243
1.478483
1.257976
1.23735
1.236225
1.236225
1.236225
1.2411
1.371417
1.371417
1.750554
2.120315
2.478076
2.640643
2.667644
2.665581
2.536765
2.219693
1.855932
1.855932
1.515046
1.270914
1.237725
1.2366
1.236038
1.236225
1.241288
1.369917
1.750178
1.750178
2.115064
2.471888
2.644956
2.667644
2.667644
2.558703
2.255319
1.89437
1.537922
1.537922
1.279727
1.238288
1.236225
1.236225
1.236225
1.24035
1.361104
1.72224
1.72224
2.100814
2.46345
2.642518
2.667644
2.667644
2.567703
2.271819
1.915934
1.563235
1.563235
1.291164
1.238475
1.236413
1.236225
1.236038
1.239975
1.355479
1.71474
2.082438
2.082438
2.446762
2.638018
2.667644
2.667644
2.588517
2.304445
1.942184
1.586673
1.302977
1.302977
1.239413
1.236413
1.236225
1.236225
1.239038
1.341228
1.698239
2.071938
2.436074
2.436074
2.634455
2.667456
2.667456
2.594517
2.313633
1.962997
1.602237
1.314603
1.314603
1.239788
1.236413
1.236225
1.236225
1.23885
1.326603
1.679676
2.053938
2.423136
2.423136
2.638768
2.667456
2.667644
2.60483
2.331634
1.971623
1.617799
1.32454
1.24035
1.24035
1.236413
1.236225
1.236225
1.238475
1.316853
1.649488
2.023937
2.406636
2.630518
2.630518
2.667644
2.667456
2.612892
2.348322
1.997873
1.632425
1.324353
1.239788
1.2366
1.2366
1.236038
1.236225
1.237913
1.301102
1.621924
1.997498
2.365385
2.61383
2.667644
2.667644
2.667644
2.601079
2.343071
1.98231
1.613487
1.315915
1.239038
1.236413
1.236413
1.236225
1.236413
1.236975
1.267914
1.54861
1.933371
2.305008
2.567141
2.667644
2.667644
2.667831
2.582516
2.326009
1.974998
1.601111
1.29979
1.238288
1.236225
1.236225
1.236225
1.236038
1.2366
1.257788
1.512609
1.897745
2.272569
2.554203
2.667831
2.667831
2.667831
2.581391
2.330696
1.980623
1.608049
1.31104
1.23885
1.236225
1.236038
1.236038
1.236038
1.2366
1.255163
1.494233
1.889683
2.257381
2.53864
2.667831
2.667644
2.667644
2.589454
2.365197
2.026937
1.662426
1.348166
1.240538
1.236225
1.236225
1.236413
1.236413
1.2366
1.263976
1.528359
1.928684
2.299757
2.573516
2.667644
2.667456
2.649456
2.649456
2.459137
2.110002
1.743428
1.420918
1.248788
1.23735
1.2366
1.236413
1.237538
1.237538
1.281227
1.56511
1.96731
2.347572
2.617205
2.667456
2.667456
2.667831
2.519514
2.519514
2.183504
1.824993
1.48767
1.263039
1.2381
1.2366
1.236413
1.2381
1.290789
1.290789
1.577111
1.974998
2.344009
2.619267
2.667456
2.667456
2.667456
2.53414
2.53414
2.21388
1.849744
1.517671
1.270914
1.238663
1.2366
1.2366
1.237913
1.281977
1.281977
1.56361
1.965998
2.325446
2.605205
2.667644
2.667456
2.667644
2.541453
2.21988
2.21988
1.860619
1.516734
1.269601
1.238663
1.2366
1.2366
1.237538
1.272039
1.529672
1.529672
1.917808
2.28307
2.579704
2.667644
2.667269
2.667644
2.547828
2.220443
1.856494
1.856494
1.522547
1.270726
1.238288
1.236413
1.236225
1.236975
1.259101
1.487108
1.487108
1.896995
2.255506
2.557953
2.667644
2.667456
2.667644
2.544453
2.22588
1.864932
1.864932
1.522547
1.273351
1.238475
1.236413
1.236413
1.236788
1.253476
1.46667
1.857432
1.857432
2.227005
2.548578
2.667644
2.667644
2.667456
2.557578
2.242193
1.87787
1.528547
1.528547
1.276164
1.238288
1.236413
1.236225
1.2366
1.249163
1.444732
1.839056
2.199817
2.199817
2.542203
2.656018
2.667269
2.667456
2.571828
2.260007
1.899995
1.558735
1.289289
1.289289
1.239038
1.2366
1.236225
1.236788
1.247851
1.434981
1.818618
2.190629
2.190629
2.539765
2.656394
2.667456
2.667456
2.587391
2.286257
1.924371
1.574673
1.295477
1.295477
1.2396
1.236413
1.236413
1.2366
1.246913
1.418481
1.799492
2.168691
2.513889
2.513889
2.652831
2.667456
2.667644
2.600704
2.304445
1.947809
1.592674
1.303165
1.240538
1.240538
1.2366
1.236413
1.2366
1.245413
1.414356
1.790867
2.161003
2.513514
2.656018
2.656018
2.667456
2.667456
2.61608
2.327321
1.973873
1.624175
1.317603
1.240725
1.2366
1.2366
1.2366
1.2366
1.2441
1.400293
1.771367
2.13569
2.514264
2.654706
2.654706
2.667456
2.62058
2.348884
1.990186
1.63205
1.329041
1.241475
1.2366
1.236225
1.236413
1.236413
1.241288
1.369354
1.732365
2.112814
2.481076
2.642331
2.667644
2.667644
2.627705
2.627705
2.372698
2.015499
1.657363
1.348354
1.2426
1.236788
1.236413
1.236413
1.236413
1.241288
1.368229
1.731803
2.099876
2.47395
2.640455
2.667456
2.667456
2.632955
2.632955
2.38526
2.035
1.667301
1.359416
1.243538
1.236788
1.236413
1.236413
1.24035
1.24035
1.351354
1.707427
2.080001
2.44695
2.639706
2.667644
2.667456
2.642143
2.410949
2.410949
2.05
1.679301
1.373854
1.243913
1.237163
1.2366
1.2366
1.239788
1.336166
1.336166
1.688489
2.065751
2.442637
2.637081
2.667456
2.667456
2.638206
2.425949
2.425949
2.069501
1.711927
1.391105
1.245038
1.237163
1.236413
1.2366
1.239413
1.328478
1.328478
1.660551
2.043062
2.411324
2.629205
2.667456
2.667456
2.647956
2.430637
2.085626
2.085626
1.722053
1.403105
1.246726
1.237163
1.236413
1.236225
1.239038
1.313478
1.632987
1.632987
2.026562
2.400073
2.632393
2.667644
2.667456
2.653394
2.454075
2.105127
1.73724
1.73724
1.408918
1.247663
1.236975
1.236413
1.236413
1.237913
1.293602
1.582173
1.981748
1.981748
2.353947
2.599392
2.667644
2.667644
2.640643
2.424636
2.076813
1.715865
1.715865
1.385855
1.245038
1.236788
1.236225
1.236225
1.237163
1.281602
1.57261
1.969748
1.969748
2.340259
2.598079
2.667456
2.667644
2.649643
2.483513
2.148253
1.777742
1.442107
1.442107
1.251976
1.23735
1.236225
1.236413
1.237538
1.286477
1.56886
1.97031
2.342134
2.342134
2.608017
2.667644
2.667456
2.662581
2.504326
2.170191
1.803618
1.46067
1.257038
1.257038
1.237725
1.236413
1.236225
1.237538
1.277289
1.551047
1.954372
2.321321
2.321321
2.602204
2.667456
2.667456
2.667456
2.526827
2.19813
1.829306
1.493483
1.268289
1.268289
1.238663
1.2366
1.236413
1.237725
1.276539
1.549547
1.944247
2.307633
2.601829
2.601829
2.667456
2.667456
2.667644
2.536202
2.20938
1.837744
1.515046
1.274851
1.238663
1.238663
1.236413
1.236413
1.23735
1.273164
1.521984
1.927934
2.292258
2.593579
2.667456
2.667456
2.667456
2.667644
2.548953
2.233006
1.865682
1.522171
1.279914
1.239788
1.236788
1.236788
1.2366
1.237725
1.266976
1.515984
1.923809
2.298633
2.599204
2.667644
2.667644
2.667269
2.667456
2.577641
2.235631
1.819931
1.415293
1.242788
1.236225
1.236225
1.236225
1.2366
1.236413
1.236225
1.2381
1.335041
1.631112
1.951747
2.21463
2.38226
2.38226
2.53864
2.406074
2.042875
1.618362
1.31629
1.239788
1.237163
1.236788
1.239975
1.239975
1.290602
1.54936
1.860994
2.206755
2.530952
2.667456
2.667081
2.667081
2.667081
2.667081
2.666519
2.488201
2.106627
1.73199
1.39448
1.248976
1.237913
1.236788
1.236788
1.237163
1.254788
1.445857
1.800055
2.150128
2.482576
2.644581
2.667456
2.662956
2.662956
2.525702
2.208255
1.841681
1.490296
1.262101
1.237725
1.236225
1.236225
1.236413
1.236413
1.240725
1.364479
1.744178
2.114502
2.461388
2.638956
2.667644
2.667831
2.547453
2.547453
2.246506
1.887245
1.529672
1.276164
1.238475
1.236225
1.236413
1.236225
1.24185
1.24185
1.359792
1.745678
2.114502
2.466263
2.639706
2.667644
2.667456
2.576141
2.283257
2.283257
1.926621
1.569423
1.291727
1.23885
1.236225
1.236225
1.236225
1.240725
1.240725
1.356041
1.726553
2.098564
2.464388
2.639331
2.667644
2.667644
2.592079
2.310446
2.310446
1.95306
1.600174
1.31329
1.239788
1.2366
1.236413
1.236038
1.240538
1.356604
1.356604
1.721303
2.089001
2.458575
2.639331
2.667644
2.667644
2.610642
2.330133
1.979498
1.979498
1.608424
1.322478
1.240725
1.2366
1.236225
1.236413
1.239788
1.344229
1.702364
1.702364
2.076813
2.448825
2.633893
2.667644
2.667456
2.61983
2.357322
2.014187
2.014187
1.653613
1.336916
1.240913
1.2366
1.236225
1.236225
1.239225
1.328478
1.688489
1.688489
2.0605
2.428949
2.633893
2.667456
2.667456
2.630705
2.373447
2.028624
1.662426
1.662426
1.356604
1.2426
1.236788
1.236413
1.236225
1.238663
1.318353
1.647613
2.027124
2.027124
2.407198
2.63183
2.667644
2.667644
2.632768
2.39126
2.038187
1.669738
1.356791
1.356791
1.242038
1.236788
1.236413
1.236225
1.238288
1.300165
1.620049
2.003874
2.379447
2.379447
2.620018
2.667644
2.667644
2.623768
2.376447
2.026937
1.663926
1.348729
1.348729
1.241475
1.2366
1.236225
1.236225
1.236975
1.275789
1.565673
1.947059
2.320946
2.320946
2.583641
2.667644
2.667644
2.598454
2.350009
2.015311
1.642925
1.329603
1.239788
1.239788
1.236413
1.236038
1.236038
1.236788
1.261539
1.519171
1.910683
2.28232
2.560203
2.560203
2.667644
2.667644
2.616455
2.359947
2.016812
1.6493
1.338603
1.240725
1.236413
1.236413
1.236225
1.236225
1.236413
1.256288
1.491233
1.88537
2.260569
2.551578
2.551578
2.664644
2.667644
2.622455
2.394823
2.050937
1.681176
1.359979
1.241475
1.2366
1.2366
1.236225
1.236225
1.2366
1.258913
1.503796
1.900183
2.272944
2.562641
2.667644
2.667644
2.667456
2.637081
2.451075
2.113564
1.744741
1.417543
1.248976
1.23735
1.2366
1.2366
1.2366
1.237538
1.272039
1.541109
1.948559
2.31532
2.595267
2.667456
2.667456
2.667456
2.658643
2.512764
2.180317
1.820493
1.479795
1.264539
1.238475
1.2366
1.236413
1.236413
1.237725
1.280477
1.554985
1.95456
2.319821
2.608205
2.667644
2.667456
2.667456
2.667644
2.539765
2.224755
1.856494
1.519546
1.279727
1.23885
1.236975
1.2366
1.2366
1.237538
1.277101
1.544297
1.934122
2.303695
2.590017
2.667456
2.667269
2.667644
2.667644
2.550078
2.232818
1.867932
1.527984
1.282539
1.239413
1.2366
1.2366
1.237163
1.237163
1.264164
1.512609
1.907496
2.279695
2.574829
2.667644
2.667644
2.667456
2.566203
2.566203
2.255881
1.885932
1.537734
1.281602
1.239225
1.2366
1.236413
1.237163
1.237163
1.256851
1.483358
1.876182
2.245381
2.553078
2.667644
2.667269
2.667644
2.551015
2.551015
2.254006
1.88612
1.536797
1.276539
1.238663
1.2366
1.236413
1.236788
1.253663
1.253663
1.461045
1.848056
2.21613
2.548203
2.661831
2.667644
2.667831
2.561141
2.259444
2.259444
1.89662
1.545047
1.284227
1.23885
1.236788
1.236225
1.236788
1.247288
1.435919
1.435919
1.818618
2.186129
2.526265
2.658081
2.667644
2.667644
2.559266
2.268632
1.909371
1.909371
1.553297
1.284414
1.23885
1.236225
1.236413
1.236413
1.246163
1.416418
1.416418
1.799305
2.166254
2.520452
2.646456
2.667644
2.667644
2.570141
2.288507
1.926621
1.926621
1.56436
1.297165
1.239413
1.2366
1.236225
1.236413
1.243351
1.388855
1.765741
1.765741
2.142628
2.503389
2.643456
2.667456
2.667644
2.581016
2.29732
1.945372
1.575423
1.575423
1.294352
1.239413
1.236413
1.236225
1.2366
1.242225
1.38023
1.754304
2.121815
2.121815
2.491014
2.638768
2.667456
2.667644
2.588329
2.308383
1.596049
1.314978
1.240163
1.240163
1.2366
1.236225
1.236413
1.240913
1.359792
1.725615
2.097626
2.460825
2.635955
2.635955
2.667456
2.667456
2.613455
2.335759
1.976685
1.621174
1.320603
1.240163
1.2366
1.2366
1.236413
1.236413
1.240538
1.352854
1.708177
2.086001
2.457825
2.639143
2.667456
2.667456
2.667644
2.620955
2.346447
2.007811
1.632987
1.32004
1.241288
1.2366
1.236413
1.236413
1.236413
1.239788
1.340291
1.682489
2.058813
2.431574
2.633893
2.667644
2.667831
2.667831
2.622643
2.359385
2.006686
1.65155
1.343291
1.241475
1.2366
1.236413
1.236413
1.236413
1.23885
1.322103
1.662238
2.041937
2.412074
2.630705
2.667456
2.667644
2.667644
2.63333
2.384135
2.029562
1.664488
1.352104
1.2426
1.236788
1.236413
1.236225
1.236225
1.238288
1.308602
1.633362
2.018312
2.387885
2.616455
2.667644
2.667456
2.631268
2.631268
2.381885
2.043062
1.681926
1.364104
1.243351
1.236788
1.236413
1.236413
1.238288
1.238288
1.29979
1.614987
2.002561
2.371572
2.612517
2.667644
2.667831
2.635205
2.635205
2.401386
2.055063
1.700114
1.377042
1.244475
1.236975
1.236413
1.236413
1.23735
1.23735
1.287414
1.583486
1.96206
2.334071
2.590017
2.667644
2.667644
2.62658
2.415824
2.415824
2.065001
1.703302
1.379855
1.243913
1.236975
1.236225
1.236225
1.23735
1.279164
1.279164
1.569985
1.960747
2.338196
2.591329
2.667644
2.667644
2.639706
2.426887
2.080376
2.080376
1.71099
1.389605
1.244475
1.2366
1.236225
1.236225
1.236975
1.262851
1.518609
1.518609
1.903558
2.265444
2.543703
2.665956
2.667644
2.628268
2.401011
2.054125
2.054125
1.695052
1.368979
1.242038
1.2366
1.236225
1.236413
1.2366
1.254788
1.494796
1.494796
1.88987
2.262069
2.551578
2.667644
2.667644
2.638581
2.453887
2.119565
1.751491
1.751491
1.419231
1.247851
1.236975
1.236413
1.236225
1.236788
1.256663
1.491983
1.88837
1.88837
2.260756
2.561328
2.667831
2.667644
2.641768
2.482388
2.143003
1.780367
1.446232
1.446232
1.252163
1.236975
1.236413
1.236225
1.2366
1.254976
1.479045
1.874495
1.874495
2.245381
2.554203
2.667456
2.667644
2.652269
2.488763
2.155003
1.787867
1.452794
1.452794
1.253663
1.23735
1.236225
1.236413
1.236788
1.252538
1.469857
1.864369
2.227193
2.227193
2.54764
2.662394
2.667644
2.658831
2.515389
2.181067
1.812805
1.475108
1.257976
1.257976
1.237725
1.236413
1.236225
1.236788
1.248976
1.446419
1.843181
2.208817
2.53114
2.53114
2.658643
2.667456
2.664644
2.522139
2.192879
1.836806
1.501171
1.270914
1.238475
1.238475
1.2366
1.236413
1.236975
1.249538
1.443982
1.842244
2.22213
2.54989
2.54989
2.666331
2.667456
2.667644
2.532077
2.20038
1.786555
1.38473
1.239788
1.236225
1.236225
1.2366
1.236788
1.2366
1.236225
1.236788
1.293602
1.539047
1.884245
2.155941
2.155941
2.391073
2.545015
2.377198
1.999186
1.594174
1.287414
1.239788
1.236975
1.236975
1.236975
1.242413
1.281039
1.479045
1.782242
2.11844
2.458012
2.652269
2.667269
2.667081
2.667081
2.667269
2.655081
2.438512
2.055813
1.688302
1.350979
1.243538
1.236788
1.236788
1.2366
1.2366
1.243163
1.366917
1.714927
2.056563
2.392948
2.597704
2.656206
2.656206
2.63258
2.480513
2.160441
1.806243
1.453169
1.252726
1.236975
1.236413
1.236225
1.236225
1.236038
1.2381
1.306915
1.650613
2.021874
2.372698
2.606892
2.666144
2.629768
2.629768
2.504139
2.189879
1.839619
1.485233
1.257788
1.237163
1.236225
1.236413
1.236225
1.236225
1.237913
1.302977
1.643675
2.020187
2.377948
2.60933
2.667644
2.655081
2.52964
2.52964
2.244069
1.890433
1.521046
1.270164
1.237725
1.236225
1.236038
1.236225
1.236225
1.238288
1.301477
1.63655
2.006311
2.371572
2.608955
2.667644
2.667644
2.548765
2.548765
2.248194
1.902058
1.544672
1.280289
1.237913
1.236225
1.236038
1.236225
1.237725
1.237725
1.299227
1.62905
1.994311
2.35976
2.598642
2.667831
2.667831
2.555703
2.273132
2.273132
1.917621
1.56211
1.290039
1.238288
1.236413
1.236413
1.236225
1.23735
1.286102
1.286102
1.597924
1.978185
2.353947
2.596579
2.667644
2.667644
2.563391
2.293383
2.293383
1.942372
1.578611
1.299977
1.23885
1.236225
1.236225
1.236225
1.237163
1.281227
1.281227
1.584986
1.956997
2.332384
2.584954
2.667831
2.667831
2.575766
2.306508
1.956435
1.956435
1.596424
1.304665
1.238663
1.236225
1.236225
1.236413
1.237163
1.272039
1.560048
1.560048
1.940684
2.30557
2.563953
2.667644
2.667831
2.574454
2.313821
1.966373
1.592299
1.592299
1.301852
1.238475
1.236225
1.236225
1.236038
1.236788
1.258726
1.519171
1.895683
1.895683
2.270507
2.54239
2.646831
2.665019
2.574454
2.301258
1.950435
1.585923
1.585923
1.299602
1.238475
1.236225
1.236038
1.236413
1.236413
1.247476
1.452419
1.839244
1.839244
2.20938
2.496076
2.598079
2.599392
2.554953
2.271632
1.930184
1.56211
1.283477
1.283477
1.237725
1.236413
1.236225
1.236225
1.236225
1.243351
1.412668
1.796492
2.167004
2.167004
2.465888
2.593017
2.602954
2.562641
2.285132
1.944809
1.580486
1.295852
1.2381
1.2381
1.236225
1.236413
1.236225
1.236225
1.242225
1.401605
1.788242
2.152378
2.152378
2.4582
2.595829
2.601829
2.570703
2.300508
1.96131
1.597924
1.301477
1.238288
1.238288
1.236225
1.236225
1.236225
1.236413
1.243351
1.408731
1.802493
2.175442
2.497014
2.497014
2.609704
2.664456
2.595642
2.380948
2.03725
1.679864
1.360729
1.242225
1.236413
1.236413
1.236038
1.236038
1.236413
1.247851
1.451294
1.849369
2.220443
2.527952
2.660331
2.660331
2.667644
2.62958
2.451262
2.114502
1.756929
1.425606
1.249351
1.237163
1.236225
1.236225
1.236225
1.236788
1.254226
1.469857
1.871682
2.231506
2.548015
2.663894
2.663894
2.667644
2.649643
2.493451
2.160816
1.792555
1.456919
1.254601
1.237538
1.236225
1.236225
1.236225
1.2366
1.250101
1.454482
1.847494
2.221193
2.540328
2.661644
2.667644
2.667644
2.656018
2.502076
2.167754
1.805868
1.469482
1.256851
1.237538
1.236225
1.236225
1.236225
1.2366
1.248413
1.429731
1.822368
2.186129
2.515577
2.657331
2.667644
2.653581
2.653581
2.508077
2.190442
1.829681
1.488045
1.260038
1.237538
1.236413
1.236038
1.236038
1.236413
1.244851
1.406668
1.79593
2.157441
2.490263
2.650393
2.667644
2.647206
2.647206
2.509202
2.189129
1.833243
1.493108
1.260601
1.237725
1.236413
1.236413
1.236225
1.236225
1.2426
1.38098
1.763304
2.13119
2.469826
2.644581
2.667644
2.652269
2.515952
2.515952
2.189317
1.836056
1.490858
1.262289
1.237725
1.236225
1.236225
1.236225
1.240913
1.240913
1.359229
1.733865
2.099127
2.4507
2.635393
2.667644
2.656206
2.520264
2.203942
2.203942
1.852931
1.497796
1.260413
1.23735
1.236225
1.236225
1.236413
1.239975
1.239975
1.347604
1.714552
2.084501
2.431949
2.625268
2.667644
2.663519
2.524015
2.223068
2.223068
1.865682
1.516359
1.237538
1.236225
1.236225
1.236413
1.239225
1.324728
1.683426
2.057125
2.057125
2.421824
2.626393
2.667644
2.656769
2.544265
2.241818
1.884433
1.533609
1.533609
1.275414
1.2381
1.236225
1.236225
1.236413
1.238663
1.322853
1.671614
2.032375
2.032375
2.408136
2.630518
2.667644
2.667831
2.560016
2.266382
1.906933
1.551047
1.281602
1.281602
1.2381
1.236038
1.236225
1.236225
1.238475
1.31329
1.657926
2.031625
2.389948
2.389948
2.617205
2.667644
2.667644
2.558516
2.267132
1.919496
1.557235
1.288727
1.238663
1.238663
1.236225
1.236225
1.236225
1.238475
1.306352
1.643675
2.006499
2.37701
2.37701
2.614392
2.667644
2.667644
2.571266
2.296945
1.940684
1.584986
1.29979
1.23885
1.23885
1.236413
1.236225
1.236225
1.237538
1.292289
1.606362
1.991498
2.357884
2.605767
2.605767
2.667831
2.664456
2.571453
2.300508
1.96431
1.593611
1.301102
1.239038
1.236413
1.236413
1.236038
1.236225
1.237538
1.282914
1.586486
1.96281
2.342696
2.589642
2.667644
2.667644
2.667644
2.582516
2.325446
1.96881
1.605049
1.30954
1.239038
1.236413
1.236413
1.236225
1.236225
1.236975
1.276164
1.56811
1.950435
2.326946
2.583829
2.667831
2.667831
2.667644
2.587391
2.336321
1.986248
1.621737
1.32229
1.239788
1.236413
1.236413
1.236413
1.236225
1.236975
1.266226
1.539984
1.921184
2.299945
2.564516
2.667456
2.667644
2.667644
2.599017
2.349822
2.002186
1.643863
1.333541
1.239788
1.236413
1.2366
1.236225
1.236225
1.236788
1.262851
1.523296
1.903933
2.276695
2.555328
2.667831
2.667644
2.592829
2.592829
2.345134
1.997686
1.645738
1.328665
1.240163
1.236413
1.236225
1.236225
1.236225
1.2366
1.251038
1.463482
1.852369
2.219318
2.51614
2.652643
2.667831
2.582704
2.582704
2.339134
1.984748
1.620612
1.315915
1.23885
1.236413
1.236225
1.236225
1.236225
1.236225
1.247101
1.451857
1.841494
2.218005
2.518764
2.662019
2.667644
2.611205
2.38526
2.38526
2.047563
1.688114
1.363167
1.24185
1.2366
1.236038
1.236225
1.2366
1.247851
1.247851
1.446419
1.843931
2.227755
2.530765
2.654331
2.667644
2.626018
2.407761
2.407761
2.068751
1.706115
1.383605
1.2426
1.2366
1.236225
1.236225
1.236413
1.247101
1.247101
1.442857
1.834743
2.199817
2.520639
2.659206
2.667644
2.63258
2.436637
2.104752
2.104752
1.734241
1.403855
1.245788
1.236975
1.236225
1.236038
1.2366
1.246726
1.432356
1.432356
1.834931
2.206005
2.520452
2.654519
2.667456
2.644393
2.450325
2.105877
1.751866
1.751866
1.423731
1.246726
1.236788
1.236413
1.236413
1.236413
1.244475
1.420168
1.809618
1.809618
2.165504
2.496264
2.647768
2.667644
2.639143
2.463638
2.129128
1.760679
1.760679
1.437981
1.250663
1.23735
1.236413
1.236225
1.2366
1.244663
1.418668
1.817868
1.817868
2.185942
2.520264
2.654894
2.667456
2.653581
2.503201
2.158753
1.745303
1.369354
1.369354
1.239413
1.236225
1.236413
1.2366
1.236413
1.236413
1.238663
1.359979
1.712302
1.712302
2.044562
2.417699
2.632955
2.657706
2.45595
2.039687
1.652113
1.309727
1.243725
1.243725
1.237538
1.239975
1.256101
1.316103
1.48092
1.730115
2.052813
2.393511
2.393511
2.647581
2.667269
2.666894
2.667456
2.639143
2.400448
2.012499
1.645363
1.326603
1.326603
1.241475
1.2366
1.236413
1.2366
1.2411
1.341791
1.682676
2.033124
2.378885
2.378885
2.586454
2.612142
2.600329
2.430262
2.114877
1.761616
1.414543
1.2456
1.2366
1.2366
1.236225
1.236413
1.236225
1.23735
1.286289
1.615924
1.986998
2.338571
2.568078
2.568078
2.596954
2.599767
2.4552
2.142066
1.774742
1.425793
1.248038
1.236788
1.236225
1.236225
1.236225
1.236225
1.237538
1.289852
1.619299
1.994311
2.346447
2.575579
2.575579
2.61533
2.600329
2.474138
2.164566
1.808493
1.453169
1.251226
1.236975
1.236413
1.236413
1.236413
1.236413
1.237163
1.279914
1.601486
1.973873
2.340446
2.566766
2.641206
2.641206
2.609142
2.497389
2.184067
1.829681
1.474732
1.256851
1.236975
1.236038
1.236225
1.236225
1.236225
1.237163
1.276726
1.582361
1.95231
2.315133
2.563016
2.637643
2.630143
2.630143
2.511639
2.205442
1.846556
1.48317
1.258351
1.237163
1.236225
1.236038
1.236038
1.236413
1.2366
1.266976
1.55236
1.931871
2.30632
2.551203
2.643456
2.633518
2.633518
2.519327
2.21688
1.863432
1.498733
1.262101
1.237163
1.236413
1.236038
1.236225
1.236225
1.236788
1.264351
1.537359
1.911996
2.287195
2.548578
2.608955
2.603517
2.524765
2.524765
2.225505
1.875245
1.516734
1.266789
1.237163
1.236225
1.236038
1.236413
1.2366
1.2366
1.253476
1.495921
1.875432
2.244256
2.516514
2.602204
2.603329
2.522514
2.224005
2.224005
1.867745
1.509046
1.264351
1.237163
1.236413
1.236225
1.236225
1.236413
1.236413
1.246726
1.461232
1.836619
2.206192
2.488951
2.594329
2.609704
2.499076
2.203755
2.203755
1.858932
1.493858
1.259288
1.236788
1.236225
1.236413
1.236038
1.236225
1.2411
1.2411
1.402543
1.778117
2.14394
2.433449
2.606142
2.603329
2.474888
2.183317
1.837181
1.837181
1.46667
1.251976
1.2366
1.236413
1.236225
1.236413
1.236413
1.239413
1.371229
1.371229
1.742678
2.111877
2.402886
2.586266
2.589079
2.476763
2.192504
1.845244
1.845244
1.481295
1.255351
1.2366
1.236413
1.236225
1.236225
1.236413
1.239225
1.358667
1.358667
1.745678
2.115252
2.413574
2.608955
2.608767
2.504701
2.232631
1.884245
1.529484
1.529484
1.274664
1.237163
1.236225
1.236225
1.236413
1.236225
1.241475
1.395605
1.783179
1.783179
2.152191
2.464013
2.605955
2.614205
2.579704
2.326946
1.996748
1.633362
1.327728
1.327728
1.240163
1.2366
1.236225
1.236225
1.2366
1.248038
1.455794
1.855369
2.227193
2.227193
2.52889
2.654519
2.667644
2.632768
2.437199
2.111127
1.753553
1.425418
1.425418
1.249913
1.23735
1.236788
1.236225
1.237163
1.262664
1.511671
1.906933
2.27782
2.27782
2.566578
2.667644
2.667644
2.655643
2.496639
2.164941
1.806055
1.459357
1.258913
1.258913
1.237913
1.236413
1.236225
1.237538
1.258351
1.482233
1.878245
2.246506
2.557953
2.557953
2.666894
2.667644
2.645518
2.501701
2.171129
1.80643
1.47342
1.261726
1.237725
1.237725
1.2366
1.236413
1.236975
1.260601
1.458045
1.849931
2.206192
2.53489
2.53489
2.662019
2.667644
2.650581
2.503014
2.179941
1.817493
1.476983
1.259663
1.238288
1.238288
1.2366
1.236413
1.2366
1.247663
1.440794
1.841494
2.188192
2.509014
2.642143
2.642143
2.667456
2.656394
2.523077
2.178629
1.822556
1.481858
1.257976
1.23735
1.236788
1.236788
1.236413
1.236413
1.244663
1.403668
1.783367
2.153503
2.484638
2.641768
2.667644
2.667644
2.646643
2.501889
2.180692
1.828743
1.470232
1.258913
1.237725
1.236225
1.236413
1.236413
1.236788
1.242225
1.377604
1.752616
2.123127
2.46645
2.642706
2.667456
2.667456
2.635955
2.511077
2.188379
1.838306
1.495546
1.263789
1.237725
1.236413
1.236225
1.2441
1.2441
1.38323
1.753179
2.111127
2.4627
2.640268
2.667644
2.662394
2.543515
2.237881
2.237881
1.878995
1.527797
1.276539
1.239975
1.236413
1.236225
1.236413
1.241288
1.371417
1.371417
1.756366
2.108877
2.459512
2.629955
2.667456
2.667644
2.560391
2.263569
1.907308
1.907308
1.56811
1.289102
1.23885
1.236788
1.2366
1.2366
1.241475
1.359792
1.726928
1.726928
2.105877
2.462888
2.642706
2.667831
2.667644
2.572579
2.282882
1.944059
1.944059
1.575798
1.302415
1.239788
1.2366
1.236225
1.237163
1.24035
1.349104
1.708365
1.708365
2.082814
2.452762
2.635393
2.667456
2.667456
2.565641
2.30557
1.958122
1.611237
1.611237
1.317415
1.239413
1.2366
1.236413
1.236413
1.24185
1.350416
1.698239
2.061813
2.061813
2.431762
2.634268
2.667644
2.667644
2.599579
2.325071
1.978185
1.616299
1.326416
1.326416
1.2441
1.2366
1.236413
1.236413
1.2396
1.336728
1.696927
2.052063
2.052063
2.416011
2.620393
2.667644
2.667831
2.597892
2.341009
1.978935
1.634487
1.331666
1.331666
1.241475
1.236788
1.2366
1.236225
1.2396
1.319103
1.661301
2.038187
2.411511
2.411511
2.626393
2.667456
2.667644
2.616642
2.346447
2.018874
1.639175
1.341791
1.242225
1.242225
1.236788
1.236413
1.236975
1.238288
1.30429
1.619299
2.008749
2.379822
2.617955
2.617955
2.667456
2.667644
2.590954
2.366322
2.010811
1.665613
1.355479
1.241288
1.241288
1.237163
1.236413
1.236225
1.238663
1.301102
1.607299
1.982686
2.352822
2.60483
2.60483
2.667831
2.667456
2.61533
2.361259
2.010999
1.640863
1.337853
1.243913
1.236788
1.236788
1.236225
1.236413
1.237163
1.275789
1.560985
1.934684
2.302008
2.548203
2.667644
2.667644
2.667644
2.601454
2.36276
2.001998
1.646675
1.334291
1.2411
1.236975
1.236413
1.236413
1.236225
1.23735
1.272414
1.550672
1.942559
2.330133
2.584391
2.667456
2.667456
2.667456
2.637268
2.402511
2.086564
1.702552
1.38548
1.244851
1.236788
1.236413
1.236413
1.2366
1.23735
1.271851
1.530234
1.937309
2.302383
2.580266
2.667644
2.667644
2.667644
2.602017
2.419199
2.079251
1.728803
1.410043
1.246726
1.237538
1.236413
1.236413
1.236413
1.237163
1.277476
1.536609
1.917621
2.28307
2.578204
2.667644
2.667644
2.644768
2.644768
2.453512
2.117127
1.747741
1.423356
1.250476
1.23735
1.236413
1.2366
1.236975
1.236975
1.268289
1.533422
1.928871
2.275757
2.54689
2.665394
2.667456
2.634643
2.473763
2.473763
2.125565
1.771367
1.440044
1.250663
1.237725
1.236975
1.236413
1.23735
1.23735
1.261163
1.507921
1.899995
2.273882
2.558328
2.667456
2.667456
2.653956
2.501889
2.501889
2.181442
1.818806
1.48017
1.261726
1.237913
1.236413
1.236788
1.237538
1.264914
1.264914
1.505296
1.911996
2.261694
2.536202
2.657331
2.652643
2.555328
2.268632
1.901495
1.901495
1.47942
1.250288
1.236413
1.236788
1.236975
1.236975
1.236788
1.2366
1.242225
1.242225
1.602049
2.081501
2.425574
2.585141
2.599392
2.54689
2.428387
2.197567
2.197567
1.95156
1.79893
1.603549
1.38698
1.271851
1.253101
1.267539
1.436856
1.72899
1.72899
2.070813
2.424262
2.62733
2.667456
2.667081
2.667456
2.596579
2.286632
1.910683
1.910683
1.545797
1.274476
1.238475
1.236975
1.236038
1.2366
1.240163
1.359041
1.735178
1.735178
2.109064
2.430824
2.60933
2.62508
2.627705
2.458575
2.152753
1.788242
1.441731
1.441731
1.253476
1.236788
1.236413
1.236413
1.2366
1.2396
1.339541
1.716802
2.085439
2.085439
2.435137
2.635955
2.667644
2.608205
2.481263
2.156316
1.808868
1.485983
1.485983
1.253663
1.237163
1.236413
1.236413
1.236225
1.2441
1.346666
1.707052
2.068938
2.068938
2.433824
2.63408
2.667831
2.643643
2.51614
2.20038
1.845619
1.496671
1.267726
1.267726
1.239038
1.236225
1.2366
1.236225
1.240163
1.353979
1.72599
2.086001
2.428762
2.428762
2.626205
2.667644
2.656018
2.54464
2.232256
1.870932
1.520484
1.270726
1.2381
1.2381
1.236975
1.236038
1.2366
1.240163
1.340853
1.704802
2.082438
2.429137
2.633518
2.633518
2.664831
2.657519
2.548015
2.252506
1.900183
1.542985
1.287039
1.238475
1.238475
1.236413
1.236413
1.2366
1.239413
1.325853
1.684739
2.066875
2.422761
2.623393
2.623393
2.667831
2.648518
2.55064
2.269194
1.923059
1.601486
1.293227
1.239038
1.236413
1.236413
1.236038
1.236225
1.240725
1.325478
1.673114
2.029749
2.405324
2.62508
2.667644
2.667644
2.667831
2.574641
2.295445
1.925871
1.583298
1.302977
1.240913
1.2366
1.236413
1.236413
1.2366
1.239225
1.318353
1.664488
2.018124
2.373447
2.605955
2.667831
2.667831
2.667644
2.571453
2.300508
1.951747
1.589861
1.301477
1.239413
1.2366
1.236225
1.236225
1.236413
1.238288
1.297165
1.621924
2.001061
2.358822
2.592079
2.632768
2.666519
2.666519
2.560766
2.296945
1.951935
1.567173
1.294915
1.238663
1.236225
1.236225
1.236413
1.236413
1.236975
1.265289
1.542985
1.931871
2.300883
2.567141
2.659581
2.634455
2.541078
2.541078
2.265632
1.924559
1.570735
1.279914
1.237913
1.2366
1.236225
1.236225
1.236225
1.23735
1.262101
1.520859
1.874307
2.267319
2.535077
2.61683
2.645706
2.558141
2.558141
2.284007
1.933371
1.572235
1.289102
1.239038
1.236413
1.236413
1.236225
1.2366
1.2366
1.255538
1.525359
1.889308
2.254381
2.527952
2.650581
2.661831
2.578766
2.30407
2.30407
1.966185
1.615549
1.311603
1.239225
1.2366
1.236413
1.236225
1.237163
1.263226
1.263226
1.528172
1.907308
2.27707
2.553453
2.661831
2.667644
2.615142
2.380573
2.0485
2.0485
1.672364
1.361104
1.243351
1.236788
1.236413
1.236225
1.23735
1.268289
1.268289
1.548047
1.941247
2.314196
2.577829
2.667644
2.667644
2.619642
2.421262
2.089564
2.089564
1.727303
1.405355
1.247101
1.23735
1.236413
1.236225
1.237538
1.272789
1.547672
1.547672
1.929996
2.30032
2.576891
2.667456
2.667456
2.642706
2.4612
2.122002
1.758804
1.758804
1.426919
1.250101
1.237538
1.236413
1.2366
1.237163
1.265851
1.511859
1.907871
1.907871
2.28232
2.563016
2.667644
2.667831
2.635018
2.464013
2.12294
1.761991
1.434794
1.434794
1.250663
1.23735
1.236413
1.236225
1.236975
1.255726
1.498358
1.896433
1.896433
2.257756
2.551203
2.667644
2.667644
2.643831
2.473013
2.133815
1.772867
1.440981
1.440981
1.251601
1.237163
1.2366
1.236225
1.236788
1.251788
1.463857
1.860994
2.227568
2.227568
2.542203
2.667644
2.667644
2.63258
2.484263
2.158566
1.826868
1.463107
1.256101
1.256101
1.238475
1.236413
1.236225
1.2381
1.251601
1.453357
1.823681
2.20638
2.53714
2.53714
2.661456
2.667644
2.652269
2.504326
2.165879
1.803055
1.478483
1.269414
1.269414
1.237725
1.2366
1.236413
1.236788
1.247476
1.444919
1.819743
2.183692
2.486326
2.486326
2.656956
2.667456
2.649831
2.509952
2.177691
1.823306
1.477733
1.259288
1.238663
1.238663
1.2366
1.236225
1.2366
1.247288
1.80568
2.182379
2.500952
2.641206
2.667644
2.667644
2.654706
2.504701
2.183504
1.815805
1.478108
1.260413
1.237538
1.236413
1.236225
1.236225
1.2366
1.2426
1.375542
1.770617
2.137753
2.477701
2.644206
2.667456
2.647393
2.647393
2.509389
2.199442
1.843931
1.494233
1.263601
1.237913
1.236413
1.236225
1.236413
1.236413
1.242038
1.361479
1.738553
2.109252
2.457263
2.637268
2.667456
2.657331
2.521014
2.521014
2.209005
1.851994
1.501358
1.267539
1.237725
1.236413
1.236225
1.236413
1.240538
1.240538
1.355291
1.723553
2.089001
2.433824
2.633893
2.667456
2.656018
2.529077
2.529077
2.22363
1.865119
1.529672
1.274851
1.2381
1.236413
1.236413
1.236225
1.239975
1.239975
1.343291
1.702552
2.071938
2.428762
2.632393
2.667644
2.665581
2.54314
2.246319
2.246319
1.895308
1.544672
1.276539
1.238663
1.2366
1.236225
1.236225
1.239788
1.332416
1.332416
1.682676
2.055063
2.419761
2.627892
2.667644
2.659581
2.55289
2.263757
1.914808
1.914808
1.544485
1.286664
1.239038
1.236413
1.236225
1.236413
1.239225
1.321728
1.321728
1.665238
2.03575
2.398948
2.624143
2.667456
2.667644
2.562453
2.275382
1.928684
1.928684
1.56286
1.292852
1.239225
1.2366
1.2366
1.236225
1.23885
1.31404
1.6448
1.6448
2.016437
2.387323
2.60708
2.667644
2.667831
2.570516
2.301633
1.957747
1.583861
1.583861
1.306727
1.239413
1.2366
1.236413
1.236225
1.237725
1.299977
1.632425
2.007249
2.007249
2.370635
2.606704
2.667644
2.667644
2.574829
2.307258
1.953435
1.586486
1.586486
1.30579
1.239225
1.236413
1.236225
1.236225
1.237163
1.274851
1.579736
1.952122
1.952122
2.315883
2.574454
2.667831
2.644768
2.558141
2.281195
1.938059
1.571486
1.292664
1.292664
1.238288
1.236225
1.236225
1.236225
1.236975
1.266601
1.547672
1.927559
2.300695
2.300695
2.563578
2.667644
2.665956
2.583079
2.323758
1.980435
1.6283
1.328291
1.240163
1.240163
1.2366
1.236413
1.236225
1.23735
1.271664
1.54711
1.930371
2.300133
2.566203
2.566203
2.667831
2.667644
2.60933
2.350197
2.014749
1.647238
1.346291
1.241663
1.241663
1.2366
1.236413
1.2366
1.236975
1.268101
1.54261
1.917434
2.290945
2.562266
2.562266
2.667644
2.667831
2.622643
2.37851
2.035937
1.670676
1.357729
1.242413
1.236788
1.236788
1.236225
1.236225
1.236975
1.266039
1.524609
1.906371
2.275944
2.560578
2.667456
2.667456
2.667644
2.615705
2.386198
2.046625
1.685114
1.366729
1.242413
1.236788
1.236413
1.236413
1.236413
1.236788
1.259476
1.503233
1.89212
2.262444
2.555515
2.667644
2.667644
2.667644
2.628643
2.411324
2.072313
1.71324
1.379855
1.245413
1.237163
1.2366
1.2366
1.236225
1.236975
1.260788
1.495171
1.87937
2.252881
2.553078
2.667644
2.667456
2.667456
2.648143
2.4477
2.086751
1.687927
1.326603
1.238288
1.236225
1.2366
1.2366
1.2366
1.236413
1.236225
1.238663
1.350416
1.661488
1.899808
2.153503
2.212005
2.320008
2.320008
2.230756
1.930559
1.496671
1.252726
1.2366
1.236413
1.236413
1.236788
1.236788
1.266976
1.531734
1.853682
2.241443
2.535827
2.667456
2.667081
2.666894
2.667081
2.667081
2.629205
2.347197
1.960372
1.611987
1.31104
1.240913
1.236788
1.236788
1.236975
1.236975
1.250101
1.425606
1.777742
2.127065
2.426512
2.603329
2.618892
2.594517
2.37401
2.37401
2.031812
1.676301
1.353041
1.240913
1.236413
1.236225
1.236225
1.236413
1.2396
1.2396
1.348354
1.720365
2.084501
2.403261
2.592454
2.614767
2.579516
2.39126
2.063688
2.063688
1.706302
1.376104
1.243163
1.236788
1.236413
1.236225
1.236413
1.239038
1.239038
1.342353
1.708365
2.076063
2.408699
2.595267
2.654894
2.605955
2.432137
2.106064
2.106064
1.744741
1.397105
1.2456
1.236788
1.236225
1.236413
1.236413
1.239413
1.331291
1.331291
1.704052
2.072688
2.406823
2.61308
2.665019
2.60858
2.442075
2.132315
1.766117
1.766117
1.425793
1.247476
1.237163
1.236225
1.236413
1.236225
1.239225
1.328665
1.689989
1.689989
2.056563
2.398761
2.61308
2.665769
2.640643
2.46945
2.152753
1.790867
1.442857
1.442857
1.250663
1.236975
1.236413
1.236038
1.236225
1.238475
1.318915
1.667301
1.667301
2.038
2.390886
2.611205
2.667831
2.64008
2.486138
2.166254
1.811118
1.453544
1.453544
1.253288
1.236975
1.236413
1.236038
1.236225
1.2381
1.307665
1.651363
2.022624
2.022624
2.37776
2.581579
2.660894
2.632393
2.496451
2.182942
1.834743
1.479795
1.258913
1.258913
1.237163
1.236413
1.236413
1.236413
1.237725
1.293039
1.620049
1.992436
2.351322
2.351322
2.577266
2.657519
2.625643
2.494201
2.190442
1.840931
1.48242
1.258538
1.23735
1.23735
1.236413
1.236038
1.236413
1.23735
1.282539
1.585361
1.973685
2.327508
2.327508
2.566016
2.628643
2.608955
2.494389
2.185942
1.830056
1.476608
1.257413
1.236788
1.236788
1.236413
1.236413
1.236225
1.236788
1.261163
1.534734
1.908246
2.269569
2.534702
2.534702
2.587016
2.603142
2.465325
2.159691
1.80493
1.454294
1.252163
1.236788
1.236413
1.236413
1.236225
1.236413
1.236413
1.249913
1.485608
1.865869
2.237318
2.502639
2.593954
2.593954
2.61683
2.466825
2.164754
1.81243
1.450169
1.252351
1.236788
1.236413
1.236413
1.236225
1.236413
1.2366
1.249163
1.480545
1.854432
2.221755
2.499826
2.596204
2.596204
2.594329
2.482951
2.191192
1.840369
1.482795
1.257976
1.237163
1.236413
1.236413
1.236413
1.236225
1.236413
1.249538
1.481483
1.855182
2.237506
2.522702
2.597892
2.63183
2.63183
2.533765
2.257381
1.920434
1.56661
1.291914
1.2381
1.236413
1.236225
1.236225
1.236225
1.236788
1.261163
1.521046
1.901495
2.278007
2.54539
2.667831
2.667644
2.667644
2.580829
2.332384
1.995061
1.632987
1.329041
1.240538
1.236788
1.236413
1.236413
1.236413
1.236975
1.270726
1.541484
1.916308
2.293758
2.559078
2.667644
2.667644
2.614392
2.614392
2.373635
2.028624
1.672551
1.364292
1.242413
1.236975
1.236413
1.236038
1.236975
1.236975
1.263039
1.522922
1.904683
2.277445
2.565078
2.667644
2.667644
2.611205
2.38601
2.38601
2.043625
1.683239
1.364104
1.242975
1.2366
1.236225
1.236413
1.236975
1.257226
1.257226
1.494046
1.882183
2.247631
2.536577
2.664831
2.667644
2.611205
2.38601
2.38601
2.0485
1.688676
1.370104
1.2426
1.236975
1.236225
1.236225
1.2366
1.252351
1.252351
1.46442
1.850494
2.21313
2.522327
2.660519
2.667831
2.618892
2.393886
2.061625
2.061625
1.695802
1.37798
1.243913
1.236788
1.236413
1.236413
1.236413
1.246726
1.435544
1.435544
1.828743
2.194942
2.500389
2.639143
2.667644
2.613455
2.399323
2.059375
1.699552
1.699552
1.370854
1.242413
1.2366
1.236225
1.236225
1.2366
1.245038
1.416231
1.416231
1.80793
2.163816
2.478638
2.645518
2.667644
2.620768
2.404761
2.074563
1.711552
1.711552
1.386605
1.244475
1.2366
1.236225
1.236413
1.236413
1.243351
1.39598
1.785617
1.785617
2.150503
2.638393
2.667456
2.612142
2.422574
2.096314
1.739116
1.402918
1.245038
1.236788
1.236788
1.236413
1.236413
1.236413
1.24185
1.381542
1.766866
2.128565
2.457638
2.636893
2.636893
2.666519
2.623205
2.444887
2.117127
1.759929
1.421856
1.247851
1.237163
1.236413
1.236413
1.236413
1.2366
1.24185
1.376292
1.760679
2.123502
2.452387
2.63408
2.63408
2.667644
2.637455
2.467388
2.14019
1.783554
1.443794
1.250288
1.237163
1.236413
1.236413
1.236413
1.236413
1.241475
1.360916
1.736303
2.100439
2.443949
2.635768
2.667081
2.667081
2.63033
2.479013
2.162691
1.806243
1.46067
1.256663
1.237725
1.236413
1.236413
1.236413
1.236413
1.24185
1.369729
1.739678
2.113002
2.470575
2.638206
2.667831
2.649268
2.649268
2.516327
2.203755
1.853682
1.521046
1.279352
1.237725
1.236788
1.236413
1.236225
1.236225
1.2426
1.377229
1.728053
2.062188
2.439075
2.642143
2.667644
2.653769
2.653769
2.529265
2.235818
1.872807
1.528734
1.278789
1.239225
1.236788
1.236413
1.2366
1.2366
1.24035
1.353041
1.726178
2.100252
2.435512
2.591142
2.656206
2.664831
2.554578
2.554578
2.248756
1.911433
1.548235
1.283664
1.238288
1.236413
1.2366
1.236975
1.239413
1.239413
1.308977
1.683614
2.073438
2.446012
2.629018
2.667831
2.62958
2.541828
2.265632
2.265632
1.923059
1.566048
1.323415
1.239038
1.236788
1.236413
1.236788
1.2396
1.2396
1.348916
1.680426
2.001811
2.422011
2.630893
2.667456
2.667831
2.578016
2.29282
2.29282
1.95681
1.590799
1.310103
1.24185
1.23735
1.2366
1.2366
1.239038
1.328291
1.328291
1.679301
2.052625
2.418636
2.60558
2.633143
2.667644
2.560578
2.296757
1.952497
1.952497
1.594549
1.299602
1.240163
1.236413
1.236225
1.2366
1.240538
1.291352
1.564735
1.564735
1.962435
2.356197
2.599579
2.667644
2.667644
2.574641
2.302195
1.95756
1.610862
1.610862
1.330166
1.243538
1.2366
1.2366
1.236413
1.238475
1.308227
1.653988
1.653988
2.032937
2.373073
2.579516
2.666519
2.667831
2.609704
2.37476
2.021874
1.644988
1.644988
1.337853
1.241288
1.236975
1.236788
1.236788
1.238288
1.278789
1.627362
2.000874
2.000874
2.37326
2.604079
2.667644
2.659206
2.586266
2.362385
2.019062
1.672364
1.38848
1.38848
1.242225
1.237538
1.236413
1.236413
1.238288
1.31254
1.598486
1.938434
2.324508
2.324508
2.604642
2.667644
2.667644
2.62283
2.387698
2.050375
1.680426
1.365229
1.243163
1.243163
1.237725
1.23735
1.2366
1.237725
1.285914
1.580861
1.97106
2.366322
2.366322
2.588142
2.649268
2.665956
2.631268
2.399136
2.079063
1.718678
1.382855
1.2456
1.2456
1.236975
1.236413
1.2366
1.239788
1.273164
1.505858
1.934122
2.321883
2.590767
2.590767
2.667644
2.667644
2.628268
2.426512
2.077564
1.723178
1.420168
1.262101
1.23735
1.23735
1.237163
1.236225
1.237538
1.268289
1.504733
1.839619
2.137565
2.352259
2.54989
2.54989
2.507326
2.320758
2.003311
1.607862
1.278602
1.237163
1.2366
1.236788
1.236788
1.2366
1.2366
1.236413
1.239975
1.334666
1.674426
2.112439
2.525327
2.667456
2.667456
2.667081
2.667081
2.667456
2.509577
2.119377
1.768929
1.450169
1.275226
1.244288
1.244288
1.239975
1.247288
1.373479
1.65005
2.004061
2.339509
2.583079
2.667456
2.667269
2.667269
2.636143
2.414324
2.06425
1.676301
1.342541
1.2396
1.236225
1.236225
1.2366
1.2366
1.236225
1.240163
1.358854
1.733115
2.094251
2.420324
2.603142
2.593579
2.580079
2.580079
2.352447
2.024874
1.649863
1.326603
1.239788
1.236225
1.236225
1.236413
1.236413
1.236413
1.239225
1.348541
1.715302
2.079251
2.406449
2.600142
2.604079
2.584016
2.584016
2.357697
2.030874
1.666926
1.348541
1.240913
1.2366
1.236225
1.236413
1.236413
1.236413
1.2396
1.340103
1.706865
2.073626
2.401761
2.595079
2.617955
2.592267
2.392761
2.392761
2.064626
1.700114
1.372917
1.242225
1.2366
1.236225
1.236225
1.236225
1.239038
1.239038
1.337103
1.704427
2.070813
2.395761
2.596767
2.617767
2.597142
2.416199
2.416199
2.080001
1.71849
1.384355
1.243163
1.236788
1.236413
1.236413
1.236413
1.23885
1.23885
1.323978
1.682489
2.050188
2.38526
2.591142
2.621143
2.592829
2.420511
2.094064
2.094064
1.738741
1.400105
1.2456
1.236788
1.236413
1.236225
1.236413
1.2381
1.309352
1.309352
1.670676
2.03575
2.378697
2.590392
2.62433
2.594704
2.431199
2.115627
1.760679
1.760679
1.422418
1.247476
1.236788
1.2366
1.236225
1.236413
1.2381
1.300727
1.300727
1.636175
2.004624
2.359947
2.572579
2.60483
2.599392
2.438512
2.122377
1.763491
1.763491
1.413981
1.246538
1.236788
1.236413
1.236225
1.2366
1.237538
1.282727
1.604674
1.604674
1.977623
2.325634
2.54989
2.594892
2.600517
2.436262
2.120502
1.767991
1.411918
1.411918
1.246538
1.236788
1.236225
1.236413
1.236413
1.236975
1.266226
1.560985
1.923246
1.923246
2.275194
2.529452
2.591142
2.595642
2.406261
2.092376
1.740616
1.388105
1.243725
1.243725
1.236413
1.236225
1.236413
1.236413
1.2366
1.250851
1.495358
1.863432
1.863432
2.22213
2.488951
2.596392
2.582516
2.39501
2.080376
1.732928
1.383417
1.242225
1.242225
1.2366
1.236413
1.2366
1.236413
1.2366
1.247288
1.47192
1.849181
2.220068
2.220068
2.493076
2.60708
2.595829
2.418449
2.115252
1.763866
1.407605
1.245413
1.2366
1.2366
1.236413
1.236413
1.236413
1.2366
1.248226
1.481108
1.863244
2.223068
2.506014
2.506014
2.606517
2.600517
2.46795
2.174879
1.828181
1.46817
1.256663
1.236975
1.236413
1.236413
1.236225
1.236413
1.236788
1.256663
1.528922
1.906371
2.270882
2.533952
2.533952
2.600329
2.640455
2.549515
2.259444
1.925871
1.57336
1.29604
1.238475
1.236413
1.236413
1.236225
1.236413
1.23735
1.272414
1.56211
1.949497
2.330133
2.580079
2.667644
2.667644
2.663894
2.574266
2.322633
1.981561
1.618362
1.322103
1.240913
1.2366
1.236413
1.236413
1.236413
1.23735
1.275601
1.566423
1.937122
2.312133
2.569578
2.667644
2.667644
2.667644
2.585516
2.349447
2.003686
1.642738
1.335603
1.240725
1.2366
1.236413
1.236413
1.236413
1.237163
1.267726
1.54186
1.924934
2.289257
2.55289
2.667831
2.667831
2.667831
2.589454
2.350384
2.021499
1.655113
1.337478
1.240538
1.236788
1.236413
1.236225
1.236225
1.236975
1.260226
1.509421
1.891558
2.259819
2.53714
2.662206
2.667831
2.595642
2.595642
2.352822
2.021687
1.658676
1.346666
1.241475
1.236788
1.236225
1.236413
1.2366
1.2366
1.254976
1.479045
1.853494
2.244069
2.530765
2.665019
2.662769
2.587766
2.366322
2.366322
2.028624
1.673864
1.355666
1.241288
1.236975
1.236225
1.236225
1.2381
1.2381
1.252538
1.46667
1.842994
2.231881
2.529452
2.658456
2.667644
2.612517
2.403636
2.403636
2.063875
1.699177
1.378355
1.251038
1.236788
1.236413
1.236225
1.236413
1.248976
1.248976
1.457294
1.834369
2.197567
2.497389
2.656018
2.667831
2.407573
2.074563
1.730303
1.730303
1.387167
1.244288
1.237725
1.236413
1.236413
1.236788
1.248038
1.442107
1.841681
1.841681
2.203942
2.503951
2.618142
2.662394
2.633143
2.427262
2.136253
1.738741
1.412481
1.412481
1.248413
1.236788
1.236413
1.2366
1.2366
1.246163
1.411543
1.814868
2.185192
2.185192
2.506951
2.653956
2.667831
2.620205
2.456325
2.120877
1.756929
1.426731
1.247663
1.247663
1.23735
1.236225
1.236413
1.236413
1.243163
1.391667
1.774179
2.144503
2.144503
2.471325
2.633893
2.667831
2.629205
2.445825
2.11694
1.758804
1.427856
1.248601
1.248601
1.237163
1.236413
1.236413
1.2366
1.242413
1.376667
1.756554
2.12144
2.460638
2.460638
2.639706
2.667644
2.629955
2.459325
2.133628
1.778304
1.442294
1.251601
1.237163
1.237163
1.2366
1.236413
1.236413
1.241288
1.363729
1.746428
2.107189
2.434012
2.629955
2.629955
2.667831
2.630518
2.480701
2.161003
1.806805
1.460107
1.253476
1.23735
1.23735
1.2366
1.236225
1.236413
1.240538
1.349291
1.720552
2.091814
2.434762
2.626955
2.626955
2.667644
2.62433
2.500764
2.186317
1.827431
1.48017
1.259851
1.237913
1.236413
1.236413
1.236225
1.236413
1.240163
1.341978
1.701614
2.068376
2.422199
2.627705
2.667831
2.667831
2.645893
2.51614
2.205817
1.849931
1.505483
1.275976
1.237913
1.2366
1.2366
1.2366
1.236413
1.239413
1.336166
1.671239
2.032562
2.365385
2.60783
2.666144
2.666144
2.630893
2.494014
2.178629
1.838306
1.480545
1.257413
1.237538
1.2366
1.236038
1.236038
1.236413
1.237725
1.300165
1.64405
2.032562
2.370072
2.580454
2.634268
2.647581
2.647581
2.519139
2.238631
1.871307
1.529672
1.279539
1.238475
1.236413
1.236975
1.2366
1.2366
1.238475
1.302227
1.654926
2.025624
2.418636
2.621143
2.667644
2.631643
2.54314
2.54314
2.262444
1.918934
1.571673
1.287977
1.239788
1.2366
1.236413
1.236413
1.240163
1.240163
1.30654
1.628112
1.995623
2.381323
2.610267
2.667644
2.667644
2.563766
2.563766
2.288132
1.945934
1.596049
1.315728
1.239788
1.236788
1.2366
1.236413
1.238288
1.238288
1.31704
1.634862
2.004999
2.357135
2.610455
2.667644
2.667456
2.578204
2.309883
2.309883
1.972935
1.609737
1.317228
1.240163
1.237725
1.2366
1.2366
1.238288
1.299415
1.299415
1.626612
2.011374
2.360135
2.587579
2.662394
2.667644
2.586829
2.350009
1.986248
1.986248
1.623612
1.327916
1.240538
1.236788
1.236975
1.2366
1.2381
1.292477
1.292477
1.621737
2.000499
2.386573
2.609704
2.667644
2.666519
2.60633
2.37701
2.049062
2.049062
1.72374
1.38023
1.245413
1.237163
1.236413
1.236413
1.237538
1.242788
1.387355
1.387355
1.730303
2.072688
2.288695
2.418074
2.372885
2.200755
1.925871
1.57186
1.39298
1.39298
1.318915
1.248976
1.236788
1.236413
1.236413
1.236413
1.281977
1.650988
2.225318
2.225318
2.62283
2.667081
2.666706
2.666894
2.667269
2.631643
2.357697
1.969935
1.6508
1.6508
1.386792
1.265851
1.240163
1.238663
1.243163
1.352291
1.662801
2.035187
2.035187
2.358634
2.590017
2.663144
2.667644
2.597892
2.355634
1.991686
1.609362
1.31404
1.31404
1.238288
1.236413
1.236413
1.2366
1.236413
1.245038
1.429731
1.827993
2.199442
2.199442
2.507326
2.603704
2.605767
2.561891
2.320008
1.981373
1.659801
1.318165
1.239788
1.239788
1.2366
1.236225
1.236225
1.23735
1.245038
1.424106
1.79668
2.186504
2.493076
2.493076
2.626768
2.665394
2.590204
2.366697
2.014936
1.658488
1.356604
1.243725
1.243725
1.2366
1.236413
1.236225
1.236413
1.249163
1.427856
1.81318
2.164941
2.477326
2.477326
2.637268
2.663894
2.588892
2.375323
2.04325
1.685114
1.361104
1.241663
1.237725
1.237725
1.236413
1.236413
1.2366
1.243538
1.408168
1.80343
2.158566
2.469075
2.594704
2.594704
2.667644
2.603142
2.410949
2.074938
1.698427
1.372729
1.2426
1.2366
1.2366
1.2366
1.236413
1.236225
1.242225
1.377417
1.773054
2.14394
2.485951
2.627892
2.630143
2.630143
2.591329
2.401948
2.072501
1.744741
1.382292
1.243913
1.237163
1.236413
1.236413
1.236225
1.236975
1.240913
1.364667
1.72299
2.111127
2.4417
2.615705
2.661456
2.661456
2.618892
2.427636
2.091814
1.732928
1.402543
1.250288
1.236788
1.236413
1.236225
1.236225
1.2366
1.240725
1.364479
1.725428
2.074188
2.408886
2.619267
2.664644
2.611392
2.611392
2.431762
2.105502
1.743803
1.410418
1.245975
1.237538
1.236413
1.236225
1.236413
1.236413
1.239038
1.336353
1.713802
2.064813
2.391823
2.577266
2.631268
2.61008
2.61008
2.422199
2.095564
1.734428
1.397293
1.244288
1.2366
1.236413
1.2366
1.236413
1.236413
1.237725
1.293977
1.6268
1.992811
2.335759
2.570328
2.584391
2.575016
2.367822
2.367822
2.051687
1.698614
1.360729
1.240913
1.2366
1.236413
1.2366
1.236413
1.236788
1.236788
1.269414
1.573548
1.943309
2.290382
2.541828
2.612705
2.577266
2.373822
2.053
2.053
1.700302
1.363917
1.241288
1.236413
1.236413
1.236413
1.236225
1.236975
1.262851
1.262851
1.554422
1.917246
2.281195
2.52739
2.614767
2.578204
2.38601
2.073626
2.073626
1.72299
1.382292
1.242413
1.236788
1.236413
1.236413
1.236413
1.236975
1.266976
1.266976
1.569423
1.944997
2.302945
2.548765
2.588329
2.601267
2.467763
2.156878
1.812618
1.812618
1.46067
1.254413
1.236975
1.236413
1.236225
1.2366
1.237725
1.290977
1.627362
1.627362
2.000874
2.36426
2.601829
2.667831
2.654706
2.54239
2.264882
1.913496
1.566798
1.566798
1.294165
1.2396
1.2366
1.236225
1.236413
1.239038
1.323228
1.664676
1.664676
2.038187
2.408136
2.629955
2.667644
2.667456
2.573141
2.314383
1.969748
1.619862
1.619862
1.324915
1.241288
1.2366
1.236413
1.236225
1.239225
1.32379
1.663926
2.032
2.032
2.399886
2.623393
2.667644
2.667269
2.595829
2.319821
1.972373
1.624925
1.327165
1.327165
1.2411
1.2366
1.236413
1.236413
1.238288
1.301852
1.6298
1.995623
2.367072
2.367072
2.604455
2.667644
2.667456
2.588517
2.324321
1.980248
1.619674
1.321165
1.240538
1.240538
1.236788
1.236413
1.236413
1.23735
1.282539
1.580298
1.953435
2.329384
2.329384
2.587204
2.667644
2.667644
2.575204
2.313446
1.982123
1.617237
1.319853
1.24035
1.24035
1.2366
1.236413
1.236413
1.237163
1.269601
1.549172
1.922684
2.29507
2.562641
2.562641
2.667831
2.667456
2.575766
2.326946
1.988498
1.63205
1.315915
1.239975
1.2366
1.2366
1.2366
1.2366
1.236975
1.262476
1.528922
1.905433
2.273132
2.55064
2.667644
2.667644
2.667644
2.592079
2.345696
2.013624
1.648363
1.341978
1.240538
1.2366
1.236413
1.236413
1.236413
1.236788
1.257788
1.515984
1.88687
2.259631
2.54089
2.662581
2.662581
2.667644
2.600517
2.361072
2.021874
1.666176
1.355854
1.24185
1.236788
1.236413
1.236413
1.236225
1.237163
1.258351
1.494046
1.889495
2.257569
2.542578
2.666706
2.667644
2.667644
2.612705
2.385635
2.058625
1.369917
1.243913
1.236788
1.236413
1.236413
1.236788
1.254601
1.254601
1.481483
1.875432
2.244819
2.546328
2.667644
2.667456
2.618705
2.407011
2.073626
2.073626
1.71849
1.394105
1.2456
1.236975
1.236413
1.236413
1.2366
1.252726
1.252726
1.46817
1.857619
2.224943
2.527952
2.664081
2.667644
2.630143
2.420887
2.090689
2.090689
1.730865
1.411168
1.247851
1.236788
1.236413
1.236413
1.2366
1.248976
1.449044
1.449044
1.840181
2.20488
2.518764
2.655643
2.667831
2.636331
2.446387
2.11394
1.755429
1.755429
1.430481
1.249163
1.23735
1.236413
1.236413
1.2366
1.247101
1.436294
1.826306
1.826306
2.192692
2.509389
2.655643
2.667644
2.639331
2.465325
2.13569
1.773992
1.439481
1.439481
1.251413
1.237163
1.236413
1.236225
1.2366
1.246913
1.422231
1.807368
1.807368
2.170941
2.495514
2.650018
2.667644
2.63183
2.47395
2.148066
1.797617
1.46592
1.46592
1.255163
1.237163
1.236413
1.236413
1.236413
1.246351
1.416418
1.797055
2.158753
2.158753
2.497576
2.645893
2.667644
2.640268
2.499451
2.176566
1.820681
1.47567
1.258913
1.258913
1.2381
1.236413
1.236413
1.2366
1.243725
1.396543
1.776429
2.137565
2.461013
2.461013
2.632205
2.667644
2.643268
2.488763
2.156503
1.797242
1.467982
1.255163
1.255163
1.237538
1.236413
1.236413
1.2366
1.240725
1.346479
1.714177
2.073438
2.417324
2.417324
2.63033
2.666706
2.635393
2.488951
2.175442
1.819368
1.476983
1.259476
1.237725
1.237725
1.236413
1.236413
1.2366
1.240163
1.351729
1.72149
2.092001
2.438137
2.635393
2.635393
2.667456
2.643456
2.524577
2.211067
1.863244
1.514859
1.270914
1.2381
1.2366
1.2366
1.236225
1.236413
1.240913
1.357541
1.718865
2.072876
2.43645
2.634455
2.634455
2.667456
2.662581
2.54464
2.242193
1.88912
1.544297
1.284977
1.239038
1.236413
1.236413
1.2366
1.236413
1.240163
1.346854
1.707427
2.075876
2.427074
2.629205
2.667644
2.667644
2.664831
2.558328
2.268257
1.923996
1.56886
1.293977
1.239413
1.236788
1.236413
1.236413
1.236413
1.240163
1.335228
1.692989
2.055438
2.415824
2.63183
2.667644
2.667644
2.667644
2.572579
2.294883
1.945559
1.592299
1.306165
1.24035
1.2366
1.2366
1.2366
1.2366
1.239788
1.322853
1.672364
2.039312
2.413574
2.630705
2.667456
2.667644
2.667644
2.590579
2.346259
1.999374
1.6298
1.326228
1.2411
1.236788
1.2366
1.2366
1.2366
1.240913
1.353416
1.693552
2.029937
2.353759
2.55589
2.596767
2.567703
2.347947
2.347947
1.981935
1.562673
1.258351
1.2366
1.236413
1.237163
1.237163
1.236975
1.236975
1.236975
1.237725
1.428231
1.848056
2.157441
2.395573
2.551765
2.599392
2.574454
2.389385
2.389385
2.215943
2.001061
1.724303
1.491421
1.286289
1.253288
1.249538
1.290039
1.290039
1.500421
1.840181
2.20788
2.539015
2.667456
2.667269
2.667456
2.644018
2.437762
2.437762
2.081876
1.688676
1.357541
1.2411
1.2366
1.236225
1.2366
1.236788
1.257226
1.257226
1.506608
1.881807
2.258131
2.529265
2.639518
2.648706
2.556828
2.29882
1.959622
1.959622
1.609924
1.312728
1.239413
1.236413
1.236413
1.236225
1.236788
1.252538
1.491983
1.491983
1.868119
2.261319
2.535077
2.653394
2.667644
2.580641
2.325821
1.981748
1.628675
1.628675
1.332978
1.240538
1.2366
1.236413
1.236225
1.236788
1.257413
1.502483
1.502483
1.880495
2.256631
2.543328
2.667644
2.667831
2.580829
2.358072
2.016249
1.650238
1.650238
1.346479
1.241663
1.236788
1.2366
1.2366
1.236975
1.254413
1.489733
1.879557
1.879557
2.249131
2.527577
2.661831
2.667456
2.606142
2.380573
2.034437
1.683239
1.365604
1.365604
1.243538
1.236788
1.236413
1.236413
1.236788
1.254601
1.479983
1.868119
2.236381
2.236381
2.53939
2.668019
2.667644
2.618142
2.402323
2.070438
1.71324
1.390167
1.245038
1.245038
1.237163
1.2366
1.236225
1.236788
1.252538
1.466482
1.851057
2.218568
2.218568
2.526265
2.663706
2.667644
2.631268
2.424262
2.089189
1.731053
1.40723
1.247288
1.247288
1.236975
1.236413
1.236413
1.2366
1.249538
1.449794
1.844306
2.209755
2.520077
2.520077
2.658456
2.667644
2.629768
2.440949
2.106814
1.738178
1.423731
1.248038
1.237163
1.237163
1.2366
1.2366
1.236788
1.246163
1.428794
1.820493
2.191942
2.499076
2.658268
2.658268
2.667644
2.630518
2.446387
2.113377
1.753366
1.425418
1.247663
1.236975
1.236413
1.236413
1.236225
1.2366
1.243538
1.39748
1.783179
2.153503
2.478826
2.648143
2.648143
2.667644
2.619267
2.430449
2.112064
1.749616
1.407793
1.245975
1.236975
1.2366
1.2366
1.2366
1.236413
1.240725
1.355854
1.732178
2.087126
2.414699
2.599204
2.654706
2.654706
2.613267
2.420136
2.103064
1.741366
1.399543
1.245225
1.236975
1.2366
1.2366
1.2366
1.236413
1.239413
1.337666
1.710802
2.077188
2.408886
2.592454
2.659956
2.619642
2.619642
2.437012
2.112252
1.762554
1.419981
1.246351
1.237163
1.236413
1.236225
1.236225
1.236413
1.239038
1.327353
1.694677
2.058063
2.399886
2.590017
2.647393
2.62433
2.62433
2.471888
2.148816
1.79443
1.457107
1.255538
1.23735
1.236413
1.236413
1.236413
1.236413
1.240163
1.339541
1.716802
2.086939
2.439637
2.632768
2.667644
2.645143
2.515952
2.515952
2.22213
1.882183
1.538484
1.278977
1.238663
1.2366
1.2366
1.2366
1.243163
1.243163
1.380605
1.753179
2.123502
2.477513
2.644393
2.667456
2.667831
2.577454
2.282132
2.282132
1.928309
1.601861
1.309727
1.24035
1.2366
1.236413
1.2366
1.2426
1.2426
1.38473
1.749991
2.12144
2.476201
2.644581
2.667644
2.667644
2.589642
2.316071
2.316071
1.953435
1.612924
1.323603
1.2426
1.236788
1.2366
1.236975
1.242038
1.364854
1.364854
1.72599
2.087689
2.4582
2.642143
2.667644
2.667644
2.599204
2.318133
1.974248
1.974248
1.617424
1.327916
1.242225
1.236975
1.236413
1.2366
1.24035
1.338041
1.696739
1.696739
2.069876
2.435699
2.635955
2.667456
2.667456
2.582704
2.322633
1.979123
1.979123
1.634675
1.332416
1.241288
1.236788
1.2366
1.236413
1.239788
1.337478
1.668988
1.668988
2.038937
2.407948
2.63258
2.667644
2.667644
2.606142
2.341384
1.985686
1.633175
1.633175
1.338041
1.241663
1.236975
1.2366
1.236413
1.238663
1.316478
1.647613
2.020749
2.020749
2.38301
2.618705
2.667644
2.667456
2.616455
2.350947
2.003124
1.644988
1.352291
1.352291
1.243351
1.236788
1.2366
1.2366
1.238663
1.306165
1.632612
2.002749
2.002749
2.363884
2.61233
2.667644
2.667644
2.607642
2.36876
2.024312
1.662613
1.360354
1.360354
1.243913
1.236975
1.2366
1.2366
1.238663
1.295852
1.615174
1.986248
2.359197
2.359197
2.603704
2.667644
2.667456
2.611205
2.37926
2.042687
1.689239
1.375355
1.244851
1.244851
1.237163
1.2366
1.236413
1.237913
1.288914
1.586861
1.959622
2.336134
2.597704
2.597704
2.667644
2.667456
2.631455
2.401573
2.0575
1.698427
1.39148
1.246163
1.2366
1.2366
1.2366
1.237913
1.283664
1.568485
1.952497
2.323758
2.588517
2.667644
2.667644
2.667644
2.64008
2.418449
2.092752
1.725615
1.403855
1.247476
1.237538
1.2366
1.236413
1.236413
1.2381
1.271101
1.545797
1.932809
2.300883
2.576329
2.667644
2.667644
2.639331
2.639331
2.438324
2.108877
1.746241
1.416231
1.249726
1.237538
1.2366
1.2366
1.2366
1.237538
1.274289
1.536609
1.927559
2.295445
2.568641
2.667456
2.667456
2.644581
2.644581
2.463263
2.13269
1.758991
1.426544
1.248976
1.237538
1.2366
1.2366
1.237163
1.237163
1.267539
1.518046
1.902433
2.270507
2.558141
2.667831
2.667456
2.647768
2.478451
2.478451
2.147503
1.788055
1.463107
1.255913
1.2381
1.2366
1.236413
1.23735
1.261351
1.261351
1.501733
1.898308
2.262257
2.55064
2.667456
2.667456
2.644393
2.485951
2.158753
2.158753
1.79968
1.475295
1.258913
1.2381
1.2366
1.236413
1.23735
1.259101
1.259101
1.48842
1.871495
2.231881
2.542765
2.665769
2.667456
2.644768
2.485951
2.150316
2.150316
1.785242
1.453357
1.253851
1.237725
1.2366
1.236413
1.236788
1.247101
1.428044
1.428044
1.818431
2.175629
2.501701
2.654706
2.667644
2.633143
2.475075
2.155566
1.799305
1.799305
1.464982
1.256101
1.237913
1.236788
1.236413
1.236788
1.247476
1.428044
1.815055
1.815055
2.191192
2.516327
2.659206
2.667456
2.664831
2.52514
2.206942
1.848619
1.848619
1.512796
1.269601
1.238475
1.2366
1.2366
1.236788
1.249913
1.435731
1.811118
1.811118
2.176191
2.516514
2.656394
2.667456
2.665956
2.536952
2.22738
1.873557
1.535109
1.535109
1.281039
1.239225
1.236788
1.236413
1.236788
1.246726
1.422981
1.802305
2.162879
2.162879
2.507326
2.649268
2.667644
2.667456
2.547078
2.246131
1.893995
1.55536
1.292664
1.292664
1.2396
1.236788
1.2366
1.236788
1.245788
1.411543
1.789742
2.155753
2.155753
2.503764
2.645706
2.667456
2.667644
2.554578
2.263569
1.912558
1.57186
1.298102
1.298102
1.24035
1.236788
1.2366
1.2366
1.244288
1.395418
1.768179
2.132503
2.483888
2.483888
2.639893
2.667456
2.667644
2.588892
2.314383
1.968623
1.63205
1.340291
1.243163
1.243163
1.23735
1.236788
1.236975
1.246726
1.414168
1.79143
2.152566
2.506951
2.644956
2.644956
2.667644
2.64008
2.482201
2.104939
1.703302
1.32529
1.237538
1.2366
1.236788
1.236788
1.237163
1.236788
1.236788
1.236413
1.278414
1.734615
2.269382
2.549328
2.549328
2.588704
2.546328
2.379447
2.191942
1.947434
1.724678
1.616487
1.48767
1.345729
1.345729
1.30354
1.282164
1.404605
1.674426
2.008561
2.325446
2.61983
2.667269
2.666894
2.666894
2.667456
2.656956
2.461388
2.094439
1.72749
1.399543
1.247476
1.23735
1.2366
1.2366
1.2366
1.2381
1.296602
1.614799
1.98006
2.335946
2.578391
2.667644
2.661456
2.661456
2.555703
2.277257
1.924559
1.579548
1.30129
1.239413
1.2366
1.236413
1.236413
1.236413
1.237538
1.283102
1.593049
1.960372
2.332571
2.585704
2.667456
2.668019
2.668019
2.565641
2.30107
1.963747
1.600924
1.310665
1.239788
1.2366
1.236225
1.236413
1.236413
1.237538
1.284789
1.591924
1.96206
2.331071
2.578954
2.667456
2.667644
2.597142
2.597142
2.331446
1.989811
1.633362
1.333728
1.2411
1.2366
1.2366
1.236413
1.237538
1.237538
1.279914
1.575236
1.95156
2.335384
2.583641
2.667456
2.667644
2.609704
2.364635
2.364635
2.022437
1.663926
1.354729
1.242975
1.236788
1.2366
1.236413
1.237538
1.237538
1.275601
1.560423
1.951184
2.324696
2.582516
2.667644
2.667456
2.62058
2.38976
2.38976
2.04325
1.689614
1.380605
1.244288
1.236788
1.2366
1.2366
1.237725
1.275789
1.275789
1.547672
1.928871
2.288507
2.560578
2.667644
2.667456
2.622643
2.396511
2.072688
2.072688
1.71624
1.391855
1.244851
1.23735
1.236413
1.236413
1.237163
1.267164
1.533234
1.533234
1.917434
2.28907
2.564328
2.667456
2.667644
2.625268
2.409074
2.075688
2.075688
1.717927
1.396168
1.246538
1.237163
1.236788
1.2366
1.237163
1.258913
1.493483
1.493483
1.885932
2.251944
2.54239
2.667644
2.667456
2.636893
2.414136
2.088626
1.721865
1.721865
1.401605
1.246726
1.236975
1.236413
1.2366
1.2366
1.250663
1.457107
1.840556
1.840556
2.20938
2.510139
2.653206
2.667456
2.60933
2.393886
2.062751
1.701239
1.379292
1.379292
1.2426
1.236788
1.2366
1.236413
1.2366
1.243163
1.39448
1.781867
2.149003
2.149003
2.461388
2.611767
2.663144
2.593204
2.36801
2.038
1.685864
1.362604
1.362604
1.24185
1.2366
1.2366
1.2366
1.236413
1.2411
1.372729
1.757679
2.11844
2.11844
2.439637
2.604642
2.660144
2.60558
2.395573
2.057125
1.707427
1.381917
1.242975
1.242975
1.236413
1.236413
1.236413
1.2366
1.242038
1.375167
1.746428
2.108127
2.437199
2.437199
2.634455
2.667644
2.611955
2.436074
2.113189
1.763304
1.430669
1.249163
1.23735
1.23735
1.236413
1.236413
1.236788
1.243913
1.404418
1.786555
2.156316
2.490451
2.490451
2.651893
2.667644
2.654894
2.518764
2.199817
1.853307
1.522547
1.275039
1.239413
1.239413
1.236975
1.236413
1.236975
1.249351
1.441356
1.836619
2.194942
2.532452
2.652831
2.652831
2.667456
2.667456
2.563953
2.274444
1.926059
1.588548
1.31179
1.241663
1.237163
1.237163
1.2366
1.23735
1.253663
1.454107
1.844119
2.205255
2.546703
2.660894
2.667644
2.667644
2.667456
2.584766
2.294883
1.95156
1.608237
1.318915
1.242225
1.23735
1.236788
1.236788
1.237538
1.252538
1.446419
1.812243
2.177316
2.528515
2.661269
2.667456
2.667456
2.667644
2.596579
2.319258
1.96431
1.620237
1.328478
1.242413
1.236975
1.236788
1.236788
1.236975
1.246351
1.40723
1.782992
2.148066
2.495701
2.650206
2.667456
2.667644
2.667644
2.585516
2.31532
1.966935
1.619862
1.327541
1.24185
1.236975
1.2366
1.236788
1.236788
1.243913
1.388667
1.764991
2.13269
2.486138
2.640455
2.667456
2.667456
2.607267
2.607267
2.330884
1.979498
1.629425
1.340103
1.243163
1.236975
1.2366
1.236788
1.24185
1.24185
1.366542
1.730115
2.095376
2.456325
2.637268
2.667456
2.667456
2.61008
2.61008
2.349822
2.000311
1.63505
1.336728
1.242788
1.237163
1.236413
1.236788
1.241475
1.241475
1.348729
1.707802
2.075313
2.438699
2.63558
2.667456
2.667456
2.604642
2.351884
2.351884
2.005749
1.64705
1.344416
1.243163
1.237163
1.236788
1.2366
1.240538
1.343853
1.343853
1.687551
2.065001
2.43645
2.639331
2.667456
2.667644
2.624705
2.372885
2.024874
2.024874
1.668238
1.358479
1.2441
1.236975
1.2366
1.236788
1.239788
1.32454
1.32454
1.664113
2.027874
2.401198
2.630518
2.667644
2.667456
2.629955
2.392761
2.064813
2.064813
1.709302
1.384355
1.245975
1.23735
1.236788
1.2366
1.239225
1.316853
1.646488
1.646488
2.029187
2.395948
2.631643
2.667456
2.667456
2.635955
2.411324
2.074376
1.719615
1.719615
1.39898
1.247663
1.237538
1.2366
1.2366
1.315353
1.636737
2.009874
2.386948
2.623018
2.623018
2.667456
2.667269
2.639143
2.436262
2.087876
1.734241
1.414168
1.249913
1.237725
1.237725
1.2366
1.236788
1.238288
1.294165
1.595674
1.984373
2.35976
2.615142
2.615142
2.667456
2.667456
2.64008
2.440949
2.100064
1.746241
1.424668
1.250663
1.237913
1.237913
1.236788
1.2366
1.2381
1.287977
1.580673
1.967123
2.347009
2.609892
2.667269
2.667269
2.667456
2.636518
2.463075
2.129503
1.755804
1.445107
1.255726
1.2381
1.236788
1.236788
1.236788
1.238288
1.285352
1.564735
1.950435
2.316821
2.589642
2.667644
2.667456
2.667456
2.645706
2.461763
2.127815
1.769304
1.442857
1.252913
1.237538
1.236788
1.236788
1.2366
1.23735
1.260413
1.499483
1.888745
2.251194
2.544265
2.667456
2.667644
2.667644
2.638956
2.439075
2.110752
1.752241
1.423731
1.250663
1.237725
1.2366
1.2366
1.2366
1.237163
1.260413
1.504733
1.896995
2.262632
2.564328
2.667456
2.667644
2.653581
2.653581
2.485576
2.162879
1.799492
1.476795
1.259663
1.2381
1.236788
1.2366
1.23735
1.23735
1.263789
1.507171
1.899995
2.267132
2.564516
2.667456
2.667644
2.662206
2.662206
2.508452
2.185379
1.831368
1.503608
1.269414
1.23885
1.236975
1.236788
1.237538
1.237538
1.263039
1.499296
1.881995
2.246131
2.554765
2.667644
2.667456
2.665769
2.530202
2.530202
2.229443
1.866432
1.551985
1.287789
1.239975
1.237163
1.236788
1.237725
1.260601
1.260601
1.493108
1.880495
2.239381
2.561891
2.667456
2.667456
2.667644
2.561516
2.258131
2.258131
1.904683
1.57186
1.302977
1.240725
1.237163
1.236788
1.23735
1.255351
1.472295
1.472295
1.856119
2.211067
2.542765
2.663331
2.667456
2.667644
2.547078
2.244069
2.244069
1.886495
1.55086
1.289852
1.240163
1.236975
1.236788
1.237163
1.249538
1.434794
1.434794
1.821993
2.181817
2.52889
2.660519
2.667456
2.667456
2.569953
2.251569
1.850494
1.850494
1.47342
1.249726
1.2366
1.236413
1.2366
1.236413
1.2366
1.243538
1.430106
1.430106
1.827806
2.183504
2.594329
2.667269
2.667269
2.592642
2.254194
1.848994
1.532484
1.532484
1.321728
1.260788
1.292102
1.376104
1.448294
1.605236
1.840931
2.149003
2.470575
2.470575
2.661831
2.667081
2.667081
2.667081
2.667269
2.525327
2.150128
1.774554
1.774554
1.439669
1.260601
1.239225
1.23735
1.237538
1.249163
1.402543
1.728615
2.076251
2.076251
2.429137
2.63183
2.667644
2.648518
2.526827
2.219693
1.868119
1.522734
1.275414
1.275414
1.238288
1.236413
1.236413
1.2366
1.239038
1.322665
1.671426
2.029374
2.398761
2.398761
2.621893
2.667644
2.663144
2.550453
2.251756
1.911058
1.55686
1.290602
1.23885
1.23885
1.2366
1.236413
1.2366
1.238288
1.304477
1.639175
2.003874
2.372135
2.372135
2.60858
2.667644
2.653581
2.54614
2.251756
1.907308
1.548797
1.288539
1.239038
1.239038
1.2366
1.236413
1.2366
1.237913
1.29604
1.6268
1.996373
2.366135
2.606892
2.606892
2.667456
2.667644
2.563766
2.278195
1.930184
1.579548
1.298852
1.239038
1.236788
1.236788
1.236413
1.236413
1.237913
1.289664
1.602799
1.96506
2.329571
2.586079
2.667644
2.667644
2.666894
2.572391
2.29057
1.948184
1.593424
1.30579
1.239225
1.2366
1.2366
1.236413
1.236413
1.237725
1.278977
1.578048
1.950435
2.320946
2.574266
2.667644
2.667644
2.667456
2.578391
2.312696
1.974623
1.613862
1.315728
1.240163
1.2366
1.236413
1.236413
1.236413
1.237538
1.271664
1.555735
1.927371
2.299945
2.563016
2.667831
2.667644
2.667644
2.578391
2.317383
1.975935
1.616299
1.31854
1.239975
1.236788
1.2366
1.236225
1.236225
1.237163
1.261539
1.513921
1.896995
2.270694
2.541828
2.665019
2.667644
2.583079
2.583079
2.319446
1.976498
1.62155
1.329041
1.2396
1.2366
1.2366
1.236413
1.236413
1.236975
1.249538
1.468357
1.849744
2.221005
2.514077
2.610642
2.640831
2.562453
2.562453
2.30332
1.95006
1.591736
1.30129
1.238288
1.236413
1.236413
1.236413
1.2366
1.2366
1.2426
1.403293
1.784117
2.152003
2.445825
2.604267
2.604267
2.535827
2.27857
2.27857
1.929246
1.56586
1.287414
1.237725
1.236413
1.236413
1.2366
1.236413
1.240725
1.240725
1.373104
1.756741
2.128565
2.424824
2.596204
2.604455
2.557391
2.291507
2.291507
1.944247
1.583861
1.297727
1.238288
1.2366
1.236413
1.236413
1.236413
1.240538
1.240538
1.367292
1.748491
2.119377
2.427636
2.598829
2.597329
2.578954
2.330321
1.987748
1.987748
1.627362
1.345916
1.240725
1.2366
1.236413
1.236225
1.2366
1.243538
1.403855
1.403855
1.797992
2.173379
2.499451
2.653581
2.667456
2.632018
2.431012
2.101377
1.748303
1.748303
1.422231
1.249538
1.237725
1.2366
1.236413
1.236975
1.254226
1.47492
1.863994
1.863994
2.228131
2.54314
2.667644
2.667456
2.662769
2.521202
2.202817
1.855369
1.855369
1.513734
1.271476
1.239038
1.237163
1.236788
1.23735
1.261913
1.497421
1.884433
1.884433
2.245194
2.562453
2.667456
2.667269
2.667456
2.550078
2.236006
1.871682
1.554798
1.554798
1.283289
1.240163
1.236975
1.2366
1.23735
1.256476
1.471357
1.855932
2.223443
2.223443
2.544828
2.665019
2.667644
2.667456
2.54764
2.240131
1.883682
1.549172
1.284227
1.284227
1.239413
1.236788
1.2366
1.237163
1.249726
1.435169
1.819743
2.186879
2.186879
2.52439
2.656206
2.667644
2.667456
2.551203
2.237693
1.881807
1.540922
1.284414
1.284414
1.2396
1.236975
1.2366
1.236788
1.2441
1.396543
1.775304
2.138128
2.487826
2.487826
2.649643
2.667644
2.666331
2.542578
2.230193
1.879745
1.537359
1.281039
1.23885
1.23885
1.2366
1.2366
1.2366
1.242038
1.371792
1.740803
2.110752
2.464763
2.636706
2.636706
2.667644
2.667456
2.554203
2.249881
1.897745
1.552547
1.285914
1.239038
1.2366
1.2366
1.236413
1.2366
1.241663
1.366542
1.732553
2.098752
2.45745
2.639331
2.639331
2.667644
2.667644
2.563391
2.280257
1.922121
1.573173
1.299415
1.24035
1.236788
1.236788
1.236413
1.236788
1.241288
1.361104
1.714552
2.086564
2.44695
2.632393
2.667269
2.667269
2.667456
2.584766
2.302195
1.95156
1.597924
1.312915
1.24035
1.236975
1.2366
1.2366
1.236413
1.240538
1.348166
1.706115
2.073438
2.440199
2.63408
2.667456
2.667456
2.667456
2.598267
2.326384
1.979123
1.617049
1.326228
1.241475
1.237163
1.2366
1.2366
1.2366
1.240163
1.340853
1.688302
2.061625
2.402136
2.633143
2.667456
2.667456
2.667456
2.61383
2.349634
2.002186
1.649113
1.341416
1.2426
1.237163
1.2366
1.2366
1.2366
1.239788
1.330916
1.679114
2.052438
2.412074
2.632205
2.667456
2.667644
2.613455
2.613455
2.367072
2.023374
1.664863
1.364104
1.244475
1.237163
1.2366
1.236788
1.239225
1.239225
1.317603
1.654738
2.032562
2.397448
2.627517
2.667644
2.667269
2.62883
2.378135
2.378135
2.04775
1.686989
1.368604
1.244475
1.237163
1.236788
1.2366
1.239225
1.239225
1.310665
2.003311
2.371572
2.621143
2.667644
2.667456
2.639706
2.417511
2.072501
1.719052
1.719052
1.390355
1.246538
1.23735
1.236975
1.236788
1.23885
1.298852
1.601486
2.001811
2.001811
2.358259
2.603517
2.667644
2.667644
2.635393
2.399698
2.047563
1.697677
1.697677
1.377792
1.243163
1.236975
1.236413
1.236413
1.237538
1.273164
1.552735
1.942747
1.942747
2.318883
2.579704
2.667456
2.667456
2.63333
2.416199
2.076438
1.716615
1.39673
1.39673
1.246913
1.23735
1.2366
1.2366
1.237725
1.281227
1.575423
1.966747
2.339696
2.339696
2.599767
2.667456
2.667456
2.645143
2.461388
2.12519
1.766491
1.447357
1.254601
1.254601
1.2381
1.236788
1.2366
1.237725
1.277101
1.551235
1.938809
2.309508
2.309508
2.583829
2.667456
2.667269
2.641206
2.479388
2.146753
1.785429
1.462357
1.259851
1.259851
1.238288
1.236975
1.2366
1.237913
1.274289
1.541484
1.933371
2.301445
2.580454
2.580454
2.667269
2.667269
2.654144
2.501514
2.170566
1.813368
1.491421
1.266414
1.23885
1.23885
1.236788
1.2366
1.237913
1.272226
1.531359
1.925496
2.287007
2.576141
2.667456
2.667456
2.667456
2.664456
2.523639
2.198505
1.836244
1.503983
1.267726
1.239038
1.237163
1.237163
1.2366
1.237538
1.262664
1.506796
1.906183
2.268444
2.566203
2.667456
2.667456
2.667456
2.667456
2.54839
2.225318
1.862307
1.523296
1.278414
1.240163
1.237163
1.237163
1.236975
1.237725
1.262101
1.47417
1.831556
2.148253
2.429324
2.605392
2.603329
2.603329
2.478451
2.191567
1.81243
1.413043
1.24035
1.236413
1.236788
1.236975
1.236975
1.236975
1.2366
1.239225
1.353604
1.692802
2.0365
2.37176
2.634643
2.667644
2.667644
2.667644
2.60783
2.518014
2.22363
1.905433
1.563423
1.336541
1.253288
1.243538
1.243538
1.246351
1.353416
1.6538
2.015311
2.352634
2.627705
2.667456
2.667269
2.667269
2.667269
2.593954
2.275382
1.889683
1.518421
1.265289
1.237725
1.236788
1.236413
1.236413
1.236413
1.241288
1.356416
1.735365
2.099876
2.448637
2.638206
2.667644
2.659206
2.525515
2.525515
2.215755
1.850869
1.513546
1.270539
1.238288
1.236413
1.236413
1.2366
1.240913
1.240913
1.364667
1.734428
2.11619
2.453325
2.638956
2.667644
2.665394
2.54314
2.241631
2.241631
1.891933
1.54786
1.283852
1.239225
1.236788
1.236413
1.2366
1.241475
1.241475
1.366729
1.732928
2.105877
2.457638
2.639143
2.667269
2.667644
2.576516
2.28607
2.28607
1.925309
1.573173
1.301852
1.24035
1.236788
1.2366
1.2366
1.240913
1.351354
1.351354
1.71549
2.096127
2.438512
2.63483
2.667644
2.667456
2.580266
2.300883
1.948747
1.948747
1.605424
1.322665
1.240725
1.236975
1.236413
1.2366
1.240913
1.347041
1.709865
1.709865
2.076813
2.4417
2.63108
2.667644
2.667456
2.596954
2.336509
1.983811
1.983811
1.632237
1.331103
1.241663
1.236975
1.236413
1.236788
1.240725
1.345353
1.698239
1.698239
2.070438
2.432699
2.637081
2.667456
2.667456
2.619267
2.353197
2.011374
1.658301
1.658301
1.356416
1.243351
1.237163
1.236975
1.236788
1.239975
1.335791
1.684551
2.05225
2.05225
2.418261
2.63108
2.667456
2.667644
2.628643
2.383385
2.040625
1.683051
1.371229
1.371229
1.245225
1.23735
1.236788
1.236788
1.239788
1.327353
1.668238
2.0425
2.415636
2.415636
2.635205
2.667456
2.667456
2.63783
2.410011
2.0605
1.701052
1.381355
1.381355
1.246163
1.237538
1.236788
1.236788
1.239413
1.311978
1.636737
2.012874
2.383198
2.383198
2.62283
2.667456
2.667456
2.628268
2.404386
2.057688
1.701802
1.381167
1.245038
1.245038
1.23735
1.2366
1.2366
1.238475
1.292477
1.595299
1.97106
2.342322
2.593579
2.593579
2.667456
2.667456
2.629768
2.393886
2.051687
1.690927
1.380792
1.244663
1.237163
1.237163
1.2366
1.236788
1.237725
1.276351
1.561923
1.941059
2.310446
2.576891
2.576891
2.667456
2.667456
2.636518
2.399511
2.067063
1.701614
1.384355
1.245413
1.237163
1.237163
1.236413
1.236413
1.23735
1.271101
1.549547
1.925121
2.29882
2.573141
2.667456
2.667456
2.667456
2.639518
2.416761
2.087689
1.729178
1.40948
1.249163
1.237538
1.236788
1.236788
1.236788
1.237725
1.275601
1.54186
1.943309
2.312133
2.586266
2.667456
2.667456
2.667456
2.648893
2.479951
2.151628
1.799305
1.46817
1.258163
1.23885
1.236975
1.2366
1.2366
1.237913
1.280852
1.550297
1.942747
2.310446
2.586641
2.667456
2.667456
2.667456
2.664644
2.516327
2.192879
1.839056
1.520859
1.274289
1.239788
1.23735
1.236788
1.236788
1.238475
1.284039
1.554422
1.947434
2.310258
2.590954
2.667269
2.667456
2.667644
2.667644
2.530015
2.220443
1.859119
1.524421
1.278414
1.239788
1.236975
1.236975
1.237913
1.237913
1.274476
1.526859
1.916496
2.28532
2.572016
2.667269
2.667081
2.667456
2.534702
2.534702
2.224943
1.865119
1.530984
1.280289
1.239975
1.237163
1.236788
1.237538
1.237538
1.262101
1.506796
1.881057
2.254944
2.558516
2.667456
2.667456
2.667456
2.533952
2.533952
2.225505
1.870557
1.537359
1.282727
1.2396
1.236975
1.2366
1.237163
1.255913
1.255913
1.47417
1.863432
2.230193
2.55064
2.665394
2.667269
2.667644
2.543515
2.20563
2.20563
1.881245
1.55236
1.283664
1.2396
1.2366
1.2366
1.236975
1.250851
1.441919
1.441919
1.828931
2.201692
2.527765
2.655269
2.667644
2.667644
2.55064
2.249694
1.89137
1.89137
1.544672
1.284602
1.2396
1.236788
1.2366
1.236975
1.246913
1.420356
1.420356
1.800617
2.156503
2.513139
2.651143
2.667456
2.667644
2.558328
2.268069
1.916308
1.916308
1.563798
1.291727
1.240163
1.236788
1.2366
1.236788
1.245413
1.404605
1.763491
1.763491
2.146003
2.498139
2.644581
2.667456
2.667644
2.577079
2.289632
1.933934
1.577861
1.577861
1.301477
1.24035
1.236975
1.236413
1.236788
1.244288
1.394668
1.756179
2.13494
2.13494
2.488763
2.643831
2.667456
2.667644
2.586079
2.302383
1.953997
1.610487
1.610487
1.314228
1.241475
1.236975
1.236975
1.236975
1.242975
1.379855
1.744553
2.11919
2.11919
2.467388
2.641956
2.667644
2.667269
2.592079
2.322633
1.978373
1.621362
1.333353
1.333353
1.24185
1.237163
1.2366
1.236788
1.2426
1.360916
1.71999
2.085814
2.443387
2.443387
2.636893
2.667644
2.667456
2.605392
2.338384
1.991311
1.635612
1.343479
1.242975
1.242975
1.237163
1.236788
1.236788
1.240725
1.348354
1.700864
2.072126
2.443949
2.63408
2.63408
2.667269
2.667456
2.620205
2.35676
2.008374
1.658113
1.344604
1.244475
1.244475
1.237163
1.2366
1.236788
1.24035
1.337853
1.675739
2.048125
2.425011
2.631455
2.631455
2.667644
2.667456
2.631268
2.378885
2.038187
1.666176
1.358479
1.242788
1.236975
1.236975
1.2366
1.236788
1.238663
1.304665
1.629987
1.989061
2.355634
2.606517
2.667456
2.667456
2.667644
2.606892
2.344947
2.005936
1.65305
1.330166
1.242975
1.236975
1.2366
1.2366
1.236413
1.238663
1.303727
1.619487
1.986248
2.365197
2.61758
2.667456
2.634455
2.400073
2.400073
2.068563
1.712115
1.38923
1.246538
1.237538
1.236788
1.2366
1.238475
1.238475
1.301665
1.623237
1.990561
2.366697
2.609517
2.667644
2.667644
2.638206
2.426512
2.426512
2.088626
1.723928
1.407043
1.251788
1.237725
1.236788
1.2366
1.238288
1.293227
1.293227
1.597361
1.976873
2.360322
2.598829
2.667456
2.667644
2.644393
2.448075
2.112064
2.112064
1.756554
1.430669
1.252538
1.2381
1.236788
1.2366
1.238663
1.293414
1.578798
1.578798
1.963935
2.335759
2.599579
2.667644
2.667456
2.653769
2.474513
2.13719
2.13719
1.785992
1.454107
1.257601
1.238288
1.236788
1.2366
1.238288
1.281977
1.560048
1.560048
1.949309
2.318696
2.581954
2.667456
2.667456
2.656394
2.491951
2.146565
1.79443
1.79443
1.47717
1.263414
1.23885
1.237163
1.236788
1.238475
1.279914
1.517859
1.942747
1.942747
2.30782
2.593579
2.667456
2.667269
2.667456
2.529265
2.180129
1.79518
1.411168
1.411168
1.243351
1.2366
1.236413
1.2366
1.2366
1.236788
1.245413
1.452232
1.452232
1.780742
2.027687
2.29507
2.361259
2.476201
2.393886
2.074563
1.63505
1.314978
1.314978
1.2396
1.23735
1.23735
1.239413
1.309352
1.603924
1.931497
2.311383
2.596017
2.596017
2.667081
2.666894
2.666894
2.667269
2.656018
2.454262
2.073438
1.70499
1.397855
1.397855
1.250663
1.238475
1.23735
1.238288
1.264726
1.481108
1.841119
2.177691
2.487826
2.487826
2.653581
2.667644
2.631643
2.446387
2.11694
1.760304
1.407418
1.251038
1.237538
1.237538
1.236413
1.236413
1.236788
1.243351
1.384542
1.771367
2.129315
2.464388
2.464388
2.642143
2.667644
2.644206
2.484826
2.162316
1.809805
1.47117
1.257038
1.237725
1.237725
1.2366
1.2366
1.236788
1.242788
1.391855
1.770804
2.132878
2.475075
2.644768
2.644768
2.667456
2.652081
2.517639
2.197567
1.835868
1.507546
1.266789
1.238288
1.236788
1.236788
1.2366
1.236788
1.243538
1.39073
1.764616
2.131377
2.473575
2.641956
2.667644
2.667644
2.665206
2.542203
2.224755
1.87262
1.531734
1.278227
1.238663
1.2366
1.2366
1.236413
1.236788
1.243351
1.370479
1.740991
2.110377
2.459888
2.643831
2.667456
2.667456
2.667644
2.55439
2.256819
1.903371
1.553672
1.289664
1.239413
1.236788
1.2366
1.2366
1.236788
1.242038
1.364479
1.727678
2.096501
2.444325
2.638956
2.667456
2.667456
2.667456
2.570703
2.273319
1.927184
1.578611
1.29529
1.239788
1.236788
1.2366
1.236788
1.236788
1.240538
1.346666
1.705552
2.073813
2.430824
2.632955
2.667644
2.667456
2.570141
2.570141
2.285882
1.936372
1.593799
1.306165
1.2396
1.236788
1.2366
1.2366
1.2366
1.2396
1.330916
1.675926
2.041
2.406449
2.628268
2.667644
2.667456
2.547078
2.547078
2.312883
1.946309
1.587611
1.305602
1.239788
1.236788
1.2366
1.236413
1.2381
1.2381
1.301665
1.6373
1.989998
2.356197
2.60483
2.667644
2.664081
2.553828
2.274257
2.274257
1.921746
1.567173
1.290227
1.23885
1.2366
1.2366
1.236413
1.23735
1.272976
1.272976
1.567548
1.934684
2.309133
2.548578
2.655643
2.648706
2.54839
2.251381
2.251381
1.901308
1.544485
1.287227
1.237913
1.2366
1.2366
1.236413
1.236788
1.264539
1.264539
1.536047
1.899808
2.272007
2.532452
2.643643
2.650206
2.551953
2.268632
1.923996
1.923996
1.555923
1.282164
1.238475
1.2366
1.236413
1.236413
1.236975
1.256851
1.508484
1.508484
1.887995
2.257756
2.53039
2.647956
2.662769
2.568453
2.29582
1.953622
1.603549
1.603549
1.31704
1.2396
1.236788
1.2366
1.236413
1.237163
1.266414
1.539797
1.923809
1.923809
2.296195
2.575204
2.667456
2.667644
2.614955
2.390698
2.061813
1.699739
1.699739
1.386605
1.246538
1.237163
1.236788
1.2366
1.2381
1.294915
1.57186
1.97556
1.97556
2.342134
2.606142
2.667269
2.667456
2.648893
2.46495
2.131002
1.776242
1.453919
1.453919
1.257038
1.238475
1.236975
1.236788
1.239038
1.303915
1.614612
1.993373
2.368947
2.368947
2.62358
2.667269
2.667456
2.661456
2.498889
2.160441
1.778304
1.430856
1.248788
1.248788
1.23735
1.236975
1.236788
1.237725
1.287602
1.593986
2.021312
2.432137
2.645893
2.645893
2.667269
2.667269
2.667456
2.548953
2.191379
1.799492
1.451107
1.252538
1.252538
1.237725
1.236788
1.2366
1.237538
1.286664
1.578986
2.010436
2.420887
2.63333
2.63333
2.667269
2.667081
2.667269
2.556078
2.203192
1.811868
1.444169
1.254226
1.237725
1.237725
1.236788
1.236788
1.237163
1.270539
1.547672
1.983061
2.381135
2.637643
2.667081
2.667081
2.667081
2.667269
2.562078
2.225505
1.834181
1.474732
1.257226
1.2381
1.2366
1.2366
1.236413
1.23735
1.262664
1.518234
1.96956
2.358072
2.62883
2.667269
2.667269
2.667081
2.667456
2.575579
2.235068
1.842806
1.48017
1.257413
1.2381
1.2366
1.2366
1.236413
1.23735
1.257226
1.501358
1.930559
2.333509
2.633705
2.667081
2.667269
2.667269
2.667269
2.589079
2.263194
1.870932
1.506421
1.264539
1.2381
1.2366
1.236788
1.236788
1.236975
1.254038
1.488045
1.907871
2.316633
2.621518
2.667269
2.667269
2.667269
2.667269
2.602017
2.296383
1.893995
1.533234
1.269226
1.238475
1.236788
1.236413
1.237163
1.237163
1.251976
1.47717
1.900183
2.30257
2.620018
2.667269
2.667081
2.667269
2.667269
2.623205
2.312133
1.913308
1.557047
1.274851
1.238663
1.2366
1.2366
1.236975
1.236975
1.248038
1.461045
1.874307
2.283632
2.614767
2.667269
2.667081
2.667269
2.63033
2.63033
2.345134
1.944997
1.563985
1.271289
1.2396
1.236975
1.2366
1.2366
1.2456
1.2456
1.434044
1.860807
2.269944
2.617205
2.667269
2.667269
2.667269
2.642143
2.367635
2.367635
1.95981
1.579361
1.285727
1.238475
1.2366
1.2366
1.2366
1.240538
1.240538
1.386042
1.820868
2.252881
2.626205
2.667081
2.666894
2.666894
2.659394
2.423887
2.423887
1.983998
1.55236
1.263789
1.23735
1.2366
1.236413
1.2366
1.237913
1.334478
1.334478
1.764804
2.22138
2.63558
2.667081
2.666706
2.666894
2.667269
2.491388
2.045875
2.045875
1.603736
1.277851
1.23735
1.2366
1.2366
1.2366
1.237913
1.333166
1.777742
1.777742
2.261507
2.63483
2.666894
2.666706
2.666706
2.667269
2.538265
2.099689
1.647238
1.647238
1.292664
1.23735
1.2366
1.236413
1.2366
1.237163
1.31404
1.748491
1.748491
2.246131
2.639893
2.666894
2.666519
2.666519
2.666894
2.587579
2.147691
1.695427
1.695427
1.31029
1.237913
1.2366
1.236413
1.236413
1.236975
1.289477
1.700864
2.210692
2.210692
2.629955
2.666706
2.666519
2.666706
2.666894
2.596017
2.178254
1.693177
1.307477
1.307477
1.237725
1.2366
1.236788
1.236788
1.236788
1.284039
1.698614
2.195692
2.625643
2.625643
2.666894
2.666519
2.666519
2.667081
2.629205
2.263381
1.777179
1.358854
1.239038
1.239038
1.2366
1.236788
1.2366
1.236975
1.286664
1.679489
2.206942
2.631455
2.631455
2.666894
2.666519
2.666519
2.652831
2.321133
1.826306
1.388105
1.240163
1.2366
1.2366
1.2366
1.2366
1.236975
1.280664
1.665426
2.195504
2.625455
2.666894
2.666519
2.666331
2.666331
2.666894
2.654144
2.362572
1.869432
1.429356
1.242225
1.2366
1.2366
1.2366
1.2366
1.236788
1.278414
1.64705
2.179941
2.611767
2.666894
2.666519
2.666331
2.666331
2.666706
2.662206
2.407948
1.913871
1.472107
1.246163
1.236788
1.2366
1.2366
1.2366
1.2366
1.265476
1.597174
2.113002
2.568078
2.667269
2.666519
2.666519
2.666706
2.666706
2.662769
2.414136
1.933559
1.488045
1.248413
1.237163
1.2366
1.2366
1.236975
1.236975
1.265289
1.598486
2.114127
2.562078
2.667081
2.666519
2.666519
2.666519
2.667456
2.667456
2.475451
1.996748
1.543547
1.252726
1.236788
1.236788
1.236788
1.2366
1.2366
1.237538
1.313665
1.737615
2.177316
2.540515
2.667644
2.667456
2.63108
2.356197
2.356197
2.019249
1.769491
1.420731
1.240163
1.2366
1.236788
1.2366
1.2366
1.295665
1.295665
1.820681
2.4582
2.667081
2.666519
2.665956
2.665956
2.666331
2.666706
2.650018
2.650018
2.300695
1.838119
1.422793
1.246163
1.237163
1.236413
1.236975
1.263039
1.555923
1.555923
2.045875
2.497576
2.667081
2.666706
2.666519
2.666706
2.667456
2.433449
1.936372
1.936372
1.474732
1.244851
1.236788
1.236788
1.2366
1.2366
1.238475
1.382667
1.382667
1.88837
2.382073
2.663144
2.666706
2.666706
2.666706
2.667269
2.46045
1.987936
1.987936
1.528734
1.251038
1.2366
1.2366
1.2366
1.2366
1.238475
1.371229
1.871495
1.871495
2.375885
2.664456
2.666894
2.666519
2.666706
2.667081
2.509764
2.035
1.572235
1.572235
1.262664
1.236975
1.2366
1.236413
1.236413
1.238288
1.362979
1.853119
2.354697
2.354697
2.657331
2.666894
2.666706
2.666706
2.667081
2.535827
2.074938
1.603736
1.273539
1.273539
1.237163
1.236413
1.2366
1.236413
1.238288
1.352854
1.831368
2.336696
2.336696
2.653206
2.666894
2.666331
2.666519
2.666894
2.557578
2.107939
1.637675
1.282352
1.282352
1.23735
1.2366
1.2366
1.236413
1.237725
1.336728
1.808118
2.30932
2.652456
2.652456
2.666706
2.666706
2.666519
2.667081
2.566016
2.12144
1.6463
1.292102
1.237725
1.237725
1.236413
1.2366
1.236413
1.237725
1.321353
1.769866
2.269007
2.643831
2.666894
2.666894
2.666519
2.666706
2.667081
2.584204
2.147878
1.677614
1.30429
1.237725
1.2366
1.2366
1.236788
1.236413
1.236975
1.30204
1.72899
2.225693
2.629393
2.666894
2.666894
2.666706
2.666706
2.667081
2.585704
2.157441
1.675739
1.302227
1.237725
1.2366
1.2366
1.236788
1.2366
1.236975
1.281039
1.675176
2.169816
2.613267
2.667081
2.666706
2.666706
2.666894
2.667269
2.579891
2.151253
1.670488
1.29829
1.23735
1.2366
1.236788
1.236788
1.236788
1.236788
1.258351
1.605611
2.103439
2.568828
2.667269
2.666706
2.666706
2.666706
2.667269
2.563578
2.118252
1.640863
1.284414
1.236975
1.2366
1.2366
1.2366
1.2366
1.2366
1.248601
1.554235
2.059375
2.54614
2.667081
2.666894
2.666519
2.666519
2.667081
2.570516
2.14094
1.659988
1.29454
1.237163
1.2366
1.236788
1.236975
1.236975
1.236788
1.246538
1.530047
2.034625
2.520827
2.667081
2.666894
2.666894
2.666894
2.666894
2.589829
2.175254
1.704239
1.321353
1.237725
1.2366
1.2366
1.236788
1.236413
1.236413
1.248788
1.544485
2.051125
2.535827
2.667269
2.666706
2.666706
2.667081
2.630893
2.630893
2.272007
1.794805
1.383792
1.239975
1.2366
1.236413
1.2366
1.236788
1.236788
1.258913
1.585736
2.090876
2.560391
2.667081
2.666519
2.666331
2.666894
2.653018
2.653018
2.362572
1.88762
1.457107
1.245788
1.236788
1.2366
1.2366
1.236788
1.263226
1.263226
1.592486
2.109252
2.572579
2.667081
2.666706
2.666519
2.666706
2.661081
2.423512
2.423512
1.929996
1.490671
1.250101
1.236975
1.2366
1.2366
1.236788
1.260226
1.568485
1.568485
2.081126
2.545015
2.667081
2.666519
2.666519
2.666706
2.662769
2.427449
2.427449
1.953997
1.503421
1.250476
1.236975
1.236788
1.2366
1.2366
1.248976
1.519171
1.519171
2.033875
2.511639
2.667081
2.666706
2.666519
2.666894
2.667269
2.444512
1.964872
1.964872
1.515421
1.251788
1.236975
1.2366
1.2366
1.2366
1.2456
1.48992
2.004436
2.004436
2.483326
2.667081
2.666519
2.666519
2.666706
2.667456
2.447512
1.973123
1.526672
1.526672
1.253663
1.236975
1.2366
1.236413
1.2366
1.242413
1.448107
1.96131
2.44545
2.44545
2.667269
2.666519
2.666519
2.666706
2.667269
2.466075
1.993561
1.539984
1.539984
1.256851
1.236975
1.2366
1.2366
1.2366
1.241475
1.425606
1.933371
2.422761
2.422761
2.667269
2.666706
2.666519
2.666706
2.667456
2.478451
2.010062
1.561923
1.259288
1.259288
1.237163
1.2366
1.236413
1.2366
1.240725
1.402543
1.906746
2.398761
2.663331
2.663331
2.666894
2.666706
2.666331
2.667269
2.505076
2.03725
1.585923
1.268101
1.237538
1.237538
1.236788
1.2366
1.2366
1.239413
1.39073
1.876182
2.368385
2.660144
2.666894
2.666894
2.666519
2.666706
2.667269
2.533765
2.068376
1.613299
1.275976
1.237538
1.237538
1.2366
1.236413
1.2366
1.239038
1.371229
1.848056
2.343446
2.659769
2.667081
2.667081
2.666519
2.666519
2.667269
2.547265
2.099501
1.6463
1.289289
1.237725
1.2366
1.2366
1.2366
1.2366
1.238288
1.346854
1.824056
2.314571
2.653018
2.666894
2.666706
2.666706
2.666706
2.667081
2.567516
2.133253
1.667488
1.300915
1.237913
1.236413
1.2366
1.2366
1.2366
1.2381
1.340853
1.801555
2.289445
2.650206
2.666894
2.666706
2.666706
2.666519
2.667081
2.584954
2.157816
1.689614
1.314415
1.2381
1.236788
1.2366
1.2366
1.2366
1.237725
1.322103
1.765554
2.258506
2.639706
2.666894
2.666519
2.666519
2.666519
2.667081
2.596767
2.181629
1.710052
1.32304
1.238475
1.236413
1.236225
1.236413
1.236413
1.23735
1.305227
1.730678
2.22063
2.633143
2.667081
2.666519
2.666519
2.666894
2.666894
2.614017
2.213318
1.732178
1.340853
1.239225
1.2366
1.2366
1.236413
1.236975
1.236975
1.291914
1.699927
2.199442
2.624518
2.666894
2.666706
2.666519
2.666894
2.666894
2.614017
2.222505
1.747928
1.352104
1.239038
1.236788
1.2366
1.2366
1.236975
1.236975
1.286289
1.676864
2.172629
2.614955
2.667081
2.666706
2.666706
2.667081
2.623393
2.623393
2.244256
1.763491
1.345353
1.239038
1.2366
1.2366
1.2366
1.2366
1.256663
1.256663
1.594549
2.095376
2.559078
2.667081
2.666706
2.666706
2.667081
2.615892
2.230006
2.230006
1.749991
1.350604
1.238663
1.2366
1.2366
1.236788
1.2366
1.259101
1.591174
1.591174
2.100814
2.567516
2.667081
2.666706
2.666519
2.666894
2.639518
2.301633
2.301633
1.828556
1.40273
1.2411
1.236788
1.236788
1.2366
1.2366
1.258726
1.580673
1.580673
2.083189
2.552328
2.667081
2.666706
2.666519
2.666894
2.644393
2.327321
1.844306
1.241288
1.241288
1.2366
1.2366
1.236788
1.236788
1.251601
1.55086
2.051687
2.53639
2.667081
2.667081
2.666519
2.666519
2.666894
2.650956
2.366135
1.875995
1.446607
1.245038
1.236975
1.236975
1.2366
1.2366
1.2366
1.248788
1.514671
2.030874
2.521389
2.667269
2.666519
2.666519
2.666519
2.666706
2.656769
2.387885
1.902058
1.463107
1.246351
1.236975
1.236975
1.2366
1.236413
1.236788
1.246538
1.491233
2.011374
2.495514
2.667269
2.666706
2.666706
2.666706
2.666894
2.661081
2.424636
1.938809
1.500983
1.250101
1.236788
1.2366
1.2366
1.236788
1.2366
1.244851
1.478483
2.006499
2.493639
2.667081
2.666706
2.666519
2.666519
2.666706
2.649268
2.323008
1.796117
1.339166
1.23735
1.236788
1.236975
1.23735
1.23735
1.237163
1.236413
1.250101
1.598486
2.317571
2.667269
2.666706
2.666706
2.666706
2.666894
2.644206
2.380385
2.009311
1.702364
1.517109
1.401418
1.291914
1.249913
1.249913
1.251413
1.386042
1.756366
2.255131
2.61683
2.666706
2.666519
2.666331
2.666331
2.666331
2.667081
2.573704
2.119002
1.64705
1.283289
1.237725
1.2366
1.2366
1.2366
1.2366
1.2381
1.346291
1.818431
2.300133
2.645518
2.666894
2.666894
2.666706
2.659581
2.659581
2.400261
1.938434
1.487295
1.245788
1.2366
1.2366
1.236788
1.236788
1.237163
1.237163
1.315165
1.770617
2.261882
2.640831
2.667081
2.666894
2.666894
2.662769
2.662769
2.425761
1.965998
1.509796
1.249913
1.236788
1.2366
1.236788
1.236413
1.237538
1.237538
1.317228
1.762179
2.245006
2.631643
2.666894
2.666706
2.666894
2.667269
2.460075
2.460075
1.987936
1.533234
1.253288
1.236788
1.236413
1.2366
1.236788
1.236975
1.29904
1.29904
1.738928
2.238256
2.630518
2.666894
2.666706
2.666894
2.667269
2.486701
2.023749
2.023749
1.566048
1.260976
1.236788
1.236788
1.2366
1.2366
1.236975
1.287414
1.70724
1.70724
2.190817
2.617955
2.666894
2.666894
2.666894
2.667456
2.506389
2.05375
2.05375
1.591736
1.265289
1.236975
1.2366
1.2366
1.2366
1.236788
1.274476
1.671801
1.671801
2.153691
2.597142
2.667081
2.666706
2.666706
2.667456
2.507701
2.05825
1.592674
1.592674
1.268101
1.236788
1.2366
1.236788
1.2366
1.236788
1.262476
1.623425
2.114315
2.114315
2.572391
2.667081
2.666706
2.666894
2.667456
2.519139
2.068376
1.602799
1.271289
1.271289
1.236975
1.2366
1.236788
1.236788
1.236788
1.253288
1.587611
2.076813
2.076813
2.55214
2.667081
2.666894
2.666894
2.667081
2.512202
2.070626
1.586861
1.268476
1.268476
1.236788
1.236788
1.236788
1.236788
1.2366
1.245788
1.527984
2.017936
2.503014
2.503014
2.667269
2.666894
2.667081
2.667456
2.501514
2.051312
1.576923
1.262476
1.236975
1.236975
1.236788
1.236975
1.236975
1.236788
1.240725
1.45992
1.942372
2.445075
2.660144
2.660144
2.666894
2.667081
2.667456
2.487826
2.038375
1.565298
1.257413
1.2366
1.2366
1.2366
1.236788
1.236975
1.2366
1.239413
1.427106
1.911246
2.408136
2.658081
2.658081
2.666894
2.666894
2.667269
2.505451
2.06725
1.594924
1.266414
1.236788
1.2366
1.2366
1.236975
1.236975
1.2366
1.238663
1.402168
1.887245
2.394823
2.653581
2.666894
2.666894
2.666894
2.667269
2.545578
2.124253
1.655488
1.294727
1.237163
1.2366
1.236975
1.236975
1.236975
1.2366
1.240538
1.439481
1.937497
2.438699
2.665206
2.666706
2.666706
2.666706
2.667081
2.621893
2.242943
1.773804
1.362229
1.239038
1.2366
1.2366
1.2366
1.236788
1.236413
1.245038
1.482233
1.990748
2.485013
2.667269
2.667081
2.666519
2.666519
2.666894
2.644393
2.338384
1.860619
1.431794
1.242975
1.236788
1.236788
1.2366
1.2366
1.2366
1.245225
1.491608
1.999186
2.4642
2.667456
2.666706
2.666894
2.666894
2.666894
2.649081
2.370072
1.903183
1.464795
1.244288
1.236788
1.2366
1.2366
1.2366
1.2366
1.242975
1.454857
1.96581
2.449762
2.667081
2.666894
2.666519
2.666894
2.655456
2.655456
2.376072
1.906746
1.465357
1.244288
1.236788
1.2366
1.2366
1.2366
1.2366
1.240163
1.411918
1.912746
2.401198
2.663706
2.666894
2.666706
2.666894
2.654706
2.654706
2.385073
1.913121
1.466295
1.244663
1.236788
1.2366
1.2366
1.2366
1.239038
1.239038
1.381355
1.871495
2.353759
2.654706
2.666706
2.666706
2.666894
2.656956
2.392761
2.392761
1.920434
1.476983
1.245038
1.236788
1.2366
1.236788
1.236788
1.2381
1.346291
1.346291
1.824618
2.319071
2.651331
2.666894
2.666706
2.666894
2.660331
2.415449
1.939934
1.939934
1.48542
1.245788
1.2366
1.2366
1.236975
1.2366
1.237725
1.335041
1.335041
1.79368
2.293945
2.644206
2.666894
2.666894
2.667081
2.665206
2.441137
1.965998
1.965998
1.539047
1.253101
1.236788
1.236788
1.236975
1.2366
1.23735
1.319853
1.775867
1.775867
2.259819
2.638956
2.666894
2.666706
2.666894
2.667456
2.467013
2.008749
1.554235
1.554235
1.259663
1.236788
1.236788
1.2366
1.236788
1.23735
1.308227
1.745491
2.244069
2.244069
2.638393
2.666706
2.666519
2.666894
2.667269
2.490263
2.025812
1.564548
1.262101
1.262101
1.236975
1.2366
1.2366
1.2366
1.23735
1.29529
1.724115
2.220255
2.220255
2.629205
2.667081
2.666706
2.666894
2.667081
2.503201
2.049625
1.594174
1.271101
1.271101
1.237163
1.2366
1.236975
1.2366
1.236788
1.292477
1.697677
2.171691
2.614392
2.614392
2.666894
2.666706
2.666519
2.667269
2.527577
2.080751
1.610674
1.277476
1.237163
1.237163
1.2366
1.236788
1.2366
1.236788
1.275039
1.662801
2.153503
2.607455
2.667269
2.667269
2.666706
2.666894
2.667081
2.535827
2.109252
1.63355
1.287789
1.237538
1.237538
1.2366
1.2366
1.2366
1.236788
1.266601
1.632237
2.122565
2.583079
2.667081
2.667081
2.666894
2.666706
2.667081
2.554015
2.122752
1.646488
1.295102
1.237538
1.2366
1.2366
1.2366
1.2366
1.2366
1.256851
1.591549
2.069501
2.542578
2.667081
2.666894
2.666894
2.666894
2.667269
2.509952
2.076438
1.620049
1.285727
1.23735
1.2366
1.236975
1.236975
1.236975
1.2366
1.250288
1.548985
2.027312
2.496639
2.667081
2.666894
2.666894
2.666894
2.667269
2.52814
2.108877
1.655676
1.303915
1.237725
1.236413
1.2366
1.2366
1.236788
1.236788
1.252351
1.543547
2.018874
2.481451
2.667456
2.666894
2.666894
2.666894
2.667269
2.53489
2.125377
1.680051
1.319665
1.2381
1.2366
1.236788
1.2366
1.2366
1.2366
1.248976
1.511859
1.97781
2.443387
2.659956
2.667081
2.667269
2.667456
2.667456
2.521202
2.137378
1.707427
1.344229
1.239788
1.2366
1.236413
1.2366
1.236788
1.236788
1.254788
1.512609
1.924934
2.315133
2.598454
2.667456
2.667644
2.637455
2.637455
2.401011
2.042875
1.667301
1.337666
1.24035
1.236788
1.2366
1.236413
1.236788
1.236788
1.248976
1.465732
1.86887
2.252506
2.547078
2.667456
2.667456
2.616642
2.381885
2.381885
2.030874
1.662801
1.341791
1.240725
1.2366
1.2366
1.2366
1.246913
1.440981
1.836431
1.836431
2.21988
2.527015
2.664644
2.667456
2.618517
2.385823
2.054875
1.698427
1.698427
1.371604
1.243351
1.237163
1.236788
1.2366
1.2366
1.2396
1.323415
1.652675
1.652675
1.975185
2.250069
2.443574
2.399886
2.243693
1.926996
1.578798
1.268101
1.236788
1.236788
1.2366
1.236788
1.2366
1.2366
1.2366
1.23735
1.271664
1.669738
2.124815
2.124815
2.529827
2.667081
2.666894
2.667269
2.646081
2.381698
2.010436
1.654738
1.345916
1.345916
1.246351
1.238475
1.23735
1.238475
1.269601
1.501546
1.855744
2.184817
2.501514
2.501514
2.648331
2.665394
2.597892
2.375885
2.018499
1.63805
1.315728
1.238663
1.238663
1.2366
1.236788
1.2366
1.2366
1.23735
1.282539
1.620237
1.984373
2.315133
2.315133
2.566953
2.612517
2.554578
2.323008
1.991873
1.636175
1.32304
1.239413
1.2366
1.2366
1.2366
1.236788
1.236413
1.237538
1.281227
1.610487
1.97406
2.313633
2.561516
2.561516
2.617205
2.569016
2.348134
2.030874
1.680239
1.349291
1.240725
1.236788
1.2366
1.2366
1.236788
1.2366
1.237538
1.279727
1.597549
1.96581
2.30632
2.562641
2.562641
2.624892
2.582704
2.37551
2.0515
1.705552
1.369542
1.242038
1.236975
1.2366
1.2366
1.2366
1.236413
1.23735
1.270164
1.578423
1.943122
2.28907
2.54539
2.620393
2.620393
2.583829
2.387698
2.075126
1.723928
1.385292
1.243538
1.236975
1.2366
1.2366
1.2366
1.2366
1.237163
1.268664
1.565298
1.932809
2.281382
2.54464
2.617767
2.585704
2.585704
2.404011
2.095564
1.749991
1.40798
1.2456
1.236975
1.2366
1.2366
1.2366
1.2366
1.236975
1.260601
1.551047
1.89887
2.261319
2.52514
2.612705
2.590954
2.590954
2.413949
2.109439
1.765179
1.413231
1.246163
1.237163
1.236788
1.236788
1.2366
1.2366
1.236788
1.257038
1.517859
1.877495
2.235631
2.507514
2.613642
2.600142
2.434387
2.434387
2.127627
1.783367
1.438356
1.250476
1.236975
1.2366
1.2366
1.2366
1.236975
1.236975
1.252163
1.497608
1.862494
2.225693
2.495514
2.61983
2.602579
2.44245
2.141128
2.141128
1.799867
1.449794
1.250663
1.237163
1.2366
1.236788
1.2366
1.2366
1.2366
1.246538
1.458982
1.818431
2.181817
2.45745
2.587391
2.575016
2.424824
2.132128
2.132128
1.779242
1.425981
1.247476
1.236975
1.2366
1.236788
1.2366
1.236413
1.241288
1.241288
1.405918
1.764241
2.133253
2.411886
2.560391
2.556266
2.417136
2.12894
1.790492
1.790492
1.437231
1.248601
1.236975
1.2366
1.2366
1.236788
1.236788
1.240913
1.387355
1.387355
1.735553
2.104939
2.386948
2.547828
2.552328
2.413386
2.134378
1.800992
1.444169
1.444169
1.251976
1.236975
1.2366
1.236788
1.236788
1.236413
1.239975
1.370292
1.370292
1.732928
2.105314
2.398761
2.569953
2.577454
2.461388
2.190817
1.862682
1.517296
1.517296
1.270539
1.237538
1.236788
1.236788
1.2366
1.2366
1.2426
1.404418
1.778867
1.778867
2.142815
2.442262
2.60558
2.606517
2.541265
2.273694
1.943309
1.590799
1.304477
1.304477
1.239038
1.236788
1.2366
1.2366
1.236788
1.245413
1.430856
1.812805
2.175629
2.175629
2.47395
2.599767
2.629955
2.581954
2.325071
1.999374
1.648925
1.338041
1.338041
1.2411
1.236975
1.2366
1.2366
1.236788
1.245038
1.421293
1.804555
2.159503
2.159503
2.456512
2.591892
2.60858
2.580829
2.344759
2.012874
1.652113
1.342916
1.240913
1.240913
1.236975
1.2366
1.2366
1.2366
1.243351
1.394293
1.766679
2.131002
2.436825
2.436825
2.595829
2.604079
2.582329
2.348884
2.019437
1.665426
1.355666
1.241475
1.236788
1.236788
1.2366
1.2366
1.236788
1.241663
1.364479
1.735553
2.091251
2.404198
2.600892
2.600892
2.596767
2.584391
2.349072
2.027312
1.678926
1.360354
1.241663
1.2366
1.2366
1.2366
1.2366
1.236788
1.240163
1.336916
1.70649
2.071001
2.389198
2.597329
2.597329
2.603142
2.577266
2.358072
2.031625
1.680239
1.354354
1.241288
1.236788
1.2366
1.2366
1.2366
1.2366
1.239038
1.32454
1.684176
2.04325
2.371572
2.593204
2.594141
2.594141
2.583454
2.374573
2.061438
1.703864
1.374042
1.242788
1.236788
1.2366
1.236413
1.236413
1.2366
1.239038
1.319478
1.665613
2.023749
2.362947
2.588517
2.604455
2.591516
2.591516
2.390136
2.074001
1.72299
1.394293
1.244475
1.236975
1.236788
1.2366
1.2366
1.2366
1.238475
1.307477
1.6508
2.010811
2.359385
2.576141
2.593767
2.599579
2.599579
2.418261
2.098377
1.753366
1.426544
1.248226
1.237163
1.2366
1.236788
1.2366
1.2366
1.2381
1.29754
1.630175
1.992248
2.338384
2.568266
2.599017
2.604267
2.435699
2.435699
2.124065
1.770429
1.430856
1.250101
1.23735
1.2366
1.2366
1.2366
1.2381
1.2381
1.290602
1.62155
1.98006
2.329571
2.559828
2.596954
2.594704
2.4492
2.142066
2.142066
1.797992
1.454669
1.251788
1.23735
1.2366
1.2366
1.236413
1.237725
1.237725
1.282539
1.595111
1.961872
2.30332
2.55589
2.597704
2.601267
2.469075
2.170004
2.170004
1.827056
1.480733
1.259663
1.237913
1.2366
1.2366
1.2366
1.237538
1.276726
1.276726
1.587799
1.938997
2.303508
2.548953
2.601642
2.61233
2.487826
2.190817
1.856494
1.856494
1.494608
1.263226
1.237725
1.2366
1.2366
1.236413
1.237163
1.268476
1.55836
1.55836
1.927934
2.292258
2.539202
2.594329
2.602392
2.495514
2.19963
1.860057
1.860057
1.511859
1.267351
1.237725
1.2366
1.2366
1.2366
1.236975
1.257226
1.512046
1.512046
1.873557
2.236006
2.514077
2.596017
2.60483
2.470575
2.176191
1.835306
1.480545
1.480545
1.260788
1.237538
1.2366
1.236788
1.2366
1.236975
1.251226
1.479233
1.860057
1.860057
2.225505
2.502076
2.604079
2.610267
2.502639
2.222318
1.891183
1.54261
1.281039
1.281039
1.238288
1.236788
1.2366
1.236788
1.237163
1.252163
1.488233
1.857432
1.857432
2.221943
2.504514
2.595454
2.599954
2.539765
2.261694
1.923621
1.571673
1.295477
1.295477
1.23885
1.2366
1.2366
1.2366
1.236975
1.250851
1.475108
1.848994
2.22288
2.22288
2.497576
2.597704
2.603517
2.554578
2.28457
1.947809
1.594549
1.308602
1.239413
1.239413
1.236788
1.2366
1.2366
1.236975
1.248601
1.457107
1.826493
2.202067
2.494201
2.494201
2.601267
2.598642
2.572016
2.306883
1.953247
1.619487
1.321353
1.2396
1.236788
1.236788
1.2366
1.2366
1.236975
1.246538
1.431794
1.818806
2.181067
2.474888
2.474888
2.604642
2.605392
2.574829
2.319258
1.995436
1.643675
1.332603
1.239975
1.236975
1.236975
1.2366
1.2366
1.236788
1.247288
1.436481
1.824806
2.186317
2.469075
2.600704
2.600704
2.620955
2.593579
2.356009
2.034437
1.698614
1.376667
1.242788
1.236975
1.236788
1.236788
1.236788
1.236788
1.236788
1.259288
1.496108
1.790117
2.05
2.201317
2.215755
2.215755
2.080376
1.79443
1.502296
1.292102
1.255163
1.238663
1.2366
1.236975
1.236975
1.236788
1.242975
1.461232
2.004061
2.487263
2.667456
2.667081
2.666894
2.667081
2.633143
2.633143
2.369885
1.996936
1.637487
1.347791
1.246538
1.238288
1.237163
1.237725
1.254413
1.254413
1.454669
1.820681
2.152003
2.429324
2.600142
2.61083
2.55214
2.299195
1.970123
1.970123
1.615737
1.310103
1.239038
1.236788
1.236788
1.2366
1.2366
1.237725
1.293414
1.293414
1.64405
1.98231
2.343071
2.566203
2.607642
2.535265
2.309883
2.003311
1.633737
1.633737
1.323978
1.239788
1.236788
1.236413
1.2366
1.2366
1.237725
1.293414
1.293414
1.627175
1.987561
2.315883
2.562828
2.614205
2.565828
2.353384
2.035
1.674614
1.674614
1.357541
1.242038
1.236975
1.2366
1.2366
1.2366
1.237725
1.287789
1.613112
1.613112
1.969185
2.313071
2.568078
2.614955
2.582516
2.378885
2.067438
1.710427
1.378167
1.378167
1.245038
1.236975
1.2366
1.236788
1.2366
1.237538
1.284414
1.612737
1.966747
1.966747
2.319258
2.55439
2.61233
2.599017
2.382448
2.104752
1.740616
1.402918
1.247288
1.247288
1.236975
1.2366
1.2366
1.236413
1.23735
1.276351
1.582923
1.948747
1.948747
2.297132
2.544453
2.612517
2.601642
2.412074
2.114315
1.773429
1.39598
1.252351
1.252351
1.23735
1.2366
1.2366
1.2366
1.237163
1.264914
1.563423
1.929809
2.272944
2.272944
2.53714
2.61308
2.598642
2.443199
2.12294
1.775492
1.425418
1.248413
1.237163
1.237163
1.2366
1.236413
1.2366
1.237163
1.261726
1.543547
1.896245
2.268632
2.51614
2.51614
2.606142
2.606892
2.426699
2.133065
1.791805
1.435169
1.249163
1.236975
1.236975
1.2366
1.2366
1.236788
1.236975
1.254226
1.498733
1.871682
2.21463
2.479951
2.479951
2.602392
2.585516
2.421824
2.156316
1.776804
1.431794
1.249351
1.236975
1.236788
1.236788
1.236788
1.2366
1.236788
1.243725
1.428231
1.79668
2.164379
2.439637
2.591329
2.591329
2.534515
2.390698
2.087126
1.747741
1.390918
1.243351
1.236788
1.236788
1.2366
1.2366
1.236788
1.2366
1.242038
1.399543
1.750741
2.110377
2.390136
2.528702
2.533015
2.533015
2.394448
2.107564
1.771367
1.415106
1.244663
1.236788
1.236788
1.236788
1.236788
1.236788
1.2366
1.240725
1.368979
1.745678
2.112064
2.390136
2.542015
2.546703
2.546703
2.401761
2.13194
1.793305
1.440419
1.247663
1.237163
1.2366
1.236788
1.236788
1.236788
1.236788
1.24185
1.384542
1.744928
2.105314
2.406449
2.602392
2.598829
2.465138
2.465138
2.208255
1.867745
1.527609
1.253288
1.23885
1.2366
1.236788
1.2366
1.236788
1.236788
1.245038
1.424106
1.80868
2.173941
2.46795
2.592267
2.594892
2.556828
2.30182
2.30182
1.962997
1.606174
1.32004
1.2396
1.236788
1.2366
1.2366
1.236788
1.248601
1.248601
1.448107
1.827056
2.193067
2.489701
2.607642
2.62283
2.577266
2.334071
2.334071
2.009311
1.656988
1.346854
1.241288
1.236975
1.236413
1.2366
1.236788
1.247288
1.247288
1.439856
1.814493
2.173941
2.478451
2.622267
2.657519
2.580641
2.353572
2.025624
2.025624
1.674426
1.362417
1.242225
1.236788
1.2366
1.2366
1.236788
1.244851
1.39823
1.39823
1.784492
2.148253
2.447325
2.602392
2.605205
2.573891
2.344947
2.021874
1.677614
1.677614
1.357916
1.241475
1.2366
1.2366
1.2366
1.2366
1.2426
1.380417
1.380417
1.745303
2.106439
2.418636
2.593392
2.62208
2.585704
2.364447
2.033687
1.687551
1.687551
1.362604
1.242975
1.237163
1.2366
1.236413
1.236788
1.240538
1.356791
1.72674
1.72674
2.086564
2.410198
2.595642
2.592267
2.581766
2.367072
2.044937
1.690739
1.372542
1.372542
1.242225
1.236788
1.2366
1.2366
1.2366
1.239975
1.322665
1.703302
2.059938
2.059938
2.381698
2.591704
2.605205
2.597704
2.387885
2.068001
1.722428
1.394293
1.2456
1.2456
1.236975
1.236788
1.236788
1.2366
1.239225
1.321353
1.680426
2.042312
2.042312
2.37626
2.581579
2.592079
2.603142
2.402323
2.095564
1.750554
1.397293
1.246726
1.246726
1.236975
1.236788
1.2366
1.236788
1.23885
1.301477
1.673114
2.020749
