7.0
1.743428
1.688864
1.688864
1.643113
1.569798
1.513921
1.551985
1.479608
1.439856
1.449232
1.488045
1.545985
1.545985
1.624925
1.681926
1.764616
1.826681
1.738553
1.716052
1.672176
1.620799
1.577298
1.577298
1.506421
1.450544
1.484858
1.418481
1.374979
1.39448
1.429169
1.483733
1.567548
1.567548
1.62755
1.705739
1.773617
1.696364
1.683614
1.640675
1.590799
1.549547
1.482233
1.482233
1.422981
1.453732
1.404418
1.365979
1.405543
1.459545
1.546922
1.604299
1.683051
1.766117
1.766117
1.690552
1.673114
1.645738
1.595674
1.553297
1.490108
1.429544
1.459357
1.459357
1.416606
1.363167
1.385667
1.430856
1.47792
1.570548
1.6328
1.712677
1.81468
1.81468
1.742491
1.730865
1.708365
1.661301
1.628675
1.56736
1.516921
1.54486
1.507733
1.507733
1.455044
1.472482
1.516921
1.573923
1.671614
1.747366
1.814305
1.931121
1.864932
1.864932
1.842431
1.819743
1.777554
1.73349
1.683989
1.628862
1.640112
1.619487
1.55461
1.55461
1.57261
1.607112
1.654926
1.746428
1.814305
1.87262
1.995998
1.923621
1.892683
1.892683
1.865869
1.825556
1.784305
1.72824
1.662988
1.667301
1.656051
1.578986
1.578986
1.596236
1.625862
1.674614
1.750928
1.826681
1.888558
1.995061
1.935434
1.89662
1.89662
1.87187
1.829306
1.780742
1.724303
1.661113
1.667863
1.659426
1.581236
1.593986
1.593986
1.626612
1.674426
1.754116
1.815805
1.88387
1.984186
1.946684
1.905808
1.878057
1.878057
1.826868
1.785617
1.733678
1.664488
1.662238
1.655488
1.564548
1.575611
1.605236
1.605236
1.650613
1.73049
1.800805
1.863807
1.960747
1.935997
1.877682
1.857244
1.857244
1.820118
1.772867
1.72299
1.653988
1.629425
1.655488
1.552735
1.564548
1.588548
1.588548
1.634487
1.705177
1.780367
1.848244
1.945184
1.932434
1.875432
1.852182
1.810555
1.810555
1.761054
1.719802
1.650988
1.629987
1.647988
1.553297
1.560798
1.591549
1.631862
1.631862
1.706302
1.781304
1.839431
1.942372
1.937122
1.88162
1.858182
1.818993
1.764054
1.764054
1.72974
1.652113
1.616674
1.646488
1.546172
1.549547
1.574861
1.620987
1.620987
1.690739
1.761804
1.827618
1.930559
1.936559
1.876182
1.857619
1.812618
1.764429
1.764429
1.723553
1.647425
1.610862
1.648363
1.549922
1.543735
1.567923
1.611424
1.681926
1.681926
1.749616
1.819931
1.919871
1.943497
1.875807
1.856119
1.818993
1.765366
1.72974
1.72974
1.664301
1.620424
1.655488
1.563985
1.552172
1.57036
1.615924
1.684364
1.766679
1.766679
1.832493
1.927371
1.949497
1.883307
1.865494
1.823681
1.774367
1.740241
1.740241
1.665988
1.617987
1.652488
1.569798
1.551985
1.574486
1.614987
1.673301
1.752241
1.752241
1.818618
1.907496
1.952122
1.873745
1.863432
1.826493
1.775867
1.739116
1.670301
1.670301
1.613674
1.659426
1.579548
1.557047
1.578048
1.617424
1.676489
1.763304
1.824618
1.824618
1.909183
1.982686
1.89662
1.86887
1.835681
1.781304
1.741553
1.680051
1.628675
1.628675
1.666363
1.592111
1.55461
1.57336
1.616112
1.666363
1.742116
1.810555
1.909746
1.909746
1.968998
1.876557
1.863432
1.827806
1.778117
1.734615
1.672364
1.612924
1.612924
1.648925
1.581236
1.536234
1.553485
1.597736
1.652113
1.728428
1.793867
1.883682
1.883682
1.959435
1.884058
1.869807
1.835494
1.784679
1.742116
1.678551
1.614612
1.630925
1.630925
1.578423
1.533422
1.551047
1.589111
1.639925
1.722428
1.775304
1.852931
1.939747
1.939747
1.857244
1.828368
1.794992
1.747553
1.711365
1.6508
1.582548
1.605236
1.561735
1.561735
1.511484
1.532484
1.568673
1.614424
1.70949
1.771367
1.846931
1.947997
1.947997
1.87112
1.852182
1.824431
1.783367
1.749803
1.686614
1.623425
1.631675
1.603924
1.603924
1.537172
1.551797
1.586298
1.6388
1.73649
1.806618
1.88012
1.97406
1.915371
1.915371
1.883682
1.854432
1.806993
1.764429
1.708177
1.63955
1.639925
1.62305
1.554047
1.554047
1.563985
1.599424
1.654738
1.72974
1.80268
1.868495
1.971248
1.915558
1.883682
1.883682
1.854057
1.81243
1.770429
1.715302
1.6493
1.652675
1.637675
1.556672
1.556672
1.56961
1.602237
1.64405
1.724303
1.787867
1.856682
1.97406
1.918559
1.880495
1.880495
1.859494
1.81618
1.775117
1.714177
1.653613
1.652113
1.650988
1.55686
1.570548
1.570548
1.593611
1.649675
1.725803
1.79293
1.859494
1.965247
1.935434
1.885558
1.855557
1.855557
1.812805
1.768742
1.720178
1.648738
1.634675
1.6538
1.558548
1.575986
1.602049
1.602049
1.641237
1.709115
1.770429
1.832493
1.946309
1.921184
1.875245
1.855932
1.855932
1.803243
1.740428
1.679676
1.593424
1.523109
1.513171
1.366167
1.344791
1.357354
1.357354
1.365042
1.398793
1.441544
1.498171
1.617612
1.590424
1.576923
1.716427
1.909933
1.909933
1.956622
1.888933
1.769866
1.738366
1.767429
1.774367
1.86887
2.04025
2.228881
2.228881
2.36726
2.410573
2.439262
2.521202
2.502076
2.410573
2.369322
2.319258
2.245569
2.245569
2.158753
2.055813
1.986436
1.97181
1.836244
1.805868
1.81393
1.815618
1.836619
1.836619
1.881995
1.921559
1.973685
1.967123
1.885745
1.853869
1.800242
1.741366
1.741366
1.699739
1.631675
1.585736
1.620612
1.511296
1.503608
1.524047
1.564923
1.634487
1.634487
1.702739
1.764804
1.845056
1.882745
1.809055
1.791055
1.749616
1.707427
1.662988
1.662988
1.596799
1.547672
1.593799
1.490108
1.489545
1.511296
1.55611
1.617987
1.702177
1.702177
1.757116
1.844306
1.882557
1.810368
1.791242
1.754304
1.703864
1.669176
1.602986
1.602986
1.551235
1.590236
1.507921
1.484483
1.504921
1.545985
1.614237
1.696177
1.696177
1.752053
1.836994
1.897745
1.820118
1.804555
1.764804
1.71474
1.676114
1.616299
1.616299
1.554985
1.597361
1.514859
1.490296
1.506046
1.550297
1.602986
1.687176
1.751116
1.751116
1.833431
1.897745
1.815055
1.796117
1.773804
1.725615
1.687364
1.62155
1.563798
1.563798
1.599424
1.536234
1.493108
1.511484
1.549547
1.606174
1.687739
1.745116
1.827806
1.827806
1.903183
1.812243
1.796492
1.763679
1.718865
1.671988
1.605049
1.55386
1.55386
1.580298
1.521046
1.476233
1.490483
1.529297
1.583298
1.666176
1.732928
1.805492
1.805492
1.888558
1.806055
1.78768
1.747928
1.698427
1.662988
1.584611
1.531922
1.560985
1.560985
1.512234
1.456544
1.470045
1.506608
1.554798
1.63805
1.698052
1.776429
1.865119
1.865119
1.791805
1.769304
1.739866
1.688114
1.63955
1.586673
1.524984
1.54486
1.495171
1.495171
1.439481
1.455419
1.486733
1.533234
1.62605
1.678739
1.747553
1.835118
1.763491
1.763491
1.73574
1.704239
1.658113
1.608799
1.54261
1.47342
1.48467
1.445857
1.445857
1.377042
1.38773
1.420543
1.45992
1.546735
1.609737
1.665988
1.760116
1.699364
1.699364
1.671801
1.634112
1.589298
1.542047
1.482045
1.412106
1.419043
1.40273
1.324353
1.324353
1.332041
1.362979
1.408355
1.494796
1.556298
1.622675
1.72899
1.670114
1.642363
1.642363
1.615549
1.570173
1.522171
1.469482
1.405168
1.40948
1.40123
1.322665
1.335041
1.335041
1.363729
1.40423
1.487483
1.557423
1.615924
1.726365
1.685114
1.655488
1.655488
1.629612
1.592299
1.545422
1.499671
1.436481
1.435356
1.448669
1.355479
1.372729
1.372729
1.401793
1.454857
1.546735
1.623987
1.698427
1.806055
1.785242
1.752241
1.731428
1.731428
1.698614
1.657551
1.614612
1.54786
1.545235
1.568673
1.46967
1.485983
1.519171
1.571298
1.65305
1.725803
1.794992
1.910496
1.885745
1.844869
1.822743
1.785804
1.737803
1.737803
1.697489
1.643863
1.620799
1.649863
1.548985
1.563423
1.592111
1.642738
1.712302
1.712302
1.791617
1.858557
1.964122
1.95756
1.903933
1.88012
1.839244
1.790117
1.742303
1.742303
1.674426
1.649675
1.678739
1.571298
1.579923
1.601674
1.644425
1.711927
1.79068
1.79068
1.857244
1.949497
1.956435
1.900183
1.87862
1.839056
1.785054
1.741741
1.741741
1.666363
1.623237
1.657551
1.558548
1.556485
1.583298
1.618924
1.695427
1.770804
1.770804
1.834743
1.936372
1.946872
1.888183
1.862682
1.821431
1.771742
1.731803
1.663738
1.663738
1.619487
1.652863
1.557797
1.548422
1.566985
1.611424
1.677801
1.753553
1.815055
1.815055
1.899621
1.932621
1.865119
1.842431
1.800992
1.754116
1.711177
1.639363
1.597736
1.597736
1.630362
1.537547
1.524047
1.545985
1.588923
1.6493
1.734991
1.79368
1.79368
1.878432
1.924559
1.850494
1.833243
1.794992
1.744741
1.702364
1.630925
1.581423
1.581423
1.618549
1.539047
1.515984
1.534734
1.578611
1.642363
1.72224
1.787492
1.869432
1.869432
1.918559
1.846181
1.826868
1.788055
1.744178
1.706115
1.638238
1.579923
1.618924
1.618924
1.55011
1.515609
1.533984
1.575798
1.624737
1.713052
1.775679
1.863057
1.928121
1.928121
1.851807
1.834743
1.798742
1.751116
1.709115
1.642738
1.591174
1.625862
1.56586
1.56586
1.523672
1.540547
1.578986
1.634862
1.727303
1.785054
1.857807
1.945934
1.945934
1.856682
1.839056
1.808305
1.763866
1.71549
1.6478
1.593799
1.626237
1.570735
1.570735
1.533047
1.54861
1.584236
1.634487
1.729365
1.79143
1.862682
1.948934
1.868119
1.868119
1.856494
1.819555
1.772867
1.725428
1.666738
1.607299
1.631487
1.578048
1.531734
1.531734
1.54636
1.581611
1.632612
1.722053
1.790867
1.859869
1.953247
1.878432
1.856682
1.856682
1.822368
1.777929
1.732928
1.673114
1.616299
1.628112
1.587799
1.524796
1.524796
1.541484
1.580673
1.626987
1.712865
1.782242
1.846181
1.941622
1.877682
1.853119
1.853119
1.820868
1.777742
1.738366
1.678551
1.620612
1.627175
1.598299
1.530797
1.543735
1.543735
1.582548
1.629237
1.70949
1.772679
1.841869
1.951184
1.88162
1.849931
1.819368
1.819368
1.773054
1.733303
1.676864
1.612924
1.611987
1.603549
1.520296
1.533984
1.566235
1.566235
1.614799
1.698989
1.762366
1.831556
1.935809
1.885182
1.846369
1.811305
1.811305
1.760116
1.71399
1.659613
1.590799
1.598299
1.595861
1.491796
1.507359
1.542235
1.542235
1.584611
1.658488
1.725803
1.789367
1.903558
1.859307
1.818806
1.79743
1.755241
1.755241
1.707052
1.656426
1.593986
1.586298
1.598486
1.509796
1.520671
1.555735
1.605799
1.605799
1.680614
1.750741
1.81693
1.933559
1.905246
1.856494
1.828556
1.789742
1.743428
1.743428
1.695427
1.626612
1.609362
1.6298
1.529859
1.541672
1.567735
1.613674
1.691864
1.691864
1.759366
1.824806
1.933934
1.917621
1.861932
1.836806
1.79968
1.747553
1.747553
1.702739
1.636175
1.608612
1.633925
1.531172
1.541484
1.563985
1.609549
1.684551
1.684551
1.760116
1.821993
1.932809
1.928496
1.873557
1.851244
1.809993
1.758429
1.717552
1.717552
1.648925
1.614424
1.650613
1.542422
1.548047
1.572048
1.616299
1.690177
1.763116
1.763116
1.820868
1.922871
1.929434
1.870745
1.851807
1.81018
1.756929
1.720365
1.650238
1.650238
1.612924
1.645925
1.543922
1.539797
1.573173
1.617612
1.679864
1.753928
1.753928
1.818993
1.914996
1.928121
1.869432
1.850869
1.817118
1.766304
1.735553
1.671614
1.671614
1.6238
1.654738
1.546735
1.530984
1.55386
1.606174
1.662801
1.745491
1.812805
1.812805
1.896058
1.906371
1.815993
1.761616
1.670864
1.579923
1.492546
1.396543
1.322853
1.322853
1.324915
1.276164
1.262664
1.267164
1.267726
1.308602
1.431794
1.664676
1.945184
1.945184
2.069688
1.992998
1.931121
1.918371
1.927559
1.968248
1.979685
2.086564
2.22738
2.22738
2.170754
2.144315
2.152566
2.178254
2.227193
2.297695
2.327508
2.38376
2.38376
2.433262
2.308571
2.254569
2.183692
2.093127
2.017187
1.915746
1.829306
1.818431
1.818431
1.725053
1.652113
1.630175
1.63355
1.668613
1.741928
1.79593
1.867557
1.927746
1.927746
1.846744
1.830243
1.789742
1.740241
1.697864
1.627737
1.566423
1.593986
1.530984
1.530984
1.47492
1.491608
1.524234
1.575798
1.666551
1.724115
1.803805
1.879932
1.80718
1.80718
1.791992
1.761616
1.716052
1.679676
1.604674
1.543172
1.571298
1.521984
1.521984
1.471357
1.485233
1.524047
1.576923
1.658488
1.724678
1.800055
1.88837
1.810368
1.810368
1.789367
1.753928
1.709677
1.669551
1.606549
1.550297
1.57336
1.526109
1.46892
1.46892
1.48842
1.523296
1.575048
1.664113
1.726178
1.791992
1.885745
1.815993
1.797242
1.797242
1.766304
1.720365
1.677239
1.621174
1.560985
1.575611
1.539984
1.479233
1.49292
1.49292
1.529109
1.576923
1.665051
1.735553
1.79668
1.893245
1.832681
1.805305
1.805305
1.780367
1.735928
1.688114
1.624925
1.56661
1.571673
1.543547
1.475108
1.489545
1.489545
1.521421
1.570735
1.657926
1.71924
1.783742
1.890808
1.839431
1.800805
1.772679
1.772679
1.732365
1.687176
1.632237
1.564735
1.56736
1.55761
1.470045
1.484295
1.511109
1.511109
1.557985
1.631487
1.698989
1.766304
1.878057
1.828556
1.789555
1.759179
1.722615
1.722615
1.676676
1.62905
1.565485
1.55836
1.568298
1.472857
1.487295
1.508484
1.556298
1.556298
1.628675
1.696364
1.755991
1.866057
1.831368
1.784305
1.759929
1.71324
1.71324
1.659613
1.611237
1.545235
1.526297
1.539047
1.441169
1.446232
1.471732
1.517109
1.517109
1.587799
1.664676
1.717927
1.820493
1.79893
1.750366
1.71324
1.675739
1.620049
1.620049
1.575798
1.499296
1.470982
1.495358
1.38773
1.393167
1.40948
1.455607
1.525359
1.525359
1.596424
1.655863
1.745491
1.739491
1.679864
1.649675
1.610112
1.56361
1.522359
1.522359
1.451669
1.424481
1.458795
1.345353
1.351541
1.373104
1.414731
1.485795
1.485795
1.565485
1.623425
1.720178
1.72299
1.667301
1.647238
1.605236
1.561548
1.513171
1.513171
1.444169
1.412856
1.445107
1.341603
1.342916
1.366542
1.405918
1.48317
1.557047
1.557047
1.612549
1.712865
1.737615
1.675551
1.659988
1.622112
1.579548
1.545797
1.48092
1.48092
1.440231
1.484108
1.395605
1.390918
1.423543
1.46592
1.542235
1.628487
1.696927
1.696927
1.80043
1.837368
1.771179
1.758991
1.729553
1.679676
1.647425
1.586298
1.586298
1.54186
1.585736
1.503046
1.487483
1.514671
1.565298
1.631112
1.715677
1.781492
1.781492
1.880682
1.922684
1.853869
1.833806
1.79968
1.754866
1.719427
1.647238
1.597549
1.597549
1.641613
1.559298
1.536984
1.560798
1.603924
1.662051
1.745116
1.812055
1.899433
1.899433
1.952872
1.88237
1.863994
1.828368
1.781117
1.736678
1.673489
1.620049
1.651363
1.651363
1.578611
1.55161
1.567173
1.605799
1.659426
1.748491
1.893245
1.956435
1.865869
1.852556
1.852556
1.819368
1.773992
1.734615
1.672364
1.614424
1.644425
1.581048
1.540735
1.556485
1.556485
1.594361
1.652488
1.739678
1.794055
1.88312
1.952872
1.87112
1.850119
1.850119
1.826306
1.775492
1.733115
1.666363
1.604111
1.630362
1.576361
1.528922
1.54561
1.54561
1.584236
1.617987
1.71774
1.777929
1.851994
1.933371
1.860619
1.835681
1.798555
1.798555
1.754866
1.712302
1.65005
1.591549
1.608799
1.563235
1.506421
1.524234
1.563235
1.563235
1.614237
1.711927
1.770992
1.845994
1.945559
1.859494
1.843556
1.815055
1.768929
1.768929
1.72374
1.662426
1.603736
1.614799
1.573735
1.512046
1.529672
1.562673
1.562673
1.609362
1.696552
1.761616
1.834369
1.925121
1.857619
1.830243
1.80343
1.758804
1.758804
1.71924
1.663738
1.593049
1.602237
1.579923
1.507733
1.519921
1.557235
1.608612
1.608612
1.688302
1.758429
1.823868
1.921746
1.871307
1.843931
1.810368
1.767429
1.724678
1.724678
1.668988
1.603174
1.603736
1.588736
1.507733
1.519171
1.550672
1.599424
1.678176
1.678176
1.755429
1.819368
1.936747
1.896245
1.853682
1.820306
1.777367
1.723553
1.723553
1.674426
1.609362
1.603736
1.602049
1.518609
1.533047
1.56136
1.613299
1.681176
1.681176
1.752803
1.818056
1.919684
1.886495
1.846744
1.819931
1.777179
1.731615
1.680614
1.680614
1.607674
1.604486
1.62305
1.512796
1.530234
1.555923
1.600924
1.674426
1.752241
1.752241
1.810743
1.912371
1.89062
1.831181
1.813555
1.774554
1.721678
1.672926
1.607112
1.607112
1.595486
1.617237
1.515046
1.525359
1.559673
1.602799
1.678926
1.754866
1.754866
1.81693
1.919496
1.902621
1.849931
1.824993
1.785429
1.72824
1.688489
1.620987
1.620987
1.594549
1.623425
1.520671
1.526859
1.547485
1.595486
1.667113
1.742116
1.806618
1.806618
1.894933
1.896245
1.844681
1.820868
1.785429
1.734991
1.688114
1.618549
1.593049
1.593049
1.615549
1.519359
1.519921
1.542797
1.591174
1.659051
1.734991
1.793305
1.893433
1.893433
1.89887
1.839431
1.81768
1.776242
1.729365
1.687364
1.615549
1.576736
1.608237
1.608237
1.515796
1.512046
1.530234
1.576923
1.644238
1.723928
1.799117
1.890433
1.890433
1.907121
1.842619
1.815243
1.774742
1.726365
1.681551
1.605049
1.565298
1.596986
1.596986
1.501171
1.488983
1.512046
1.559298
1.62155
1.702739
1.756741
1.848994
1.880307
1.880307
1.809618
1.79518
1.759179
1.708177
1.665426
1.597549
1.558923
1.596611
1.512234
1.512234
1.493671
1.519734
1.561548
1.620049
1.706677
1.769679
1.858932
1.916683
1.833993
1.833993
1.828368
1.792742
1.742866
1.704802
1.636925
1.584236
1.619487
1.538859
1.538859
1.512609
1.531922
1.572423
1.637487
1.725428
1.786367
1.871495
1.936747
1.863807
1.863807
1.838681
1.81093
1.760866
1.71924
1.657176
1.599986
1.637862
1.567735
1.528922
1.528922
1.54636
1.581986
1.639738
1.722803
1.794242
1.869995
1.947622
1.862869
1.847869
1.847869
1.815805
1.769866
1.725615
1.659801
1.605236
1.631675
1.57111
1.528359
1.54336
1.54336
1.581611
1.6328
1.718678
1.784679
1.859494
1.942559
1.863807
1.845619
1.845619
1.812055
1.765366
1.728428
1.665988
1.610674
1.6328
1.581611
1.534359
1.54936
1.54936
1.584986
1.637487
1.723928
1.784679
1.854994
1.948559
1.867557
1.847681
1.820118
1.820118
1.773054
1.734053
1.676864
1.619487
1.634112
1.584611
1.511484
1.524609
1.56211
1.56211
1.610487
1.701239
1.766304
1.834369
1.921371
1.824056
1.768366
1.685676
1.594361
1.594361
1.507733
1.416043
1.315915
1.29904
1.283477
1.258538
1.260038
1.261913
1.265289
1.265289
1.351354
1.47942
1.749803
2.012124
1.995623
1.921559
1.905808
1.892683
1.892683
1.936372
1.972748
2.017749
2.170191
2.229443
2.179004
2.207692
2.21538
2.243693
2.243693
2.310446
2.341384
2.356385
2.455575
2.366135
2.283257
2.206942
2.12894
2.04175
2.04175
1.95006
1.860244
1.821806
1.776054
1.661676
1.636737
1.63355
1.655676
1.71999
1.71999
1.779429
1.828368
1.935622
1.885932
1.839244
1.812993
1.762554
1.717365
1.661488
1.661488
1.587423
1.580673
1.583673
1.485233
1.494608
1.514296
1.557797
1.635987
1.635987
1.70874
1.764429
1.87262
1.849181
1.796117
1.771929
1.73124
1.688489
1.638425
1.638425
1.572423
1.56061
1.56511
1.467045
1.47792
1.508859
1.55311
1.6223
1.691489
1.691489
1.755991
1.865682
1.848619
1.801742
1.774179
1.730115
1.682864
1.6373
1.569048
1.569048
1.544485
1.57186
1.466107
1.483733
1.506984
1.549547
1.620424
1.698614
1.762179
1.762179
1.864369
1.859869
1.808118
1.782992
1.748491
1.700302
1.658488
1.586298
1.586298
1.552172
1.593049
1.488045
1.488795
1.513546
1.56136
1.625112
1.702177
1.763679
1.763679
1.857619
1.870182
1.812993
1.787117
1.752053
1.70349
1.662801
1.593611
1.551047
1.551047
1.586111
1.48467
1.48167
1.504171
1.548985
1.619112
1.693364
1.760491
1.851994
1.851994
1.873932
1.811868
1.79293
1.752991
1.696177
1.660551
1.586486
1.548422
1.581423
1.581423
1.48242
1.477357
1.499296
1.53961
1.605424
1.686427
1.739491
1.832868
1.832868
1.868495
1.799867
1.786367
1.750928
1.702364
1.664488
1.594736
1.543735
1.584048
1.584048
1.496108
1.47417
1.497421
1.530797
1.587423
1.673864
1.734241
1.81468
1.866807
1.866807
1.792555
1.775117
1.733865
1.680801
1.634487
1.568673
1.509233
1.545797
1.469107
1.469107
1.442107
1.464045
1.493296
1.551422
1.63805
1.696739
1.772679
1.829493
1.745678
1.745678
1.72824
1.691302
1.637675
1.594924
1.521984
1.467607
1.503421
1.431981
1.431981
1.391292
1.409105
1.443794
1.493858
1.573548
1.633737
1.708365
1.776804
1.692239
1.692239
1.674614
1.63505
1.582736
1.540359
1.474358
1.419793
1.456357
1.389417
1.344416
1.344416
1.358292
1.39673
1.445482
1.534547
1.593799
1.667676
1.752053
1.670301
1.644613
1.644613
1.616112
1.571486
1.525734
1.46967
1.404418
1.430106
1.38773
1.334103
1.349291
1.349291
1.383605
1.436294
1.523296
1.584798
1.656613
1.746803
1.677426
1.661863
1.661863
1.626612
1.597361
1.55536
1.497796
1.449044
1.48092
1.443232
1.377604
1.40273
1.40273
1.444169
1.505296
1.598861
1.673489
1.746991
1.842994
1.779804
1.764429
1.73649
1.73649
1.700114
1.656426
1.606737
1.554422
1.569798
1.545422
1.482983
1.497608
1.533047
1.533047
1.587048
1.680051
1.751866
1.824243
1.922496
1.865307
1.838681
1.813555
1.773617
1.773617
1.733303
1.676864
1.616487
1.6283
1.608424
1.536047
1.55161
1.582923
1.634487
1.634487
1.721303
1.782992
1.848056
1.959435
1.905808
1.871495
1.839619
1.800055
1.800055
1.751866
1.698427
1.629425
1.629612
1.622862
1.537734
1.547485
1.583486
1.636362
1.636362
1.714552
1.780742
1.838306
1.947059
1.913121
1.861932
1.834181
1.794055
1.740241
1.740241
1.692802
1.622862
1.617424
1.617987
1.525734
1.534547
1.568485
1.611987
1.690364
1.690364
1.758054
1.821618
1.893995
1.839806
1.823681
1.778679
1.72524
1.680801
1.614799
1.614799
1.596799
1.609924
1.513734
1.522359
1.549547
1.601299
1.665613
1.734803
1.800242
1.800242
1.912183
1.892495
1.839056
1.815055
1.766304
1.730303
1.682489
1.611799
1.589298
1.589298
1.614049
1.504733
1.516171
1.542422
1.586861
1.656051
1.73199
1.79893
1.893058
1.893058
1.888933
1.841494
1.810555
1.777929
1.72674
1.678364
1.604674
1.574298
1.601111
1.601111
1.502671
1.510921
1.533234
1.577111
1.64855
1.725803
1.779429
1.878057
1.878057
1.894558
1.822368
1.800617
1.765366
1.716802
1.677426
1.610862
1.577486
1.608049
1.608049
1.509233
1.511109
1.528734
1.575986
1.641988
1.71699
1.777742
1.873745
1.89662
1.89662
1.833431
1.81243
1.776429
1.727678
1.686427
1.614424
1.575048
1.612174
1.518046
1.518046
1.509421
1.530047
1.566985
1.6373
1.716427
1.781867
1.878432
1.894558
1.843931
1.843931
1.819743
1.785054
1.734428
1.683426
1.621362
1.575236
1.615174
1.522547
1.522547
1.503983
1.525734
1.56736
1.638238
1.71549
1.776617
1.869619
1.909746
1.839431
1.839431
1.81918
1.784492
1.737428
1.696177
1.62905
1.581236
1.608799
1.529859
1.505858
1.505858
1.526672
1.56586
1.628112
1.709302
1.777554
1.869057
1.921184
1.845431
1.829306
1.829306
1.79668
1.741553
1.695802
1.63055
1.581236
1.616674
1.538859
1.512609
1.529859
1.529859
1.567923
1.625862
1.710802
1.774179
1.858557
1.918746
1.840181
1.824993
1.824993
1.791242
1.743616
1.699739
1.63205
1.577298
1.602799
1.538672
1.509984
1.526297
1.526297
1.551422
1.618737
1.704615
1.762741
1.847494
1.921184
1.837931
1.823493
1.791617
1.791617
1.749428
1.701052
1.639738
1.582736
1.607674
1.558173
1.505483
1.521609
1.562485
1.562485
1.608049
1.697864
1.755804
1.836244
1.918184
1.839244
1.820868
1.789367
1.743053
1.743053
1.699177
1.636737
1.575986
1.598674
1.557047
1.497796
1.519921
1.543922
1.543922
1.594549
1.696364
1.754491
1.823681
1.919309
1.847306
1.827993
1.798742
1.750178
1.750178
1.707052
1.642925
1.586673
1.591924
1.55836
1.499671
1.513359
1.54636
1.601111
1.601111
1.689427
1.749428
1.81918
1.912371
1.846369
1.822743
1.783179
1.734428
1.695802
1.695802
1.633925
1.569048
1.57261
1.554235
1.480358
1.49292
1.521796
1.568485
1.652488
1.652488
1.712865
1.780554
1.880495
1.827806
1.788617
1.763116
1.72524
1.680614
1.628675
1.628675
1.569798
1.574111
1.564735
1.487858
1.505858
1.536422
1.586486
1.665051
1.665051
1.73574
1.808493
1.907871
1.87187
1.832118
1.805492
1.767617
1.723928
1.669926
1.669926
1.608799
1.597924
1.603924
1.518609
1.529672
1.557423
1.603736
1.679301
1.749991
1.749991
1.812805
1.918746
1.885182
1.839994
1.81693
1.773429
1.725615
1.679114
1.611049
1.611049
1.594361
1.611049
1.513171
1.524796
1.55086
1.595299
1.667113
1.743053
1.803618
1.803618
1.903933
1.89362
1.844119
1.820868
1.782429
1.732178
1.684364
1.622487
1.622487
1.600549
1.625112
1.519546
1.531734
1.55536
1.603174
1.672364
1.743616
1.80943
1.80943
1.908808
1.904121
1.849556
1.825368
1.783179
1.740991
1.693177
1.622862
1.593611
1.593611
1.625862
1.518609
1.525172
1.554047
1.598674
1.665426
1.746241
1.80568
1.907121
1.907121
1.906558
1.853869
1.836056
1.795555
1.748678
1.705739
1.618362
1.571298
1.606737
1.606737
1.505671
1.507171
1.535672
1.586673
1.654176
1.714552
1.751116
1.822556
1.782992
1.782992
1.679676
1.613487
1.544297
1.449232
1.374604
1.291914
1.270351
1.285164
1.285164
1.261539
1.256476
1.263601
1.32004
1.598674
1.827993
1.917434
1.960185
1.996373
1.996373
1.95756
2.047
2.101752
2.190442
2.304445
2.290195
2.244256
2.291507
2.172066
2.172066
2.138315
2.142628
2.157629
2.171316
2.234881
2.270694
2.316446
2.331071
2.205067
2.205067
2.143003
2.069313
1.997873
1.926809
1.819743
1.730865
1.737053
1.627737
1.567923
1.567923
1.569423
1.597361
1.648925
1.721115
1.774929
1.855744
1.917434
1.827993
1.827993
1.812055
1.775867
1.720927
1.674801
1.608799
1.548985
1.577861
1.504921
1.464982
1.464982
1.478295
1.514109
1.569048
1.656426
1.71924
1.799492
1.872995
1.797617
1.783742
1.783742
1.746803
1.696364
1.652863
1.593236
1.533422
1.561548
1.504921
1.45842
1.476983
1.476983
1.515609
1.562298
1.651175
1.707802
1.793305
1.885182
1.799305
1.784492
1.753928
1.753928
1.709115
1.671051
1.604674
1.55086
1.579923
1.520296
1.47042
1.490108
1.490108
1.528547
1.578048
1.673114
1.728615
1.801742
1.887808
1.813368
1.796117
1.760866
1.760866
1.713427
1.670676
1.605799
1.54486
1.567735
1.530984
1.470045
1.48242
1.518796
1.518796
1.567735
1.656051
1.720365
1.79818
1.883682
1.817118
1.792742
1.763116
1.718678
1.718678
1.674239
1.613862
1.552922
1.556485
1.529297
1.458607
1.46817
1.509046
1.552547
1.552547
1.6403
1.71399
1.780179
1.887433
1.824243
1.789929
1.761804
1.718678
1.672926
1.672926
1.614049
1.54786
1.558548
1.539797
1.46367
1.478858
1.509796
1.55311
1.55311
1.638238
1.696552
1.761429
1.877682
1.816368
1.782429
1.752803
1.707802
1.661113
1.661113
1.600924
1.538297
1.538297
1.529109
1.445294
1.460295
1.487858
1.536047
1.618362
1.618362
1.670864
1.732365
1.851431
1.808305
1.763116
1.726928
1.683051
1.634862
1.580298
1.580298
1.512796
1.499671
1.501546
1.408543
1.418481
1.441169
1.481108
1.555923
1.6268
1.6268
1.688302
1.794992
1.761429
1.716802
1.689614
1.644238
1.588923
1.535109
1.535109
1.469482
1.449982
1.467045
1.363167
1.367854
1.390355
1.434419
1.501358
1.573735
1.573735
1.628862
1.729928
1.709677
1.657363
1.626237
1.585361
1.536234
1.486358
1.415293
1.415293
1.392417
1.425231
1.319103
1.324728
1.352666
1.392417
1.46067
1.535672
1.601674
1.601674
1.701052
1.690177
1.641237
1.618174
1.576173
1.529297
1.487858
1.422981
1.395605
1.395605
1.429169
1.326041
1.335416
1.358479
1.397855
1.468732
1.547297
1.619674
1.619674
1.712115
1.72074
1.673489
1.6538
1.626612
1.583673
1.548797
1.482795
1.445294
1.445294
1.488608
1.387167
1.392605
1.427481
1.477733
1.54636
1.63505
1.704427
1.800242
1.800242
1.827806
1.768929
1.754491
1.728615
1.679489
1.649113
1.582548
1.545235
1.603736
1.603736
1.493858
1.490108
1.514859
1.564735
1.635987
1.718302
1.779242
1.87487
1.912183
1.912183
1.849181
1.834556
1.801742
1.754491
1.71699
1.650988
1.614612
1.660176
1.660176
1.580298
1.55836
1.578611
1.62305
1.676676
1.760116
1.824431
1.907871
1.957747
1.957747
1.886495
1.864744
1.835494
1.785054
1.739491
1.677239
1.623612
1.665051
1.586298
1.586298
1.554985
1.576173
1.613112
1.675176
1.759366
1.815805
1.903183
1.956622
1.876557
1.876557
1.858932
1.822931
1.777929
1.730678
1.663551
1.615362
1.651175
1.578798
1.539797
1.539797
1.560798
1.598111
1.656988
1.738366
1.802868
1.875995
1.95306
1.869995
1.861744
1.770429
1.770429
1.729178
1.666738
1.605986
1.636925
1.578611
1.532672
1.542985
1.583111
1.583111
1.629987
1.73049
1.777554
1.857619
1.932246
1.858182
1.839994
1.804743
1.758241
1.758241
1.71549
1.64705
1.592861
1.622487
1.55686
1.509609
1.528734
1.565673
1.614612
1.614612
1.693552
1.763304
1.832681
1.925871
1.861744
1.843744
1.807368
1.764241
1.72299
1.72299
1.660738
1.596986
1.623612
1.578423
1.517109
1.534922
1.564548
1.614987
1.710052
1.710052
1.767054
1.839056
1.929434
1.860807
1.835494
1.80343
1.752803
1.716427
1.651175
1.651175
1.590236
1.601674
1.567173
1.504546
1.524047
1.55911
1.606924
1.685114
1.685114
1.750554
1.827243
1.919121
1.863432
1.836056
1.802305
1.758054
1.71624
1.662801
1.662801
1.598674
1.603736
1.593986
1.511484
1.529297
1.568485
1.608987
1.700677
1.759741
1.759741
1.823868
1.935997
1.89362
1.848994
1.811868
1.768929
1.72224
1.674051
1.607862
1.607862
1.601111
1.598299
1.512609
1.529484
1.560048
1.604674
1.682301
1.757866
1.813368
1.813368
1.918559
1.89062
1.841494
1.817868
1.781117
1.72899
1.684551
1.612549
1.612549
1.597549
1.606924
1.515609
1.528359
1.556672
1.605424
1.687176
1.745491
1.80568
1.80568
1.919121
1.890433
1.843556
1.809618
1.773804
1.734991
1.683051
1.617799
1.596424
1.596424
1.615174
1.516171
1.531922
1.561548
1.604674
1.680614
1.751866
1.81018
1.913496
1.913496
1.905996
1.856119
1.818618
1.776054
1.72749
1.680426
1.612737
1.592299
1.623237
1.623237
1.512421
1.524234
1.550297
1.589298
1.663926
1.740803
1.80568
1.905808
1.905808
1.901308
1.844681
1.81393
1.785992
1.731428
1.688302
1.618549
1.584236
1.618924
1.618924
1.515609
1.519171
1.537359
1.589111
1.662988
1.744366
1.797617
1.898308
1.902058
1.902058
1.852369
1.827806
1.790305
1.742491
1.705927
1.631675
1.587799
1.622487
1.529297
1.529297
1.526297
1.546735
1.593236
1.654551
1.726553
1.797055
1.888745
1.913683
1.849181
1.849181
1.829493
1.788617
1.739116
1.698239
1.640112
1.588361
1.628862
1.535859
1.519359
1.519359
1.54486
1.586673
1.63955
1.731428
1.79218
1.881807
1.915183
1.844681
1.844681
1.821618
1.784867
1.733115
1.689427
1.617612
1.574673
1.616299
1.513921
1.489545
1.489545
1.503983
1.54861
1.615737
1.693552
1.763491
1.836056
1.880307
1.815243
1.797617
1.797617
1.767991
1.716615
1.675551
1.606737
1.554047
1.605611
1.531359
1.508109
1.537547
1.537547
1.567548
1.628675
1.71624
1.777367
1.866807
1.929059
1.854994
1.839056
1.796117
1.796117
1.753928
1.71399
1.651738
1.597924
1.630175
1.564548
1.525359
1.540172
1.540172
1.591361
1.63805
1.729553
1.789929
1.863244
1.943497
1.849931
1.840744
1.810743
1.810743
1.762929
1.71924
1.649863
1.591924
1.618174
1.572798
1.518421
1.533797
1.578236
1.578236
1.633925
1.725615
1.785617
1.866994
1.943497
1.866994
1.854619
1.817305
1.773617
1.773617
1.72674
1.666738
1.613674
1.6328
1.585736
1.529484
1.554047
1.587423
1.63805
1.63805
1.730303
1.793305
1.860432
1.958685
1.875245
1.850681
1.813555
1.771367
1.771367
1.727303
1.669551
1.607674
1.627925
1.587611
1.524421
1.543172
1.574486
1.6238
1.6238
1.71324
1.783929
1.847681
1.946872
1.883495
1.859307
1.829118
1.787117
1.749241
1.749241
1.681364
1.620799
1.619112
1.579361
1.507733
1.525172
1.55986
1.604674
1.695239
1.695239
1.757491
1.80643
1.896058
1.839619
1.777554
1.710427
1.627925
1.539984
1.454294
1.454294
1.384917
1.355479
1.317228
1.268101
1.271851
1.282727
1.32379
1.457482
1.457482
1.765179
1.992811
2.144315
2.041187
1.974435
1.927934
1.918934
1.97556
2.027499
2.027499
2.114502
2.229818
2.249694
2.114689
2.080189
2.080939
2.117502
2.178066
2.227568
2.227568
2.293008
2.372323
2.288882
2.205817
2.144315
2.074376
1.993748
1.912371
1.81468
1.81468
1.772304
1.754304
1.609924
1.593611
1.597924
1.623612
1.687176
1.747178
1.801742
1.801742
1.902433
1.871682
1.822368
1.796117
1.755429
1.70349
1.649675
1.578611
1.55161
1.55161
1.572235
1.460857
1.47267
1.501358
1.54336
1.617799
1.691489
1.743241
1.743241
1.848619
1.836619
1.782992
1.758054
1.71774
1.673489
1.625112
1.557797
1.536234
1.536234
1.564173
1.462732
1.463482
1.48692
1.541297
1.605236
1.683239
1.737428
1.847119
1.847119
1.840744
1.785054
1.761804
1.729928
1.672551
1.632425
1.564923
1.536609
1.561548
1.561548
1.46292
1.464045
1.479233
1.530047
1.603362
1.680614
1.742678
1.832118
1.852556
1.852556
1.787492
1.771929
1.742116
1.693177
1.656238
1.575048
1.542235
1.579361
1.579361
1.479983
1.47192
1.493671
1.539047
1.607862
1.685489
1.750554
1.838306
1.863807
1.863807
1.79518
1.781492
1.746803
1.695427
1.651925
1.581611
1.528922
1.57186
1.475857
1.475857
1.463857
1.48467
1.527609
1.584798
1.674801
1.73799
1.824243
1.862869
1.787867
1.787867
1.764804
1.726928
1.680614
1.63805
1.56736
1.510546
1.554235
1.473607
1.453732
1.453732
1.46067
1.512609
1.568673
1.657926
1.713802
1.806993
1.857994
1.782054
1.782054
1.762929
1.726553
1.680426
1.646675
1.574673
1.522359
1.555547
1.48242
1.440606
1.440606
1.456919
1.496483
1.546547
1.634862
1.696177
1.777179
1.856119
1.763304
1.740053
1.740053
1.70799
1.656613
1.614237
1.545797
1.48767
1.519359
1.452419
1.408543
1.425793
1.425793
1.461795
1.509984
1.601861
1.657926
1.72824
1.809618
1.712115
1.695239
1.663363
1.663363
1.612549
1.569985
1.497046
1.438919
1.471732
1.406293
1.355479
1.369729
1.40273
1.40273
1.451107
1.531922
1.588923
1.661863
1.745116
1.662238
1.640488
1.609549
1.609549
1.55686
1.510546
1.448857
1.385105
1.406106
1.361292
1.30729
1.319665
1.354166
1.354166
1.39823
1.491796
1.548985
1.626425
1.71549
1.641988
1.613112
1.585923
1.55086
1.55086
1.504733
1.448294
1.38773
1.403855
1.379105
1.316478
1.333728
1.362229
1.418293
1.418293
1.505858
1.561548
1.632612
1.730678
1.679114
1.652863
1.627362
1.584048
1.548047
1.548047
1.491796
1.440419
1.451107
1.439294
1.374792
1.395605
1.434419
1.489733
1.489733
1.578611
1.645925
1.727115
1.831368
1.783742
1.762366
1.737615
1.701052
1.662988
1.662988
1.619487
1.563235
1.558735
1.55611
1.481483
1.500983
1.535297
1.585173
1.672551
1.672551
1.748116
1.809993
1.923246
1.877495
1.845056
1.822931
1.785992
1.748491
1.694489
1.694489
1.6373
1.632425
1.63805
1.548047
1.565485
1.597174
1.641425
1.720178
1.791055
1.791055
1.852369
1.96731
1.936184
1.889495
1.866619
1.825181
1.778867
1.727865
1.662613
1.662613
1.64705
1.664301
1.56211
1.57261
1.598861
1.642925
1.721303
1.790867
1.790867
1.854244
1.963372
1.934309
1.882557
1.857432
1.824993
1.767991
1.718865
1.647425
1.647425
1.631487
1.657363
1.548235
1.555547
1.582923
1.627175
1.702177
1.769304
1.837931
1.837931
1.943122
1.930746
1.871682
1.844306
1.808118
1.721115
1.6448
1.614799
1.648925
1.648925
1.539047
1.543922
1.570548
1.614237
1.678551
1.752991
1.812993
1.912933
1.910308
1.910308
1.856494
1.827243
1.791992
1.743428
1.701427
1.63505
1.591736
1.619299
1.523296
1.523296
1.523484
1.549172
1.591361
1.654176
1.735928
1.793305
1.886683
1.906371
1.845056
1.845056
1.820306
1.784117
1.731803
1.689614
1.621174
1.574486
1.607862
1.515796
1.506796
1.506796
1.535484
1.581048
1.646863
1.723178
1.78618
1.87787
1.902621
1.838681
1.822181
1.822181
1.786555
1.737803
1.692989
1.625675
1.581798
1.615924
1.534359
1.517671
1.517671
1.541297
1.581798
1.642363
1.726928
1.777929
1.872807
1.916871
1.848994
1.830431
1.830431
1.791055
1.743991
1.704802
1.635987
1.585361
1.625487
1.542797
1.517484
1.53961
1.53961
1.583111
1.642363
1.72824
1.787867
1.879745
1.929996
1.861744
1.840556
1.805492
1.805492
1.754304
1.71624
1.651925
1.591549
1.631487
1.555547
1.518234
1.538672
1.578611
1.578611
1.631675
1.72674
1.78918
1.883495
1.949497
1.865307
1.848244
1.815618
1.815618
1.769116
1.728615
1.665426
1.603549
1.6313
1.57336
1.530609
1.548797
1.580298
1.580298
1.63655
1.728428
1.78918
1.875245
1.95006
1.865682
1.845619
1.813555
1.766679
1.766679
1.728428
1.667301
1.602424
1.626237
1.583111
1.525547
1.539047
1.582923
1.635425
1.635425
1.720178
1.784117
1.860057
1.948934
1.864369
1.845056
1.812993
1.767429
1.721865
1.721865
1.662426
1.600924
1.619487
1.574861
1.521984
1.538859
1.571486
1.624175
1.624175
1.714177
1.781117
1.849369
1.950997
1.877495
1.857057
1.821243
1.779992
1.739678
1.739678
1.676489
1.615549
1.626612
1.595674
1.530984
1.54411
1.573548
1.624549
1.71474
1.71474
1.784117
1.842806
1.949497
1.875245
1.849369
1.825181
1.778679
1.739866
1.679864
1.679864
1.618362
1.624737
1.595674
1.526859
1.541297
1.576736
1.623612
1.702552
1.771554
1.771554
1.829681
1.947059
1.89212
1.860432
1.830431
1.780742
1.734615
1.671239
1.671239
1.602237
1.595674
1.590424
1.509421
1.522171
1.55086
1.591924
1.679114
1.753741
1.753741
1.812805
1.919496
1.865119
1.827993
1.79968
1.758054
1.71099
1.650988
1.585548
1.585548
1.579361
1.587799
1.49292
1.510546
1.541672
1.591549
1.674989
1.743241
1.804368
1.804368
1.919309
1.88687
1.839994
1.81693
1.780742
1.740428
1.692052
1.623237
1.609549
1.609549
1.629237
1.525921
1.538859
1.564548
1.608799
1.681364
1.754304
1.820306
1.820306
1.925121
1.909746
1.858744
1.836431
1.80043
1.753553
1.712115
1.640112
1.616674
1.616674
1.639175
1.537172
1.547297
1.573923
1.619112
1.689052
1.762366
1.827993
1.929434
1.929434
1.926996
1.87262
1.848619
1.80718
1.761991
1.720178
1.633925
1.608049
1.639175
1.639175
1.536797
1.544485
1.57036
1.609737
1.671426
1.754491
1.814118
1.915558
1.927559
1.927559
1.865494
1.845619
1.805118
1.758616
1.720927
1.64555
1.608237
1.644613
1.545047
1.545047
1.541109
1.56586
1.610299
1.677614
1.757866
1.812618
1.912371
1.926996
1.926996
1.864182
1.843931
1.80943
1.758241
1.720178
1.657176
1.609174
1.647613
1.56661
1.56661
1.556485
1.573923
1.606362
1.659613
1.748866
1.809618
1.902996
1.932246
1.870745
1.870745
1.847869
1.796867
1.724678
1.654738
1.533234
1.440044
1.434044
1.32979
1.286102
1.286102
1.277664
1.279539
1.295102
1.357354
1.414356
1.469107
1.579923
1.612174
1.819368
1.819368
1.907871
1.875432
1.79893
1.72299
1.695802
1.824993
1.811305
1.910683
1.910683
2.084126
2.180692
2.239756
2.331634
2.37626
2.4492
2.503014
2.38901
2.329196
2.329196
2.282695
2.21463
2.133628
2.034625
1.940684
1.936372
1.831368
1.777367
1.759741
1.759741
1.758804
1.778679
1.836244
1.857619
1.910308
1.96581
1.870745
1.843181
1.792367
1.792367
1.749241
1.712865
1.6493
1.588923
1.617424
1.556298
1.504546
1.522171
1.552735
1.552735
1.600924
1.675551
1.734991
1.816743
1.893058
1.81318
1.793492
1.759741
1.759741
1.717927
1.675551
1.606549
1.54936
1.578048
1.528172
1.47717
1.492171
1.526859
1.526859
1.57336
1.663176
1.73124
1.799117
1.900183
1.814868
1.792555
1.757491
1.71024
1.71024
1.669176
1.607862
1.548235
1.566235
1.523109
1.474732
1.488608
1.524984
1.577673
1.577673
1.668613
1.731803
1.806243
1.894745
1.836806
1.81093
1.782429
1.73199
1.690177
1.690177
1.63205
1.566423
1.578423
1.55386
1.485233
1.501171
1.535297
1.585923
1.669176
1.669176
1.73799
1.797992
1.899808
1.844681
1.81543
1.782992
1.736115
1.694677
1.694677
1.6328
1.576548
1.576923
1.55836
1.483358
1.494608
1.524609
1.57336
1.652863
1.652863
1.715677
1.778867
1.888745
1.844869
1.812618
1.782054
1.738366
1.691302
1.639175
1.639175
1.575048
1.568485
1.573735
1.485795
1.502108
1.528359
1.570735
1.649675
1.71774
1.71774
1.781679
1.879932
1.850869
1.813368
1.788617
1.740428
1.694489
1.645363
1.577486
1.577486
1.569798
1.574111
1.47642
1.487858
1.513921
1.56136
1.634112
1.712865
1.712865
1.763491
1.877682
1.849931
1.800617
1.777929
1.734991
1.673864
1.6298
1.56436
1.56436
1.54636
1.56586
1.461982
1.470982
1.499296
1.545797
1.615362
1.684364
1.746428
1.746428
1.837181
1.830618
1.772867
1.744928
1.703115
1.649113
1.605799
1.532859
1.514671
1.514671
1.534172
1.419043
1.424856
1.446232
1.48842
1.55686
1.6283
1.685489
1.775117
1.775117
1.781304
1.715302
1.689239
1.646863
1.593424
1.549922
1.475483
1.441169
1.441169
1.472482
1.371604
1.371979
1.395605
1.432169
1.502858
1.580111
1.63505
1.72374
1.72374
1.740053
1.678364
1.661301
1.620424
1.574486
1.531547
1.45842
1.415106
1.46367
1.46367
1.365042
1.360167
1.377042
1.419793
1.48842
1.562673
1.624362
1.711927
1.734991
1.734991
1.670114
1.654551
1.62305
1.578798
1.542985
1.47117
1.425793
1.470795
1.383417
1.383417
1.369729
1.397105
1.445294
1.509233
1.600924
1.666363
1.771742
1.81318
1.81318
1.750366
1.73724
1.703302
1.660176
1.627362
1.564548
1.515421
1.570735
1.48467
1.48467
1.470232
1.496483
1.539797
1.607299
1.689614
1.761616
1.851431
1.913683
1.837931
1.837931
1.815243
1.787304
1.738366
1.700864
1.63655
1.593611
1.629987
1.557423
1.523296
1.523296
1.542985
1.586111
1.642925
1.733678
1.794242
1.882745
1.946872
1.868119
1.851057
1.851057
1.821618
1.775117
1.735178
1.678176
1.624737
1.651175
1.593986
1.554235
1.572798
1.572798
1.609362
1.665988
1.751678
1.815805
1.894745
1.966935
1.882557
1.864182
1.864182
1.824243
1.781492
1.743241
1.673864
1.615549
1.641613
1.586111
1.537172
1.55311
1.55311
1.590236
1.6433
1.734428
1.78768
1.866619
1.953997
1.871682
1.850307
1.823493
1.823493
1.774179
1.726553
1.666363
1.605611
1.623425
1.587423
1.527984
1.54411
1.57036
1.57036
1.619299
1.70949
1.775867
1.843556
1.940122
1.864369
1.842806
1.806055
1.763116
1.763116
1.724865
1.659238
1.612174
1.585173
1.517671
1.535297
1.559485
1.608424
1.697302
1.759366
1.759366
1.829306
1.932434
1.863057
1.835494
1.80493
1.760866
1.709677
1.654363
1.654363
1.593799
1.593611
1.582173
1.499858
1.521046
1.55161
1.598674
1.687176
1.750928
1.750928
1.812993
1.919684
1.863994
1.824618
1.796117
1.753928
1.702552
1.6463
1.584986
1.584986
1.582923
1.580486
1.493858
1.514859
1.54786
1.595299
1.680989
1.742303
1.81168
1.81168
1.916308
1.87262
1.831743
1.80493
1.761616
1.71399
1.667488
1.597736
1.596799
1.596799
1.594549
1.499858
1.514859
1.54186
1.590986
1.663551
1.73724
1.800992
1.800992
1.910496
1.878995
1.834556
1.809055
1.766491
1.722615
1.666926
1.604674
1.593049
1.593049
1.605799
1.503608
1.517484
1.544485
1.592674
1.664863
1.73799
1.802493
1.900183
1.900183
1.885745
1.831931
1.806805
1.768929
1.72374
1.676489
1.604299
1.587048
1.609362
1.609362
1.506421
1.518046
1.546735
1.592111
1.664676
1.744178
1.812243
1.912558
1.902246
1.902246
1.850494
1.827431
1.785617
1.73199
1.689239
1.619862
1.592486
1.624925
1.624925
1.515609
1.524984
1.545047
1.589861
1.654738
1.732553
1.797617
1.893808
1.899245
1.899245
1.840369
1.821056
1.779242
1.732178
1.693364
1.627175
1.584798
1.6223
1.526859
1.526859
1.516359
1.538859
1.583111
1.648925
1.725615
1.79218
1.878432
1.906746
1.841306
1.841306
1.818056
1.780929
1.734991
1.696739
1.629237
1.589861
1.624925
1.531359
1.518609
1.518609
1.537922
1.584423
1.645175
1.729178
1.790117
1.88237
1.912558
1.847869
1.826118
1.826118
1.788242
1.73799
1.695614
1.627925
1.579923
1.627175
1.533609
1.511484
1.511484
1.536609
1.578423
1.6388
1.723178
1.785804
1.870557
1.926434
1.843556
1.829306
1.829306
1.79443
1.744366
1.701239
1.63505
1.581048
1.619862
1.54711
1.513734
1.527797
1.527797
1.569798
1.631487
1.719427
1.780179
1.861557
1.918746
1.839056
1.818993
1.789929
1.789929
1.745678
1.70799
1.631112
1.581236
1.624925
1.558735
1.520671
1.54411
1.579548
1.579548
1.629237
1.72224
1.778304
1.859869
1.925496
1.838306
1.817868
1.785804
1.785804
1.736866
1.692427
1.609737
1.55311
1.594549
1.534172
1.484858
1.499296
1.534359
1.534359
1.587048
1.677801
1.739866
1.813743
1.902058
1.817305
1.79968
1.773804
1.726928
1.726928
1.683614
1.626425
1.57036
1.596424
1.55161
1.503796
1.518421
1.557423
1.601299
1.601299
1.688489
1.760866
1.829493
1.934497
1.862119
1.837744
1.807743
1.766679
1.723553
1.723553
1.662801
1.607299
1.618174
1.574861
1.524796
1.541672
1.576923
1.617799
1.714927
1.714927
1.776804
1.841681
1.943872
1.872245
1.843744
1.80943
1.767429
1.730865
1.730865
1.670301
1.608049
1.613674
1.588361
1.518421
1.537922
1.573735
1.626425
1.71549
1.71549
1.776992
1.842431
1.95081
1.88612
1.857057
1.822931
1.777367
1.73349
1.680051
1.680051
1.604299
1.613487
1.611049
1.534547
1.543547
1.573735
1.615362
1.701427
1.772679
1.772679
1.832306
1.947622
1.890245
1.854244
1.829681
1.787867
1.741741
1.682864
1.620424
1.620424
1.608237
1.611799
1.525359
1.538297
1.572986
1.616674
1.695427
1.767617
1.767617
1.826493
1.942184
1.908058
1.863994
1.839994
1.800055
1.735928
1.674239
1.601299
1.601299
1.590424
1.615174
1.515234
1.536609
1.566048
1.601861
1.651363
1.689427
1.712302
1.712302
1.762179
1.702364
1.599799
1.536797
1.453732
1.372729
1.304665
1.275789
1.272414
1.272414
1.273914
1.258351
1.264164
1.348541
1.594174
1.765929
1.828556
1.861557
2.007624
2.007624
2.046062
2.085251
2.143565
2.235631
2.309133
2.317196
2.269944
2.235443
2.248381
2.248381
2.12594
2.103439
2.080189
2.100064
2.158378
2.194379
2.226818
2.282882
2.282882
2.236193
2.139253
2.087689
2.028062
1.940309
1.866245
1.752241
1.684551
1.683614
1.683614
1.557985
1.550672
1.571486
1.605049
1.664301
1.73574
1.795742
1.886495
1.902058
1.902058
1.840181
1.81018
1.778492
1.725428
1.678739
1.597549
1.551985
1.588923
1.484858
1.484858
1.47867
1.493108
1.537734
1.605424
1.690927
1.748491
1.840931
1.863994
1.80268
1.80268
1.777742
1.739678
1.697302
1.652863
1.586861
1.542985
1.579361
1.491796
1.491796
1.478295
1.494233
1.534547
1.596611
1.684551
1.736678
1.830618
1.870745
1.80868
1.80868
1.787117
1.749616
1.705177
1.662051
1.594924
1.542235
1.590424
1.504358
1.48092
1.48092
1.500608
1.540359
1.597361
1.684739
1.743991
1.827431
1.884995
1.812993
1.799305
1.799305
1.763116
1.71849
1.677239
1.611987
1.566048
1.596986
1.512234
1.487483
1.505858
1.505858
1.546735
1.599424
1.684551
1.747178
1.828743
1.902621
1.819368
1.806243
1.806243
1.766117
1.720178
1.679676
1.611987
1.552922
1.596611
1.53811
1.48767
1.500233
1.500233
1.53811
1.592111
1.674051
1.740241
1.81468
1.905433
1.815618
1.796305
1.760116
1.760116
1.717552
1.679301
1.611987
1.563985
1.570923
1.526859
1.478108
1.494983
1.530422
1.530422
1.582173
1.667113
1.733865
1.801742
1.899058
1.813368
1.79818
1.764429
1.719052
1.719052
1.674051
1.611612
1.54936
1.571298
1.526859
1.473232
1.477733
1.521421
1.521421
1.574486
1.649675
1.716802
1.773617
1.87337
1.808868
1.780179
1.750741
1.702552
1.702552
1.660363
1.598111
1.536047
1.541109
1.517296
1.444169
1.457294
1.483358
1.53811
1.53811
1.621174
1.684176
1.73574
1.841681
1.776804
1.743991
1.710615
1.662238
1.619299
1.619299
1.552172
1.49292
1.492358
1.47342
1.393543
1.401793
1.432356
1.47042
1.549172
1.549172
1.614799
1.674426
1.778492
1.727303
1.695239
1.661863
1.607674
1.56511
1.56511
1.514859
1.442107
1.442294
1.434419
1.350041
1.360729
1.381917
1.434606
1.516359
1.516359
1.577111
1.645738
1.748866
1.72599
1.665801
1.646488
1.602049
1.55686
1.501921
1.501921
1.441356
1.431981
1.436294
1.347041
1.360354
1.389792
1.435169
1.522547
1.590236
1.590236
1.655863
1.757679
1.735928
1.691302
1.673301
1.636175
1.584611
1.543735
1.48092
1.48092
1.467795
1.498921
1.40798
1.421668
1.455607
1.501546
1.588173
1.659801
1.747928
1.747928
1.839994
1.832118
1.783367
1.766679
1.732365
1.685489
1.642175
1.580861
1.580861
1.565298
1.584611
1.495921
1.503796
1.529859
1.581236
1.647988
1.73724
1.806618
1.806618
1.905996
1.910308
1.853869
1.831368
1.79668
1.747366
1.707802
1.64255
1.610674
1.610674
1.643113
1.543735
1.543922
1.576361
1.616112
1.688676
1.759366
1.827806
1.916683
1.916683
1.927371
1.87787
1.856869
1.816368
1.762366
1.726365
1.657363
1.62305
1.661676
1.661676
1.56511
1.55536
1.579736
1.616299
1.682301
1.755241
1.825743
1.918559
1.918559
1.943684
1.87562
1.860057
1.818056
1.758054
1.726365
1.660363
1.611424
1.6403
1.6403
1.56061
1.539047
1.564735
1.606174
1.672551
1.749803
1.816743
1.905621
1.941247
1.941247
1.870182
1.852556
1.813368
1.765554
1.72449
1.652675
1.605986
1.643675
1.538484
1.538484
1.556298
1.595674
1.650238
1.733303
1.803805
1.884245
1.940872
1.860807
1.841119
1.841119
1.803618
1.753179
1.714177
1.6463
1.594924
1.628675
1.562673
1.523859
1.543735
1.543735
1.581611
1.640675
1.723365
1.788805
1.877307
1.944622
1.852931
1.844681
1.80268
1.80268
1.752428
1.71174
1.653613
1.594174
1.619674
1.564173
1.522734
1.532672
1.575611
1.575611
1.632237
1.71549
1.780179
1.853682
1.935809
1.853682
1.846181
1.79743
1.756929
1.756929
1.712302
1.649675
1.587611
1.616299
1.56286
1.503608
1.530234
1.569048
1.569048
1.621174
1.705177
1.775117
1.851057
1.928496
1.849931
1.827243
1.793867
1.754304
1.754304
1.706865
1.65155
1.585173
1.614049
1.56661
1.513359
1.531359
1.568485
1.619112
1.619112
1.70874
1.771554
1.831931
1.926621
1.861182
1.842994
1.809618
1.758054
1.719427
1.719427
1.665426
1.602799
1.619487
1.582923
1.521421
1.533609
1.564735
1.608424
1.698239
1.698239
1.764616
1.840931
1.934872
1.869057
1.844869
1.81093
1.768179
1.716052
1.716052
1.665238
1.598486
1.617237
1.590611
1.519171
1.532297
1.563423
1.612174
1.696927
1.696927
1.766117
1.830993
1.937497
1.87862
1.843556
1.817493
1.773992
1.730865
1.680051
1.680051
1.614799
1.605236
1.593424
1.513359
1.530797
1.551422
1.614049
1.684926
1.751116
1.751116
1.819555
1.923996
1.888183
1.846556
1.820118
1.776804
1.734803
1.682489
1.611612
1.611612
1.606362
1.607112
1.521796
1.530609
1.558923
1.607112
1.689052
1.750928
1.750928
1.818243
1.925496
1.893808
1.850869
1.824243
1.785992
1.738553
1.686614
1.619862
1.619862
1.611049
1.618549
1.518796
1.531172
1.557235
1.601674
1.677614
1.745303
1.80718
1.80718
1.908996
1.902433
1.848619
1.820681
1.779804
1.728803
1.682864
1.616112
1.591736
1.591736
1.620424
1.515234
1.521984
1.552172
1.598861
1.665988
1.744178
1.804368
1.899245
1.899245
1.905621
1.845244
1.81693
1.770617
1.728428
1.686802
1.619112
1.589674
1.589674
1.6238
1.509233
1.518609
1.54786
1.592111
1.658113
1.731615
1.793867
1.891933
1.891933
1.89737
1.847869
1.822556
1.782054
1.730678
1.701052
1.614237
1.578986
1.619862
1.619862
1.510546
1.505671
1.518984
1.563423
1.630737
1.703302
1.759366
1.851619
1.883307
1.883307
1.830993
1.79293
1.753741
1.705927
1.665426
1.583861
1.55761
1.585736
1.490671
1.490671
1.479795
1.504171
1.55011
1.617612
1.699177
1.764054
1.850869
1.89587
1.89587
1.831368
1.81093
1.775867
1.729553
1.691302
1.631862
1.579923
1.614424
1.535109
1.535109
1.515796
1.536422
1.576548
1.636737
1.723365
1.787867
1.866807
1.930184
1.848619
1.848619
1.833056
1.80268
1.751303
1.70799
1.647613
1.589111
1.626425
1.560423
1.525921
1.525921
1.535109
1.579361
1.634112
1.721303
1.782804
1.864932
1.933184
1.856119
1.834556
1.834556
1.79743
1.755804
1.711177
1.650238
1.594924
1.628675
1.558735
1.518609
1.53961
1.53961
1.580486
1.631112
1.723928
1.783367
1.875807
1.945747
1.858744
1.843181
1.843181
1.812055
1.764616
1.71699
1.64855
1.595486
1.620799
1.56136
1.516921
1.534547
1.534547
1.57336
1.626612
1.71249
1.771929
1.855182
1.946497
1.847869
1.828368
1.809618
1.809618
1.766679
1.714927
1.650425
1.592861
1.614987
1.580298
1.526484
1.546735
1.583861
1.583861
1.629612
1.704427
1.749241
1.820493
1.920246
1.845244
1.822931
1.801742
1.769304
1.769304
1.696552
1.613299
1.527047
1.503046
1.413793
1.31104
1.296414
1.291164
1.291164
1.295102
1.331291
1.353979
1.431419
1.503608
1.401793
1.437231
1.459732
1.600736
1.600736
1.746241
1.765554
1.665988
1.656051
1.673114
1.680426
1.792555
1.921559
2.11694
2.11694
2.305195
2.398573
2.490263
2.565078
2.499639
2.447325
2.391823
2.298633
2.223255
2.223255
2.143753
2.046625
2.008561
1.960935
1.834556
1.811118
1.814118
1.833431
1.880307
1.880307
1.903746
1.925309
1.996186
1.929434
1.865494
1.827618
1.780742
1.726553
1.726553
1.665426
1.592674
1.579923
1.579736
1.492358
1.513734
1.517671
1.567548
1.643675
1.643675
1.708177
1.763116
1.871307
1.832493
1.78918
1.763116
1.715115
1.667488
1.618174
1.618174
1.553672
1.541484
1.554047
1.459545
1.463295
1.491608
1.535672
1.613112
1.687176
1.687176
1.753741
1.844494
1.838494
1.78768
1.759179
1.72449
1.671239
1.613112
1.55461
1.55461
1.533609
1.562485
1.450919
1.460295
1.491045
1.532672
1.601674
1.686989
1.752428
1.752428
1.852556
1.843181
1.789367
1.761054
1.735928
1.680426
1.639925
1.563423
1.563423
1.536984
1.572986
1.467982
1.476795
1.500796
1.532859
1.604674
1.681739
1.752241
1.752241
1.845431
1.853682
1.794805
1.773429
1.742866
1.689239
1.648925
1.581048
1.543172
1.543172
1.581423
1.476608
1.476608
1.498171
1.537359
1.603174
1.673864
1.741741
1.840931
1.840931
1.857807
1.796867
1.778867
1.736115
1.685114
1.646113
1.587423
1.528922
1.577111
1.577111
1.479045
1.466295
1.48767
1.533422
1.595111
1.671801
1.73724
1.832306
1.832306
1.858557
1.79518
1.780179
1.741553
1.686802
1.643675
1.580861
1.529672
1.56961
1.56961
1.479795
1.458232
1.480545
1.517671
1.580298
1.657926
1.722803
1.801742
1.860057
1.860057
1.785992
1.766304
1.740241
1.672364
1.6373
1.574486
1.518984
1.55461
1.472482
1.472482
1.442482
1.456919
1.495171
1.550297
1.6403
1.692239
1.777554
1.834931
1.758804
1.758804
1.744553
1.704052
1.652863
1.611612
1.536234
1.482983
1.516734
1.449419
1.449419
1.400293
1.416418
1.442669
1.506796
1.583861
1.64105
1.713615
1.785617
1.702739
1.702739
1.680426
1.642925
1.591361
1.54936
1.485233
1.422793
1.452232
1.394293
1.346666
1.346666
1.357166
1.390543
1.439294
1.528922
1.589674
1.661113
1.746053
1.670114
1.648175
1.648175
1.621174
1.575423
1.529672
1.46742
1.408543
1.431419
1.381355
1.331666
1.347041
1.347041
1.379667
1.426169
1.517484
1.578986
1.650238
1.744553
1.670114
1.650238
1.621924
1.621924
1.572423
1.531922
1.478295
1.417543
1.434606
1.406106
1.350791
1.369729
1.369729
1.405355
1.458795
1.553297
1.618737
1.686614
1.79818
1.742116
1.717365
1.694114
1.694114
1.655113
1.615737
1.568485
1.509233
1.524796
1.512234
1.441544
1.463107
1.501358
1.501358
1.553485
1.64105
1.710052
1.778304
1.887245
1.838681
1.80418
1.781117
1.745866
1.745866
1.709677
1.656051
1.593611
1.592674
1.594924
1.514109
1.528734
1.562298
1.612549
1.612549
1.698614
1.766491
1.825556
1.935247
1.901871
1.862682
1.839431
1.800805
1.755429
1.755429
1.700114
1.634112
1.627737
1.628487
1.536047
1.54486
1.576548
1.624362
1.624362
1.702364
1.774179
1.831931
1.943497
1.915371
1.868682
1.836994
1.798555
1.752053
1.752053
1.705552
1.63205
1.614987
1.64105
1.537172
1.54861
1.568298
1.618549
1.694677
1.694677
1.762929
1.824618
1.929246
1.915934
1.865494
1.843181
1.804555
1.756929
1.710802
1.710802
1.63805
1.610674
1.63505
1.533234
1.537734
1.606174
1.673114
1.750741
1.811493
1.911058
1.911058
1.904308
1.854244
1.829493
1.79068
1.741928
1.696177
1.62155
1.595674
1.595674
1.615737
1.517859
1.522171
1.54936
1.591736
1.668426
1.740428
1.803243
1.894933
1.894933
1.908058
1.851807
1.825181
1.783554
1.730865
1.694677
1.62905
1.589486
1.634675
1.634675
1.523296
1.525734
1.54861
1.590986
1.659801
1.739866
1.791617
1.891558
1.913308
1.913308
1.848431
1.823493
1.784867
1.736866
1.701052
1.617987
1.575611
1.614612
1.529484
1.529484
1.510734
1.526859
1.57336
1.63505
1.71699
1.784867
1.873557
1.919121
1.844494
1.844494
1.827056
1.788242
1.73574
1.695802
1.625487
1.572235
1.618924
1.527984
1.527984
1.509421
1.531734
1.570548
1.628112
1.71549
1.774179
1.863994
1.918184
1.845056
1.845056
1.823681
1.790305
1.741741
1.700864
1.62755
1.580111
1.611424
1.547297
1.511859
1.511859
1.530047
1.57261
1.627737
1.71399
1.780742
1.858182
1.930559
1.852369
1.838681
1.838681
1.80343
1.745678
1.70724
1.637487
1.586861
1.623237
1.561735
1.520296
1.533422
1.533422
1.573735
1.62605
1.714365
1.770617
1.852369
1.935059
1.846931
1.826493
1.826493
1.79593
1.755991
1.709677
1.646113
1.586486
1.615737
1.560423
1.512796
1.533797
1.533797
1.568298
1.619299
1.708177
1.766866
1.839431
1.923246
1.848056
1.834369
1.800992
1.800992
1.754304
1.71324
1.650425
1.598111
1.614799
1.569985
1.510359
1.532109
1.56961
1.56961
1.617237
1.70499
1.769304
1.833618
1.932809
1.860994
1.835306
1.800992
1.756741
1.756741
1.710427
1.6538
1.591549
1.600924
1.568673
1.505858
1.524609
1.556298
1.556298
1.604861
1.692989
1.759929
1.830618
1.929059
1.862682
1.833806
1.806243
1.768742
1.768742
1.722428
1.665426
1.600736
1.610487
1.590799
1.513734
1.523672
1.559485
1.607674
1.607674
1.688864
1.755804
1.821431
1.925121
1.871682
1.839994
1.806993
1.761241
1.720365
1.720365
1.658863
1.599236
1.596424
1.589674
1.502483
1.516546
1.552547
1.605986
1.686239
1.686239
1.761054
1.80643
1.921559
1.874495
1.832868
1.810743
1.770242
1.721678
1.670488
1.670488
1.602424
1.595111
1.604111
1.508859
1.524047
1.554047
1.598486
1.671988
1.671988
1.743991
1.796867
1.902808
1.87937
1.826493
1.79893
1.755241
1.708365
1.664113
1.664113
1.587611
1.575611
1.590799
1.488233
1.494983
1.517484
1.560235
1.631112
1.70724
1.70724
1.770429
1.863244
1.858182
1.810368
1.784492
1.747741
1.700489
1.660176
1.603924
1.603924
1.575798
1.613487
1.496671
1.506608
1.539047
1.586861
1.660363
1.742116
1.797055
1.797055
1.901308
1.90112
1.846369
1.825181
1.78918
1.738366
1.694489
1.62305
1.62305
1.586111
1.617799
1.517109
1.530047
1.55086
1.595486
1.661301
1.738178
1.801742
1.801742
1.904496
1.913121
1.854807
1.835681
1.79068
1.757679
1.715677
1.6388
1.599986
1.599986
1.628862
1.538859
1.536609
1.55836
1.599236
1.671614
1.745491
1.81318
1.900371
1.900371
1.927371
1.859119
1.833806
1.798742
1.752803
1.709115
1.638613
1.587236
1.626987
1.626987
1.538672
1.525172
1.551797
1.597736
1.668613
1.740616
1.805305
1.887058
1.887058
1.935809
1.856682
1.839994
1.802118
1.759554
1.717365
1.650238
1.590986
1.629425
1.629425
1.543735
1.527797
1.551422
1.588361
1.64405
1.734053
1.79143
1.882933
1.943122
1.943122
1.869244
1.848619
1.812055
1.755241
1.704239
1.628675
1.581611
1.625675
1.546547
1.546547
1.520859
1.538672
1.554235
1.601111
1.673864
1.684739
1.71924
1.753928
1.642175
1.642175
1.586298
1.528172
1.440981
1.367479
1.30579
1.287789
1.290039
1.285352
1.297727
1.297727
1.505108
1.70799
1.78618
1.823306
1.860057
1.936184
2.103064
2.094251
2.094251
2.183692
2.324134
2.365947
2.329571
2.248569
2.174691
2.173004
2.108502
2.032749
2.032749
2.041937
2.049625
2.072876
2.123315
2.149941
2.192692
2.232256
2.109814
2.080189
2.080189
2.013999
1.931121
1.844119
1.757491
1.662988
1.658488
1.592486
1.526859
1.536422
1.536422
1.565298
1.605611
1.695614
1.751491
1.815805
1.917621
1.840181
1.81543
1.769679
1.769679
1.733303
1.681739
1.616674
1.556298
1.56286
1.525359
1.461232
1.47717
1.47717
1.505483
1.556485
1.63955
1.702739
1.764241
1.863807
1.799117
1.772492
1.750366
1.750366
1.702927
1.667488
1.610862
1.540922
1.549547
1.534547
1.452419
1.455607
1.48917
1.48917
1.548797
1.638988
1.701802
1.772867
1.873182
1.817868
1.785617
1.760304
1.716615
1.716615
1.672739
1.607674
1.54936
1.548797
1.539984
1.456732
1.475857
1.508296
1.545047
1.545047
1.6328
1.697864
1.768179
1.854432
1.826493
1.773992
1.745866
1.702552
1.702552
1.657551
1.605236
1.537734
1.527609
1.534922
1.442669
1.45617
1.491421
1.539235
1.539235
1.614424
1.689239
1.747178
1.860057
1.836994
1.787304
1.755429
1.716615
1.662051
1.662051
1.603736
1.540922
1.525359
1.55911
1.452232
1.455794
1.48017
1.523109
1.595861
1.595861
1.675176
1.732178
1.837181
1.821243
1.765366
1.737053
1.702177
1.659426
1.606549
1.606549
1.535859
1.513359
1.541297
1.430856
1.438356
1.465545
1.510171
1.580111
1.658301
1.658301
1.728803
1.830243
1.822743
1.765554
1.752803
1.70349
1.645738
1.609549
1.609549
1.540359
1.510734
1.537547
1.426544
1.425793
1.452982
1.491796
1.558548
1.6403
1.6403
1.700677
1.788992
1.806055
1.751678
1.731053
1.701989
1.642925
1.600361
1.530609
1.530609
1.485233
1.524421
1.413043
1.399543
1.410231
1.446419
1.499108
1.575986
1.647238
1.647238
1.740053
1.752616
1.689427
1.667488
1.62605
1.577486
1.526109
1.455044
1.419231
1.419231
1.441919
1.356416
1.338041
1.370104
1.405543
1.465545
1.544297
1.619299
1.702364
1.702364
1.743428
1.671801
1.650613
1.607112
1.556298
1.512046
1.430669
1.384167
1.384167
1.429731
1.349104
1.328665
1.345353
1.380042
1.444732
1.525359
1.578986
1.677801
1.677801
1.71849
1.6463
1.619112
1.589111
1.541484
1.495921
1.426169
1.376292
1.408731
1.408731
1.344416
1.31254
1.330541
1.366729
1.415668
1.491421
1.563423
1.640488
1.71024
1.71024
1.625675
1.619487
1.599799
1.554235
1.521421
1.459357
1.399918
1.445294
1.399918
1.399918
1.358292
1.390167
1.437231
1.492546
1.578986
1.647425
1.726928
1.819931
1.819931
1.747553
1.722615
1.688864
1.661301
1.624549
1.564548
1.506608
1.54261
1.506421
1.506421
1.472482
1.494796
1.520296
1.575798
1.671239
1.730115
1.80418
1.903183
1.826118
1.826118
1.800617
1.770429
1.713427
1.681739
1.62305
1.566423
1.579548
1.54261
1.49292
1.49292
1.509984
1.549547
1.591924
1.684926
1.745678
1.79968
1.907308
1.842619
1.835681
1.835681
1.802493
1.753741
1.72149
1.655676
1.597174
1.602424
1.556485
1.483545
1.483545
1.501921
1.529109
1.581236
1.662238
1.739491
1.80643
1.913871
1.842806
1.822743
1.822743
1.80343
1.758429
1.705927
1.654926
1.599611
1.621737
1.596236
1.518609
1.520859
1.520859
1.542985
1.653425
1.726553
1.781492
1.894745
1.845806
1.814493
1.784867
1.756929
1.714927
1.714927
1.6538
1.584986
1.597174
1.593611
1.503608
1.502108
1.551985
1.591361
1.591361
1.6538
1.725053
1.778304
1.878057
1.826118
1.79068
1.762179
1.71774
1.670676
1.670676
1.611799
1.54336
1.538859
1.542047
1.461045
1.472482
1.496108
1.543735
1.623987
1.623987
1.698427
1.761616
1.87112
1.845244
1.805118
1.777367
1.731803
1.683239
1.632425
1.632425
1.550672
1.548985
1.574111
1.474358
1.484295
1.507921
1.54561
1.619674
1.684176
1.684176
1.743053
1.848994
1.831556
1.776054
1.758241
1.719615
1.671426
1.610299
1.610299
1.533609
1.508296
1.542985
1.438544
1.455607
1.47642
1.512609
1.585361
1.677426
1.677426
1.744741
1.839431
1.851619
1.802305
1.776054
1.728428
1.676864
1.631487
1.569048
1.569048
1.519546
1.557235
1.441919
1.465545
1.493483
1.533609
1.599986
1.687927
1.744178
1.744178
1.844681
1.855557
1.800617
1.784117
1.758241
1.716615
1.669363
1.607299
1.563423
1.563423
1.603174
1.510171
1.512421
1.525547
1.575611
1.648738
1.71624
1.769679
1.769679
1.864744
1.89137
1.837556
1.821243
1.774929
1.734241
1.689989
1.619487
1.575798
1.575798
1.619487
1.536234
1.519734
1.542985
1.571673
1.630737
1.694302
1.768554
1.860432
1.860432
1.888745
1.819743
1.814118
1.776054
1.727678
1.686614
1.619487
1.565298
1.613674
1.613674
1.529859
1.503046
1.506421
1.551422
1.629987
1.697677
1.767804
1.843556
1.889308
1.889308
1.813368
1.79668
1.760491
1.717177
1.671051
1.594174
1.541672
1.592486
1.527984
1.527984
1.495733
1.510546
1.548047
1.608987
1.688864
1.757679
1.835868
1.906183
1.906183
1.824243
1.804368
1.772492
1.732553
1.685864
1.622487
1.566423
1.608237
1.535672
1.535672
1.498733
1.524047
1.563798
1.614237
1.698614
1.762929
1.834556
1.903746
1.832868
1.832868
1.824618
1.785054
1.734991
1.679864
1.623237
1.559485
1.580111
1.535297
1.47642
1.47642
1.493296
1.520484
1.55611
1.637112
1.709677
1.793305
1.857807
1.794617
1.780179
1.780179
1.745303
1.690364
1.663926
1.606924
1.564923
1.582361
1.546547
1.482795
1.482795
1.488233
1.530234
1.593236
1.704615
1.774554
1.844681
1.913683
1.836994
1.821431
1.821431
1.798555
1.763491
1.730865
1.661676
1.599986
1.597174
1.566048
1.512796
1.531172
1.531172
1.568298
1.626237
1.706302
1.764991
1.823868
1.939372
1.89512
1.870557
1.828743
1.828743
1.773804
1.738741
1.682864
1.618924
1.642363
1.588361
1.504171
1.523859
1.561923
1.561923
1.620049
1.709302
1.78918
1.851619
1.951935
1.89887
1.853307
1.832868
1.832868
1.797617
1.750366
1.702177
1.6418
1.632425
1.6313
1.522359
1.525172
1.546547
1.546547
1.589674
1.675739
1.752053
1.808868
1.926996
1.89062
1.851057
1.827056
1.788992
1.788992
1.744553
1.687739
1.638425
1.620799
1.630737
1.534734
1.564548
1.580486
1.601486
1.601486
1.695989
1.765554
1.808493
1.927371
1.905808
1.857807
1.815055
1.758616
1.72449
1.72449
1.708927
1.65305
1.637112
1.655863
1.546547
1.540922
1.578611
1.62905
1.62905
1.713427
1.769491
1.845806
1.970498
1.943497
1.874307
1.834743
1.753366
1.667676
1.667676
1.573173
1.447169
1.394293
1.403105
1.287602
1.271664
1.269601
1.281039
1.313853
1.313853
1.388292
1.509046
1.818618
1.975185
1.958122
1.894183
1.825743
1.751303
1.734803
1.734803
1.730678
1.811118
2.003311
1.991123
1.999186
1.989248
2.020374
2.099689
2.162503
2.162503
2.19738
2.28457
2.309508
2.221943
2.185004
2.132878
2.052063
1.984936
1.88612
1.88612
1.830806
1.842619
1.705177
1.644425
1.646863
1.662801
1.705739
1.757679
1.757679
1.808868
1.881245
1.920996
1.845619
1.826118
1.791242
1.724303
1.687739
1.628112
1.628112
1.575048
1.602237
1.524421
1.488983
1.509421
1.553485
1.612924
1.684551
1.750741
1.750741
1.831556
1.86887
1.808493
1.798742
1.760491
1.706865
1.670114
1.610862
1.553297
1.553297
1.587611
1.504358
1.479233
1.507546
1.545797
1.602611
1.693927
1.764429
1.830056
1.830056
1.875995
1.811868
1.793492
1.754491
1.707052
1.656426
1.607112
1.554422
1.554422
1.583486
1.505483
1.480733
1.491608
1.534172
1.605049
1.675551
1.743241
1.833993
1.833993
1.914246
1.821056
1.809805
1.779429
1.731428
1.696927
1.625112
1.575611
1.609549
1.609549
1.552922
1.506421
1.516921
1.550485
1.600361
1.685301
1.729178
1.811305
1.888183
1.888183
1.819555
1.796305
1.764616
1.719052
1.679301
1.603362
1.542235
1.571486
1.515609
1.515609
1.47042
1.490296
1.539235
1.589486
1.676864
1.727115
1.812805
1.887808
1.887808
1.81243
1.80418
1.773054
1.734803
1.697302
1.638238
1.579736
1.594361
1.562298
1.562298
1.505483
1.519546
1.546172
1.589861
1.682676
1.746053
1.808868
1.895683
1.836806
1.836806
1.814305
1.784679
1.741366
1.694302
1.6268
1.572235
1.573735
1.560235
1.493108
1.493108
1.504546
1.537922
1.586673
1.666176
1.735365
1.799492
1.869995
1.81618
1.800992
1.800992
1.770804
1.721865
1.683426
1.611987
1.541484
1.563048
1.545422
1.476983
1.490671
1.490671
1.519171
1.553297
1.637675
1.698239
1.760679
1.844119
1.78693
1.751678
1.751678
1.727115
1.686051
1.640112
1.586861
1.512609
1.506608
1.507546
1.428981
1.428044
1.428044
1.448107
1.503233
1.578611
1.64555
1.703677
1.802305
1.764804
1.714365
1.701614
1.701614
1.678551
1.600174
1.538672
1.487858
1.473232
1.482983
1.403668
1.413418
1.436856
1.436856
1.466107
1.543735
1.595111
1.672926
1.774554
1.762554
1.708177
1.678739
1.647988
1.647988
1.594549
1.540172
1.466482
1.443232
1.458982
1.371229
1.388105
1.407605
1.407605
1.462357
1.531172
1.602611
1.654738
1.752991
1.742678
1.714177
1.681364
1.634112
1.634112
1.586673
1.531359
1.476045
1.45617
1.47867
1.385667
1.398793
1.429919
1.482233
1.482233
1.554798
1.634862
1.706677
1.79518
1.808118
1.768179
1.753553
1.720927
1.679676
1.679676
1.635987
1.572986
1.543922
1.57186
1.489545
1.498171
1.538484
1.579173
1.653238
1.653238
1.732553
1.795367
1.896995
1.914246
1.863244
1.841119
1.792367
1.745866
1.689239
1.689239
1.6298
1.588548
1.628862
1.54561
1.547672
1.583298
1.626987
1.692802
1.692802
1.762554
1.832493
1.911433
1.944059
1.887245
1.864744
1.831931
1.783367
1.738366
1.738366
1.655863
1.622487
1.644425
1.563798
1.556672
1.581611
1.627175
1.686614
1.770429
1.770429
1.825743
1.899433
1.938622
1.87487
1.870932
1.818243
1.753366
1.710802
1.652488
1.652488
1.604299
1.64705
1.578986
1.547485
1.574486
1.604674
1.666176
1.752053
1.807743
1.807743
1.88237
1.945184
1.883682
1.870745
1.831743
1.771742
1.72224
1.651363
1.651363
1.599799
1.621174
1.574298
1.545797
1.563798
1.611049
1.6523
1.738928
1.806055
1.806055
1.880682
1.943497
1.880307
1.859307
1.825931
1.779992
1.728803
1.657176
1.599986
1.599986
1.620612
1.569423
1.536797
1.55461
1.596986
1.655676
1.72824
1.789367
1.939559
1.853307
1.853307
1.844306
1.811118
1.775304
1.702927
1.638988
1.593236
1.602611
1.55536
1.524234
1.524234
1.539797
1.570735
1.621924
1.721115
1.794055
1.853682
1.918934
1.863807
1.863807
1.845994
1.810555
1.775679
1.740991
1.664863
1.602424
1.601674
1.575423
1.522734
1.522734
1.546172
1.566423
1.628487
1.713615
1.759366
1.833243
1.917808
1.867182
1.847306
1.847306
1.80868
1.775492
1.737615
1.662988
1.607487
1.617424
1.572235
1.519546
1.527609
1.527609
1.561548
1.611987
1.697677
1.761991
1.826868
1.909933
1.866994
1.845806
1.820868
1.820868
1.778679
1.726178
1.669363
1.612549
1.611799
1.589861
1.542985
1.563235
1.563235
1.592486
1.634112
1.715677
1.778492
1.838869
1.917246
1.88612
1.87037
1.836431
1.836431
1.797055
1.740241
1.682301
1.612362
1.593611
1.586298
1.529297
1.542985
1.572798
1.572798
1.624737
1.700864
1.773242
1.835494
1.917621
1.88162
1.852369
1.821431
1.788617
1.788617
1.736678
1.675364
1.616862
1.603924
1.595861
1.528734
1.543172
1.584423
1.62905
1.62905
1.693177
1.753928
1.833431
1.915934
1.911996
1.869995
1.835681
1.801367
1.763491
1.763491
1.695802
1.630362
1.609174
1.608987
1.548235
1.569235
1.589486
1.613299
1.613299
1.686427
1.777742
1.829118
1.901308
1.88912
1.873745
1.850494
1.812805
1.756554
1.756554
1.692614
1.626237
1.607862
1.615549
1.545985
1.556485
1.577111
1.617424
1.681739
1.681739
1.749991
1.815993
1.890433
1.896245
1.863994
1.842619
1.79968
1.748678
1.695802
1.695802
1.62905
1.597361
1.607487
1.562298
1.566798
1.602049
1.63355
1.691302
1.760116
1.760116
1.81168
1.878432
1.890245
1.861557
1.842806
1.806618
1.755429
1.692239
1.692239
1.629612
1.589674
1.586861
1.54561
1.535859
1.560048
1.597924
1.654926
1.726553
1.726553
1.789367
1.854057
1.887808
1.855369
1.838119
1.797242
1.738741
1.679114
1.6268
1.6268
1.584986
1.603174
1.518984
1.523484
1.55611
1.605424
1.662426
1.738178
1.80943
1.80943
1.873182
1.908996
1.876182
1.854619
1.819931
1.747741
1.698802
1.63505
1.599799
1.599799
1.607112
1.568673
1.558923
1.574486
1.620049
1.668613
1.73649
1.804555
1.804555
1.888745
1.923809
1.876182
1.861182
1.824806
1.776804
1.70799
1.647425
1.601111
1.601111
1.607112
1.563423
1.544672
1.56736
1.608049
1.666738
1.741928
1.778867
1.872432
1.872432
1.916496
1.879557
1.860807
1.834556
1.782804
1.725053
1.654738
1.598861
1.613862
1.613862
1.571673
1.549172
1.570548
1.607487
1.6493
1.72149
1.793867
1.864557
1.919871
1.919871
1.884995
1.864182
1.827993
1.780929
1.728428
1.665426
1.612737
1.608049
1.582548
1.582548
1.555735
1.56961
1.611612
1.662426
1.750741
1.780179
1.846181
1.923246
1.923246
1.894558
1.881245
1.839056
1.772117
1.725803
1.672551
1.614799
1.605799
1.585923
1.585923
1.55461
1.575048
1.611799
1.654363
1.71324
1.771554
1.844306
1.914246
1.875057
1.875057
1.869432
1.845244
1.787492
1.70799
1.628675
1.518421
1.470045
1.392605
1.316665
1.316665
1.297915
1.291539
1.294727
1.32154
1.359229
1.389042
1.422418
1.422043
1.464232
1.464232
1.589674
1.755429
1.783742
1.722053
1.612174
1.636925
1.671614
1.70649
1.70649
1.797242
1.940684
2.086376
2.190442
2.275007
2.326196
2.37776
2.351509
2.314945
2.314945
2.240693
2.184629
2.13344
2.044187
1.953622
1.882183
1.848994
1.756179
1.755054
1.755054
1.770054
1.784867
1.815618
1.842806
1.87187
1.927559
1.920809
1.884058
1.852182
1.852182
1.794055
1.73124
1.669926
1.611424
1.587423
1.597736
1.530797
1.525921
1.580111
1.580111
1.608049
1.657926
1.730865
1.794242
1.867182
1.856494
1.817118
1.78843
1.745678
1.745678
1.690364
1.635987
1.56811
1.543172
1.537172
1.482045
1.496858
1.530047
1.530047
1.576923
1.642738
1.695614
1.755804
1.841306
1.838869
1.800617
1.773992
1.732178
1.732178
1.675926
1.619299
1.550672
1.522171
1.534922
1.468545
1.475857
1.496483
1.551797
1.551797
1.612362
1.689052
1.747178
1.829493
1.839244
1.807743
1.781117
1.757304
1.700489
1.700489
1.633362
1.563048
1.520859
1.538484
1.47642
1.488983
1.526297
1.578423
1.626987
1.626987
1.70949
1.744928
1.837368
1.861744
1.806618
1.770992
1.733678
1.685301
1.629987
1.629987
1.56511
1.522734
1.539797
1.47717
1.492546
1.510359
1.553672
1.608237
1.608237
1.680426
1.745116
1.821243
1.855744
1.816368
1.791805
1.746803
1.693552
1.634487
1.634487
1.585361
1.537734
1.545985
1.485608
1.481858
1.503983
1.548422
1.607112
1.678176
1.678176
1.739116
1.80943
1.851807
1.809618
1.794992
1.759741
1.710615
1.652863
1.572986
1.572986
1.523109
1.530234
1.48167
1.474358
1.491983
1.537359
1.588548
1.662988
1.714552
1.714552
1.782429
1.854619
1.793867
1.772117
1.745116
1.689614
1.638988
1.573735
1.573735
1.522171
1.533422
1.48092
1.455232
1.483545
1.518796
1.579173
1.655113
1.712115
1.712115
1.790305
1.827243
1.796867
1.771742
1.735178
1.677989
1.612549
1.554985
1.484295
1.484295
1.498921
1.460295
1.430481
1.453169
1.481483
1.528359
1.604486
1.662801
1.728053
1.728053
1.775679
1.730303
1.715302
1.689239
1.635237
1.575986
1.494608
1.445294
1.444544
1.444544
1.416231
1.383605
1.392043
1.430481
1.480358
1.551047
1.608612
1.678926
1.741178
1.741178
1.698427
1.680426
1.650238
1.597549
1.540922
1.48392
1.416606
1.418856
1.418856
1.384917
1.350979
1.368417
1.395793
1.438169
1.510171
1.576173
1.63355
1.695802
1.695802
1.674614
1.657176
1.6298
1.585548
1.528922
1.472482
1.411543
1.410793
1.393355
1.393355
1.353229
1.367667
1.413793
1.469857
1.545985
1.609549
1.667863
1.748491
1.724115
1.724115
1.711927
1.691114
1.651925
1.609362
1.538297
1.485795
1.485233
1.476608
1.435169
1.435169
1.458045
1.49292
1.542047
1.603362
1.700114
1.752616
1.832868
1.809243
1.809243
1.79068
1.762554
1.728053
1.668426
1.626612
1.571486
1.553485
1.545235
1.488795
1.488795
1.508859
1.534359
1.587611
1.666738
1.72674
1.782242
1.871495
1.857807
1.830243
1.830243
1.813555
1.777742
1.723928
1.646675
1.578423
1.564548
1.575236
1.511296
1.516359
1.516359
1.545985
1.591736
1.65305
1.725615
1.784867
1.866994
1.862869
1.820493
1.797617
1.797617
1.754116
1.695052
1.634487
1.576736
1.546922
1.55461
1.479045
1.498358
1.498358
1.545422
1.580298
1.642738
1.716615
1.776429
1.846181
1.852369
1.81918
1.79593
1.79593
1.756554
1.70874
1.65155
1.588173
1.551422
1.561735
1.492546
1.502296
1.536609
1.536609
1.56211
1.6403
1.708927
1.773242
1.848619
1.86887
1.822368
1.798742
1.762366
1.762366
1.713802
1.646113
1.577861
1.539797
1.55161
1.487483
1.489358
1.522171
1.563423
1.563423
1.62605
1.697677
1.746241
1.843744
1.866432
1.805118
1.790492
1.756929
1.756929
1.706677
1.650613
1.582361
1.538672
1.551422
1.501171
1.49292
1.515796
1.561735
1.561735
1.612924
1.690364
1.749053
1.815055
1.812243
1.792555
1.750741
1.694489
1.646113
1.581423
1.581423
1.532672
1.542422
1.487108
1.469482
1.500046
1.531922
1.595299
1.666551
1.666551
1.73724
1.799867
1.848056
1.792742
1.783929
1.752803
1.699927
1.642738
1.563423
1.563423
1.541297
1.551422
1.502296
1.480545
1.493296
1.532484
1.602049
1.665426
1.729178
1.729178
1.79818
1.848056
1.791992
1.790492
1.754866
1.708177
1.6463
1.575048
1.527984
1.527984
1.544672
1.507359
1.47792
1.496296
1.547297
1.588736
1.671614
1.733865
1.799117
1.799117
1.854244
1.802118
1.78918
1.758804
1.714552
1.648925
1.585361
1.529672
1.529672
1.534922
1.502671
1.479795
1.48992
1.539235
1.590799
1.664676
1.73274
1.799117
1.799117
1.86737
1.820868
1.807555
1.764241
1.714927
1.659238
1.578423
1.541484
1.54336
1.54336
1.498171
1.472482
1.491045
1.525734
1.578048
1.658301
1.716427
1.777367
1.852744
1.852744
1.812243
1.79218
1.766304
1.720552
1.666176
1.598299
1.541109
1.531734
1.508671
1.508671
1.473607
1.490296
1.534734
1.584798
1.645175
1.717177
1.783742
1.857432
1.824056
1.824056
1.790867
1.757866
1.717927
1.658301
1.605611
1.528547
1.526672
1.502108
1.502108
1.475108
1.48992
1.530984
1.581048
1.635237
1.717927
1.763491
1.79668
1.796492
1.796492
1.797242
1.770429
1.718115
1.664488
1.599424
1.539235
1.494796
1.460482
1.46742
1.46742
1.48317
1.520296
1.569048
1.629425
1.695239
1.757116
1.787492
1.801367
1.789929
1.789929
1.767429
1.723178
1.663363
1.602049
1.544297
1.495358
1.472857
1.467795
1.491608
1.491608
1.520484
1.565673
1.629425
1.683426
1.755616
1.780554
1.795742
1.78768
1.78768
1.773617
1.725803
1.672551
1.595861
1.549735
1.508296
1.472107
1.452607
1.468732
1.468732
1.505483
1.557797
1.624737
1.694302
1.758241
1.783554
1.800617
1.802118
1.766866
1.766866
1.737803
1.670114
1.595486
1.533984
1.47567
1.443044
1.451294
1.46817
1.494421
1.494421
1.534734
1.599236
1.662801
1.727303
1.754866
1.769866
1.773992
1.743991
1.702552
1.702552
1.654551
1.585923
1.512234
1.465357
1.429544
1.431231
1.445857
1.48392
1.528922
1.528922
1.598674
1.659988
1.730303
1.779617
1.79893
1.794805
1.761429
1.728053
1.728053
1.685676
1.62155
1.540735
1.511859
1.47192
1.473232
1.485045
1.505671
1.553485
1.553485
1.611049
1.687927
1.744741
1.78693
1.809055
1.801555
1.757679
1.757491
1.696927
1.696927
1.6283
1.554798
1.508484
1.46892
1.464045
1.473795
1.495171
1.540172
1.604486
1.604486
1.686614
1.748303
1.800242
1.814118
1.807743
1.780179
1.749053
1.707615
1.6328
1.6328
1.568298
1.515234
1.471357
1.447732
1.493671
1.505858
1.546172
1.602799
1.602799
1.680239
1.752241
1.79443
1.809993
1.817868
1.801367
1.758991
1.700864
1.634675
1.634675
1.570173
1.513546
1.470232
1.459357
1.471357
1.490671
1.535484
1.597924
1.673114
1.673114
1.736866
1.79293
1.815243
1.813555
1.798742
1.763304
1.701052
1.6358
1.57186
1.57186
1.521609
1.46967
1.449794
1.461795
1.484858
1.515046
1.56811
1.648738
1.718678
1.718678
1.772679
1.793305
1.806055
1.78843
1.732928
1.650988
1.551985
1.416231
1.416231
1.327728
1.275976
1.265289
1.260413
1.258351
1.258726
1.260976
1.275226
1.280289
1.280289
1.310853
1.365979
1.521609
1.752616
1.830243
1.79593
1.680614
1.64105
1.621362
1.621362
1.668988
1.719052
1.851807
1.986811
2.077188
2.14394
2.212568
2.238818
2.302008
2.302008
2.319446
2.292258
2.229256
2.184254
2.104002
2.021687
1.918746
1.803055
1.71699
1.71699
1.676489
1.657363
1.6508
1.650988
1.680051
1.735365
1.770804
1.815805
1.837556
1.837556
1.834556
1.81618
1.775117
1.726365
1.669176
1.586861
1.526109
1.470607
1.470607
1.450544
1.433481
1.452794
1.483545
1.537172
1.621362
1.668238
1.742678
1.766679
1.766679
1.762741
1.749428
1.716052
1.666363
1.620987
1.554235
1.476233
1.410606
1.401043
1.401043
1.397668
1.421106
1.451669
1.509046
1.599986
1.671614
1.714927
1.738366
1.762929
1.762929
1.748491
1.719052
1.678364
1.611049
1.530609
1.478108
1.429919
1.40498
1.39598
1.39598
1.408168
1.440231
1.507171
1.599236
1.667488
1.729178
1.756179
1.785054
1.779804
1.779804
1.752803
1.705927
1.655488
1.57261
1.511671
1.439106
1.423356
1.413606
1.413606
1.433856
1.46667
1.527984
1.623987
1.680426
1.747928
1.770992
1.79968
1.795742
1.795742
1.759741
1.704239
1.659613
1.588548
1.506046
1.447357
1.411731
1.407793
1.416793
1.416793
1.441544
1.491421
1.596611
1.656988
1.725615
1.755991
1.769304
1.754304
1.734428
1.734428
1.691302
1.634675
1.559673
1.477357
1.414731
1.373854
1.370479
1.38323
1.414918
1.414918
1.47342
1.566235
1.646488
1.699739
1.743053
1.763679
1.741366
1.714177
1.714177
1.677239
1.618737
1.544297
1.47567
1.411918
1.368417
1.360541
1.377417
1.40348
1.40348
1.466295
1.563423
1.640675
1.706865
1.750178
1.773992
1.772304
1.753928
1.712115
1.712115
1.654551
1.584048
1.499671
1.397668
1.39373
1.394105
1.396168
1.430294
1.482983
1.482983
1.580673
1.656613
1.71474
1.757866
1.774554
1.763866
1.757304
1.694677
1.644425
1.644425
1.563985
1.482233
1.409105
1.365229
1.342166
1.344041
1.366167
1.40723
1.40723
1.499858
1.563423
1.626425
1.664488
1.685114
1.683239
1.659801
1.610299
1.554235
1.554235
1.472295
1.390543
1.323415
1.292289
1.281789
1.285914
1.29454
1.330353
1.421668
1.421668
1.492733
1.55686
1.601486
1.628862
1.623425
1.602049
1.568298
1.524234
1.449419
1.449419
1.364479
1.310853
1.285164
1.277664
1.280852
1.289852
1.31779
1.416231
1.492733
1.492733
1.560798
1.614987
1.643488
1.647238
1.634112
1.596611
1.554985
1.483733
1.39823
1.39823
1.335041
1.305227
1.302602
1.31029
1.332416
1.381355
1.484295
1.568298
1.568298
1.639363
1.700864
1.72749
1.738741
1.729365
1.697864
1.647613
1.587423
1.498546
1.498546
1.433669
1.384355
1.356041
1.367854
1.405355
1.446607
1.545235
1.630737
1.698614
1.698614
1.752053
1.782617
1.791805
1.781679
1.746991
1.699927
1.624737
1.543735
1.479608
1.479608
1.418856
1.399918
1.405168
1.430856
1.48392
1.582923
1.655301
1.730303
1.779617
1.779617
1.805868
1.821618
1.802305
1.770804
1.734615
1.661113
1.580298
1.501733
1.501733
1.450919
1.420918
1.420356
1.449044
1.493858
1.592861
1.682114
1.749053
1.812993
1.812993
1.855932
1.875432
1.857807
1.80343
1.757679
1.690739
1.605424
1.537734
1.48392
1.48392
1.450544
1.448669
1.471732
1.511671
1.610112
1.697114
1.759554
1.826868
1.861182
1.861182
1.870557
1.859494
1.824993
1.787492
1.707427
1.609737
1.527797
1.476795
1.446607
1.446607
1.442294
1.452607
1.476045
1.579361
1.671239
1.726553
1.794617
1.820493
1.820493
1.830806
1.815993
1.789555
1.752991
1.678176
1.589298
1.514109
1.449982
1.414731
1.414731
1.403668
1.417356
1.449044
1.550297
1.62905
1.694114
1.763304
1.80793
1.814118
1.814118
1.803055
1.736866
1.665051
1.571673
1.490671
1.431231
1.39898
1.392605
1.403105
1.442107
1.442107
1.538484
1.622862
1.695427
1.757679
1.794055
1.818993
1.80793
1.782617
1.743053
1.743053
1.676489
1.584611
1.507733
1.448107
1.404605
1.401418
1.413793
1.451294
1.536234
1.536234
1.619112
1.680426
1.764804
1.808118
1.824243
1.822556
1.800055
1.764241
1.764241
1.697677
1.615174
1.535484
1.46817
1.430856
1.418106
1.425418
1.455232
1.546547
1.546547
1.626612
1.712865
1.776429
1.827993
1.850869
1.848994
1.821806
1.782617
1.713052
1.713052
1.633362
1.54186
1.47567
1.436106
1.414918
1.432544
1.457857
1.550297
1.626987
1.626987
1.702364
1.788617
1.833056
1.838869
1.838119
1.814868
1.784867
1.713615
1.616487
1.616487
1.530609
1.463857
1.416606
1.406293
1.414918
1.439294
1.526859
1.608049
1.608049
1.693177
1.763866
1.806618
1.838681
1.836619
1.814868
1.779054
1.714552
1.620612
1.620612
1.534172
1.460482
1.414918
1.39823
1.408355
1.434419
1.521046
1.603924
1.685676
1.685676
1.756366
1.808493
1.834181
1.834181
1.824056
1.792367
1.72299
1.636362
1.55011
1.55011
1.47267
1.431044
1.412481
1.418856
1.437231
1.522922
1.603362
1.693739
1.770054
1.770054
1.81468
1.849181
1.855369
1.832681
1.800617
1.731053
1.639925
1.55311
1.491233
1.491233
1.435919
1.408731
1.408543
1.422418
1.517671
1.598861
1.690739
1.756929
1.756929
1.804743
1.842431
1.854244
1.833618
1.802493
1.741928
1.650613
1.554985
1.488233
1.488233
1.438544
1.413043
1.416043
1.431981
1.512234
1.595111
1.687176
1.749053
1.811868
1.811868
1.841119
1.849556
1.831368
1.790305
1.73799
1.637487
1.543547
1.47867
1.415856
1.415856
1.392043
1.386417
1.416418
1.502296
1.584048
1.668988
1.749616
1.800617
1.839056
1.839056
1.848994
1.834931
1.799492
1.73349
1.642925
1.545047
1.472107
1.416231
1.416231
1.38923
1.394105
1.417356
1.497233
1.584423
1.683051
1.750178
1.818431
1.852369
1.852369
1.855557
1.839619
1.815243
1.746241
1.657551
1.558173
1.48392
1.424481
1.400105
1.400105
1.383792
1.406668
1.489358
1.575048
1.661863
1.745116
1.810555
1.837744
1.855369
1.855369
1.843931
1.814118
1.746803
1.6448
1.547672
1.460295
1.402543
1.368229
1.359416
1.359416
1.381167
1.46142
1.545422
1.641237
1.711552
1.784679
1.828743
1.844119
1.834931
1.834931
1.815618
1.747178
1.657551
1.563423
1.478108
1.421668
1.398793
1.394293
1.394293
1.409855
1.494046
1.574298
1.667113
1.740991
1.811118
1.857432
1.879557
1.863244
1.863244
1.843369
1.787117
1.685864
1.592299
1.511109
1.444544
1.40573
1.399543
1.418481
1.418481
1.505296
1.580486
1.672364
1.762554
1.825181
1.856119
1.876745
1.868682
1.849744
1.849744
1.791242
1.699364
1.594736
1.513359
1.451669
1.414918
1.408168
1.434981
1.503608
1.503608
1.583673
1.669926
1.757491
1.840556
1.884807
1.894933
1.884433
1.86887
1.86887
1.790117
1.692052
1.604674
1.514484
1.445294
1.402355
1.39373
1.423731
1.491608
1.491608
1.575611
1.665426
1.751866
1.822556
1.878432
1.912933
1.89362
1.864369
1.797992
1.797992
1.703302
1.605986
1.509984
1.445107
1.411731
1.400293
1.427294
1.48392
1.56961
1.56961
1.662988
1.764804
1.821056
1.859307
1.88237
1.869807
1.831368
1.761241
1.668613
1.668613
1.583673
1.488233
1.405543
1.356979
1.329603
1.305415
1.318165
1.354541
1.428044
1.428044
1.485983
1.525172
1.559673
1.562485
1.560423
1.512046
1.418856
1.38398
1.38398
1.426544
1.570735
1.598861
1.539797
1.489358
1.516171
1.575986
1.752803
1.910121
1.910121
2.144878
2.353572
2.454638
2.460263
2.446387
2.38151
2.288695
2.178442
2.073813
2.073813
1.95906
1.864557
1.785804
1.738366
1.727115
1.73799
1.775117
1.842994
1.923996
1.923996
1.967685
1.996373
1.999936
1.976685
1.903746
1.81168
1.702177
1.595486
1.501733
1.501733
1.428231
1.38248
1.365042
1.382292
1.425981
1.507921
1.603924
1.691302
1.691302
1.759366
1.827618
1.858369
1.850119
1.820306
1.740053
1.6448
1.55611
1.464795
1.464795
1.390355
1.344416
1.330166
1.342353
1.38248
1.457482
1.55161
1.6508
1.734615
1.734615
1.79893
1.837181
1.839806
1.808493
1.741928
1.65005
1.54636
1.46142
1.39223
1.39223
1.341603
1.327916
1.336541
1.383792
1.460107
1.54261
1.638425
1.721678
1.797805
1.797805
1.826868
1.836994
1.812993
1.748678
1.666363
1.563048
1.47042
1.400855
1.355104
1.355104
1.331478
1.352291
1.39223
1.454669
1.551422
1.645175
1.728615
1.797055
1.797055
1.837931
1.848431
1.825556
1.758054
1.669551
1.575048
1.48317
1.407793
1.356416
1.356416
1.333916
1.342541
1.378355
1.453544
1.54561
1.638613
1.721303
1.79443
1.822743
1.822743
1.837931
1.813368
1.753366
1.674426
1.575986
1.487483
1.410606
1.360354
1.328853
1.328853
1.345729
1.375542
1.435919
1.528172
1.619112
1.709865
1.778492
1.826118
1.834369
1.834369
1.813743
1.755054
1.673864
1.577673
1.482795
1.400855
1.349479
1.32379
1.32379
1.331666
1.362229
1.419606
1.516921
1.603362
1.688676
1.759741
1.804743
1.824806
1.824806
1.795742
1.743991
1.662801
1.567735
1.468357
1.39148
1.341041
1.31104
1.31704
1.31704
1.341041
1.389792
1.479983
1.573548
1.657926
1.725803
1.767617
1.793867
1.766679
1.766679
1.71924
1.637487
1.539047
1.431794
1.348729
1.30579
1.284227
1.282727
1.29904
1.29904
1.333166
1.411918
1.507171
1.590424
1.666551
1.71774
1.734803
1.709115
1.709115
1.662613
1.581423
1.47567
1.373667
1.30429
1.279914
1.267539
1.266039
1.272039
1.272039
1.288727
1.359979
1.448107
1.527422
1.606362
1.664488
1.696177
1.664301
1.620424
1.620424
1.541109
1.448294
1.350604
1.292289
1.271476
1.264164
1.263226
1.268289
1.284039
1.284039
1.336728
1.422043
1.520671
1.598299
1.649675
1.683239
1.676489
1.630737
1.562485
1.562485
1.465357
1.374417
1.305602
1.275414
1.267539
1.267351
1.273914
1.292477
1.292477
1.358479
1.466107
1.55461
1.6388
1.697864
1.742116
1.729553
1.714927
1.639738
1.639738
1.54636
1.467232
1.374792
1.31479
1.291727
1.293602
1.31029
1.366917
1.455794
1.455794
1.55536
1.652488
1.728803
1.793867
1.835494
1.830618
1.793867
1.730678
1.650238
1.650238
1.554235
1.466107
1.410231
1.372542
1.367667
1.388292
1.440044
1.516171
1.614612
1.614612
1.705927
1.786367
1.857994
1.893058
1.89512
1.859119
1.787492
1.703302
1.703302
1.606174
1.516359
1.452607
1.40348
1.388105
1.410043
1.465545
1.536797
1.630175
1.630175
1.71549
1.796117
1.857244
1.896058
1.900933
1.867932
1.80118
1.712302
1.615174
1.615174
1.522734
1.457669
1.40423
1.38473
1.405918
1.451857
1.521421
1.614612
1.70649
1.70649
1.78843
1.858932
1.89212
1.903371
1.876557
1.803618
1.71174
1.613487
1.524047
1.524047
1.453919
1.40348
1.384167
1.395043
1.436669
1.513171
1.608987
1.698802
1.771554
1.771554
1.840931
1.880682
1.890808
1.855744
1.797242
1.703864
1.517859
1.443232
1.395605
1.395605
1.369542
1.384167
1.430856
1.501358
1.589298
1.680614
1.763304
1.835118
1.873745
1.873745
1.883682
1.857244
1.797805
1.707427
1.613862
1.512796
1.445857
1.385855
1.370854
1.370854
1.376855
1.414168
1.482795
1.570173
1.673489
1.743991
1.810368
1.851057
1.851057
1.882557
1.850119
1.79443
1.70874
1.622675
1.522734
1.440231
1.385855
1.353041
1.353041
1.359792
1.395793
1.464982
1.545985
1.642363
1.730115
1.797617
1.843181
1.859494
1.859494
1.836056
1.791055
1.710615
1.616299
1.519546
1.443982
1.388855
1.360354
1.363167
1.363167
1.402355
1.463107
1.546922
1.649488
1.732178
1.801367
1.848244
1.869244
1.856119
1.856119
1.80643
1.721865
1.618737
1.527609
1.458607
1.38848
1.364104
1.369354
1.369354
1.395605
1.457107
1.557047
1.657926
1.732553
1.806805
1.861182
1.882933
1.865307
1.865307
1.81093
1.737615
1.6373
1.538672
1.459169
1.402355
1.363729
1.363542
1.388667
1.388667
1.448107
1.541672
1.6328
1.724303
1.797805
1.847119
1.86737
1.855932
1.80793
1.80793
1.733865
1.643675
1.54861
1.462545
1.415856
1.362229
1.361292
1.398418
1.449232
1.449232
1.540922
1.64105
1.72374
1.788242
1.845056
1.88237
1.866619
1.81768
1.81768
1.749053
1.64855
1.554985
1.47417
1.415293
1.375917
1.373667
1.390543
1.446607
1.446607
1.541109
1.627175
1.70949
1.79893
1.850307
1.881245
1.87037
1.822931
1.747553
1.747553
1.653988
1.55536
1.469107
1.409293
1.370104
1.363167
1.386417
1.436669
1.524047
1.524047
1.620424
1.712302
1.791055
1.854432
1.88312
1.877307
1.840744
1.769679
1.669363
1.669363
1.576736
1.49292
1.421481
1.379855
1.374792
1.392605
1.439669
1.517671
1.517671
1.618924
1.70799
1.788805
1.853119
1.88312
1.881057
1.838681
1.772679
1.676301
1.676301
1.578611
1.490858
1.422231
1.39073
1.368979
1.387355
1.432919
1.517859
1.608987
1.608987
1.702552
1.784492
1.839244
1.864932
1.868495
1.839619
1.764054
1.683051
1.591361
1.591361
1.490483
1.422606
1.381917
1.367104
1.379855
1.421293
1.499671
1.589861
1.679114
1.679114
1.768366
1.820493
1.856307
1.858932
1.817305
1.749803
1.654176
1.55461
1.479608
1.479608
1.396543
1.357729
1.334291
1.350979
1.39448
1.464982
1.564548
1.657926
1.657926
1.743803
1.815055
1.855744
1.864557
1.839994
1.775492
1.685676
1.590986
1.504733
1.504733
1.436294
1.392792
1.37423
1.388105
1.434606
1.508109
1.596986
1.696739
1.773054
1.773054
1.844306
1.884995
1.899433
1.869432
1.80868
1.72074
1.616674
1.523109
1.449044
1.449044
1.402543
1.38248
1.393167
1.428044
1.504546
1.592111
1.688302
1.769304
1.834181
1.834181
1.87712
1.888745
1.868495
1.80868
1.71849
1.62155
1.532859
1.461982
1.402543
1.402543
1.37873
1.387542
1.429731
1.500983
1.593236
1.684364
1.771554
1.839244
1.839244
1.881995
1.899245
1.87337
1.821056
1.739303
1.640863
1.542797
1.47117
1.421481
1.421481
1.394293
1.39823
1.434044
1.499483
1.590236
1.683801
1.769491
1.839244
1.88687
1.88687
1.903933
1.881057
1.828368
1.741928
1.648738
1.549547
1.470982
1.416043
1.390355
1.390355
1.39373
1.426919
1.48917
1.585548
1.688114
1.773804
1.844494
1.890433
1.900745
1.900745
1.87862
1.829681
1.747741
1.649675
1.555172
1.486358
1.415293
1.365792
1.370854
1.370854
1.375167
1.386605
1.442857
1.494608
1.549735
1.597361
1.624549
1.613862
1.613862
1.556298
1.502108
1.421293
1.340478
1.297915
1.374792
1.528172
1.587236
1.554985
1.554985
1.538859
1.587611
1.662238
1.833806
1.996561
2.208817
2.377573
2.461013
2.415636
2.415636
2.331446
2.216693
2.107189
2.002749
1.907496
1.836994
1.79368
1.753928
1.748303
1.748303
1.774554
1.835494
1.901308
1.959435
2.014187
2.036875
2.040625
1.994123
1.915746
1.915746
1.81168
1.696364
1.588361
1.490483
1.411918
1.373667
1.365042
1.389417
1.389417
1.440981
1.522359
1.616112
1.711177
1.779992
1.834743
1.854432
1.845994
1.801367
1.801367
1.720365
1.617987
1.518796
1.434044
1.377042
1.345916
1.336166
1.359416
1.411168
1.411168
1.491983
1.588361
1.676114
1.755241
1.817118
1.842244
1.834556
1.795742
1.723553
1.723553
1.6283
1.539422
1.454107
1.391855
1.352291
1.340291
1.362979
1.407418
1.492546
1.492546
1.584423
1.676676
1.755991
1.818618
1.847494
1.847494
1.817493
1.746616
1.649488
1.649488
1.554985
1.467045
1.40198
1.360729
1.347979
1.361854
1.404418
1.48467
1.48467
1.585173
1.677989
1.758241
1.819743
1.843181
1.844869
1.810368
1.743803
1.650988
1.650988
1.54936
1.461232
1.394293
1.353041
1.336353
1.356791
1.398605
1.481483
1.578798
1.578798
1.673864
1.752616
1.810368
1.845244
1.853682
1.818993
1.750741
1.664488
1.56661
1.56661
1.476233
1.405168
1.358667
1.340853
1.359792
1.398418
1.473232
1.565485
1.659426
1.659426
1.739678
1.804743
1.839431
1.847681
1.818056
1.750554
1.661676
1.55836
1.55836
1.47492
1.39523
1.349291
1.326791
1.340291
1.381542
1.452419
1.542985
1.6403
1.6403
1.720552
1.787117
1.828743
1.841306
1.816743
1.752241
1.659988
1.563985
1.46817
1.46817
1.392605
1.345166
1.32454
1.337103
1.373479
1.440419
1.533234
1.625675
1.705552
1.705552
1.767991
1.80718
1.821431
1.797242
1.736115
1.647238
1.545797
1.448857
1.373854
1.373854
1.32454
1.304477
1.308415
1.337103
1.399543
1.48017
1.574111
1.663551
1.663551
1.72374
1.762366
1.767429
1.736115
1.679864
1.594736
1.49292
1.401605
1.324165
1.324165
1.290977
1.278414
1.278977
1.294727
1.341228
1.424481
1.512609
1.592674
1.656051
1.656051
1.705927
1.720178
1.698239
1.649863
1.56511
1.460482
1.371042
1.305602
1.278789
1.278789
1.270726
1.272226
1.284227
1.320415
1.403105
1.497233
1.582736
1.6493
1.696739
1.696739
1.719052
1.700489
1.65005
1.56811
1.476233
1.381355
1.312165
1.282539
1.282539
1.271664
1.276164
1.286102
1.326603
1.413606
1.509609
1.599424
1.679114
1.735178
1.735178
1.766304
1.755054
1.712115
1.636925
1.54636
1.45992
1.385105
1.337666
1.314415
1.314415
1.322103
1.349291
1.414168
1.512046
1.613862
1.702364
1.772867
1.838869
1.870182
1.870182
1.857244
1.819555
1.748116
1.656426
1.563985
1.486358
1.429169
1.39973
1.400855
1.400855
1.428794
1.484483
1.576548
1.679676
1.770242
1.844681
1.903933
1.930184
1.930184
1.921934
1.883495
1.807555
1.711177
1.614049
1.53811
1.475108
1.438544
1.439481
1.439481
1.464232
1.517484
1.600924
1.705739
1.789555
1.867557
1.926996
1.956997
1.942934
1.942934
1.905246
1.834181
1.738553
1.63655
1.55011
1.484483
1.448669
1.437044
1.462545
1.462545
1.513921
1.600549
1.694114
1.784492
1.863807
1.921559
1.948934
1.944809
1.905433
1.905433
1.836619
1.732365
1.633925
1.545422
1.477545
1.432919
1.424106
1.445857
1.445857
1.493108
1.56961
1.663176
1.751678
1.830056
1.896245
1.925309
1.925871
1.88837
1.88837
1.815243
1.72299
1.628487
1.541672
1.431419
1.415106
1.434794
1.476983
1.557797
1.649113
1.649113
1.740241
1.818243
1.881807
1.915558
1.920621
1.883682
1.812618
1.720178
1.621174
1.621174
1.534172
1.461232
1.412106
1.397293
1.417168
1.456919
1.531359
1.623612
1.72074
1.72074
1.794992
1.858369
1.88987
1.898495
1.866994
1.796305
1.707615
1.612924
1.526484
1.526484
1.457294
1.408731
1.392417
1.409105
1.450544
1.523484
1.623612
1.709302
1.709302
1.790117
1.855182
1.888933
1.894183
1.868495
1.809243
1.71924
1.617799
1.528547
1.528547
1.455607
1.40723
1.391292
1.40423
1.444732
1.518234
1.613862
1.704052
1.783554
1.783554
1.850307
1.891745
1.899058
1.87187
1.81768
1.73349
1.62755
1.531922
1.463857
1.463857
1.416606
1.389417
1.40423
1.444169
1.516921
1.607112
1.699364
1.786555
1.853307
1.853307
1.89662
1.910496
1.885182
1.827618
1.734803
1.644425
1.551235
1.479795
1.479795
1.428606
1.40198
1.417731
1.452232
1.509233
1.597924
1.697864
1.786367
1.855369
1.855369
1.900183
1.917058
1.891558
1.833243
1.750928
1.652675
1.559673
1.48392
1.427481
1.427481
1.401605
1.409105
1.440794
1.505671
1.595861
1.691302
1.776992
1.844119
1.895683
1.895683
1.913683
1.890995
1.838681
1.752053
1.652113
1.567173
1.494046
1.433856
1.399918
1.399918
1.410043
1.446607
1.501171
1.591924
1.692239
1.775867
1.849369
1.896808
1.913496
1.913496
1.896995
1.848056
1.765366
1.669926
1.579548
1.495733
1.435544
1.40273
1.40273
1.407793
1.436856
1.494796
1.585548
1.679676
1.769866
1.841681
1.89362
1.912183
1.912183
1.89662
1.856682
1.780367
1.682301
1.581048
1.503046
1.443044
1.400855
1.407418
1.407418
1.436106
1.495546
1.579173
1.672926
1.762554
1.834743
1.88762
1.910683
1.894745
1.894745
1.848431
1.774742
1.680614
1.584798
1.505296
1.445294
1.411168
1.407793
1.434231
1.434231
1.487295
1.575986
1.671988
1.760304
1.835494
1.89062
1.917246
1.900933
1.900933
1.860807
1.783554
1.683801
1.586486
1.508296
1.443982
1.40723
1.40123
1.425606
1.425606
1.48317
1.567735
1.665988
1.752053
1.830431
1.89212
1.911621
1.897745
1.863432
1.863432
1.779804
1.678551
1.585361
1.498546
1.438731
1.396543
1.384167
1.40348
1.457482
1.457482
1.537922
1.6268
1.70949
1.786742
1.846744
1.870557
1.863619
1.825368
1.749803
1.749803
1.657551
1.566048
1.48092
1.423731
1.39373
1.374979
1.400855
1.45617
1.54186
1.54186
1.646113
1.738366
1.814868
1.871495
1.901871
1.905433
1.88087
1.799867
1.799867
1.71099
1.611237
1.519546
1.452982
1.407793
1.39823
1.420731
1.468732
1.549735
1.549735
1.641613
1.737615
1.818431
1.883307
1.916121
1.915558
1.88087
1.816555
1.71999
1.71999
1.627175
1.535672
1.467982
1.424856
1.405918
1.422606
1.470045
1.545985
1.641988
1.641988
1.735365
1.815993
1.884245
1.919309
1.929059
1.89062
1.821243
1.727865
1.630175
1.630175
1.540922
1.467607
1.419418
1.400668
1.416043
1.456357
1.529109
1.6298
1.6298
1.72974
1.816368
1.887433
1.922309
1.931121
1.902246
1.829493
1.73799
1.641613
1.641613
1.551985
1.479233
1.427481
1.408355
1.424668
1.467795
1.537359
1.6313
1.72524
1.72524
1.805118
1.87562
1.912371
1.923246
1.891933
1.826493
1.742491
1.649863
1.562485
1.562485
1.491045
1.448294
1.421106
1.416793
1.450357
1.521234
1.617612
1.70649
1.794055
1.794055
1.866619
1.909933
1.904496
1.844869
1.755616
1.613299
1.469107
1.327541
1.271851
1.271851
1.257788
1.255163
1.254413
1.254413
1.256476
1.260788
1.277101
1.38023
1.38023
1.503233
1.747741
1.924371
1.96206
1.88312
1.812055
1.740053
1.715865
1.719427
1.719427
1.726178
1.835306
1.941059
2.023562
2.099501
2.170754
2.252881
2.316446
2.341384
2.341384
2.352259
2.36201
2.314383
2.231506
2.111315
1.973498
1.845056
1.733115
1.656613
1.656613
1.600174
1.573735
1.567548
1.596236
1.657738
1.727678
1.806055
1.867182
1.908246
1.908246
1.923996
1.892308
1.838681
1.757116
1.660551
1.564735
1.48392
1.425606
1.425606
1.392792
1.38848
1.413981
1.469482
1.553672
1.64705
1.724865
1.794055
1.840181
1.840181
1.863619
1.852744
1.80718
1.725615
1.637675
1.54786
1.463482
1.409668
1.371229
1.371229
1.373479
1.400855
1.458795
1.541109
1.636175
1.729178
1.800805
1.858369
1.883307
1.883307
1.869995
1.819931
1.732553
1.637862
1.542047
1.458232
1.39898
1.361667
1.359041
1.359041
1.38923
1.443044
1.533609
1.629425
1.723553
1.79518
1.849744
1.87712
1.87712
1.864744
1.821431
1.746803
1.647425
1.555923
1.46592
1.402543
1.365979
1.357541
1.357541
1.385667
1.439106
1.518796
1.617049
1.712115
1.793867
1.848806
1.888745
1.881245
1.881245
1.841681
1.762929
1.665426
1.577111
1.484483
1.419043
1.379855
1.367104
1.38173
1.38173
1.438731
1.527797
1.62305
1.713427
1.787304
1.842994
1.87037
1.866619
1.832868
1.832868
1.757866
1.659238
1.566423
1.48167
1.413418
1.370854
1.359416
1.37948
1.37948
1.430856
1.516921
1.611049
1.701239
1.778304
1.839619
1.866057
1.863619
1.828556
1.828556
1.760116
1.667301
1.56811
1.483545
1.415856
1.371792
1.359604
1.385667
1.430481
1.430481
1.503046
1.597174
1.687551
1.765366
1.826493
1.851619
1.851244
1.819555
1.748116
1.748116
1.6538
1.564548
1.473795
1.412856
1.377417
1.359416
1.377229
1.420731
1.498733
1.498733
1.594361
1.680051
1.747741
1.812055
1.842244
1.842056
1.80793
1.743241
1.743241
1.64555
1.545047
1.453544
1.378917
1.338228
1.32079
1.331478
1.372542
1.433481
1.433481
1.529297
1.620049
1.699927
1.759554
1.797805
1.794242
1.760116
1.692239
1.603924
1.603924
1.502296
1.408918
1.341228
1.296414
1.285164
1.289289
1.31104
1.374042
1.47042
1.47042
1.563235
1.640112
1.703677
1.745866
1.759741
1.730115
1.675176
1.584423
1.486358
1.486358
1.39898
1.330541
1.293414
1.282164
1.289477
1.307665
1.365417
1.456544
1.456544
1.551047
1.631862
1.70499
1.746991
1.755616
1.730115
1.671801
1.594549
1.489545
1.489545
1.401418
1.326978
1.304477
1.287789
1.295102
1.325853
1.387355
1.482795
1.582736
1.582736
1.673864
1.752053
1.799492
1.821806
1.799867
1.745491
1.668801
1.577111
1.490483
1.490483
1.413981
1.358854
1.344041
1.358479
1.389417
1.46517
1.561735
1.659426
1.749428
1.749428
1.821806
1.870557
1.888558
1.865307
1.813743
1.734428
1.639738
1.55461
1.486545
1.486545
1.430106
1.399543
1.407043
1.440794
1.511859
1.603362
1.701989
1.785617
1.785617
1.861932
1.915746
1.930371
1.909371
1.863244
1.780554
1.685489
1.588361
1.505858
1.505858
1.449982
1.420168
1.421481
1.451669
1.514296
1.607299
1.701989
1.78768
1.857619
1.857619
1.907871
1.929621
1.917434
1.859682
1.780554
1.689614
1.590236
1.508296
1.451294
1.451294
1.419793
1.418481
1.445107
1.501171
1.587236
1.680426
1.769116
1.840744
1.892308
1.892308
1.916496
1.909183
1.875995
1.790492
1.697302
1.595486
1.518609
1.454857
1.421856
1.425231
1.449044
1.501546
1.582173
1.677989
1.767429
1.836619
1.894558
1.921371
1.909371
1.909371
1.860057
1.784679
1.691864
1.586486
1.510171
1.442294
1.40498
1.40423
1.419793
1.419793
1.48917
1.56436
1.658863
1.747928
1.827806
1.879932
1.906558
1.898308
1.857619
1.857619
1.785429
1.692989
1.591361
1.499296
1.444544
1.407043
1.39598
1.420731
1.420731
1.473795
1.557985
1.653238
1.743428
1.823306
1.866807
1.908621
1.89737
1.851057
1.851057
1.774929
1.675176
1.580861
1.498546
1.438919
1.403855
1.388292
1.415293
1.464607
1.464607
1.546172
1.638238
1.729928
1.803618
1.867557
1.900371
1.896433
1.860994
1.791805
1.791805
1.699177
1.601111
1.512984
1.446232
1.40423
1.38923
1.413606
1.45992
1.536797
1.536797
1.629237
1.723178
1.80343
1.859869
1.896058
1.896995
1.862494
1.793492
1.793492
1.701052
1.600924
1.512421
1.445482
1.400668
1.384355
1.403855
1.453732
1.529672
1.529672
1.620987
1.71549
1.79293
1.853307
1.89587
1.905808
1.869807
1.79968
1.707615
1.707615
1.610112
1.521796
1.453919
1.406668
1.394668
1.40723
1.452419
1.525921
1.624549
1.624549
1.721865
1.79593
1.859869
1.895683
1.903746
1.873557
1.810743
1.718865
1.617799
1.617799
1.530422
1.462357
1.408918
1.387542
1.40423
1.444544
1.519546
1.608237
1.705552
1.705552
1.790117
1.854432
1.88987
1.900745
1.874682
1.801742
1.712677
1.618362
1.618362
1.526484
1.453919
1.406293
1.38248
1.391667
1.439856
1.508296
1.604299
1.701052
1.701052
1.783742
1.853682
1.894745
1.903746
1.87712
1.821993
1.732178
1.634487
1.545797
1.545797
1.471732
1.423356
1.40198
1.402355
1.438731
1.509233
1.597736
1.689239
1.772117
1.772117
1.839619
1.88462
1.901308
1.881245
1.822368
1.740803
1.636737
1.54486
1.473232
1.473232
1.418293
1.389792
1.40048
1.431606
1.494421
1.583861
1.680801
1.773429
1.833056
1.833056
1.880495
1.899433
1.877307
1.826868
1.748303
1.653613
1.562673
1.48392
1.48392
1.424293
1.39448
1.39823
1.435544
1.499108
1.589111
1.680051
1.764241
1.836056
1.836056
1.88462
1.898308
1.872807
1.81918
1.741178
1.645363
1.550672
1.466857
1.405543
1.405543
1.384355
1.387355
1.418668
1.479795
1.56811
1.660176
1.751303
1.823868
1.873932
1.873932
1.895308
1.874307
1.823306
1.739866
1.640863
1.544672
1.461045
1.401043
1.368604
1.368604
1.370104
1.398043
1.450544
1.54561
1.644613
1.725428
1.794992
1.847681
1.847681
1.869432
1.852744
1.810555
1.730865
1.633175
1.535297
1.445294
1.390355
1.357166
1.357166
1.358854
1.389605
1.446794
1.534172
1.632237
1.725803
1.800617
1.859494
1.885932
1.885932
1.867557
1.825368
1.751116
1.656988
1.575986
1.488983
1.430856
1.394105
1.38698
1.38698
1.418293
1.466482
1.551047
1.652113
1.743991
1.81468
1.875057
1.901308
1.89062
1.89062
1.850494
1.772867
1.681364
1.587611
1.506234
1.439294
1.401043
1.392417
1.392417
1.413231
1.46592
1.553485
1.64705
1.736866
1.815805
1.87712
1.908058
1.901308
1.901308
1.862682
1.788242
1.691677
1.596986
1.513734
1.447919
1.402355
1.396355
1.422231
1.422231
1.469295
1.552172
1.651363
1.740053
1.815805
1.877682
1.906558
1.902246
1.860057
1.860057
1.788992
1.696552
1.596799
1.512609
1.452044
1.406668
1.394855
1.425793
1.472482
1.472482
1.548422
1.645738
1.73574
1.817118
1.88687
1.908996
1.907496
1.874495
1.796117
1.796117
1.707052
1.610112
1.526109
1.46067
1.419793
1.401793
1.428231
1.473795
1.473795
1.558173
1.655113
1.734428
1.798742
1.856682
1.89587
1.902621
1.867932
1.809805
1.809805
1.71399
1.600174
1.48017
1.387167
1.30279
1.274289
1.267726
1.268476
1.273164
1.273164
1.295477
1.332041
1.378355
1.442107
1.457857
1.427481
1.46142
1.453357
1.566985
1.566985
1.639738
1.615737
1.515421
1.46067
1.48392
1.567548
1.690552
1.846181
2.076626
2.076626
2.265632
2.378697
2.464763
2.471513
2.46795
2.423699
2.335009
2.196817
2.196817
2.082251
1.976123
1.870932
1.789367
1.72074
1.694114
1.701239
1.749241
1.808305
1.808305
1.872995
1.926621
1.955685
1.966935
1.95006
1.908808
1.839806
1.744553
1.635425
1.635425
1.533422
1.453732
1.402355
1.382855
1.400855
1.431606
1.508109
1.599424
1.688114
1.688114
1.767804
1.829493
1.868119
1.879932
1.850494
1.784867
1.692989
1.599986
1.504546
1.504546
1.431044
1.372917
1.354354
1.369354
1.402355
1.460295
1.56211
1.645738
1.645738
1.736115
1.803243
1.855182
1.866619
1.842994
1.789367
1.707427
1.607674
1.507359
1.507359
1.429356
1.378917
1.350604
1.354729
1.391667
1.457294
1.54636
1.638425
1.725615
1.725615
1.800805
1.846556
1.869619
1.850681
1.795555
1.713802
1.616487
1.532297
1.452419
1.452419
1.39448
1.365604
1.371417
1.40348
1.466857
1.558173
1.654363
1.737053
1.807743
1.807743
1.855182
1.871307
1.860619
1.808868
1.73199
1.631112
1.536984
1.46142
1.46142
1.398793
1.367479
1.370667
1.398793
1.460295
1.544485
1.645175
1.736115
1.806993
1.806993
1.845056
1.869244
1.861182
1.809805
1.726928
1.634675
1.539422
1.456544
1.39598
1.39598
1.362792
1.359979
1.38323
1.440231
1.527609
1.626425
1.716052
1.79293
1.848431
1.848431
1.873182
1.862307
1.814493
1.740803
1.6418
1.541672
1.459545
1.39748
1.363542
1.363542
1.365604
1.392417
1.445107
1.528359
1.62305
1.714365
1.788617
1.842806
1.842806
1.864182
1.859682
1.81468
1.734991
1.643113
1.541109
1.461607
1.388667
1.357541
1.357541
1.350979
1.373667
1.423918
1.500983
1.600361
1.687739
1.758241
1.810368
1.836244
1.836244
1.832118
1.779992
1.713052
1.618737
1.515234
1.421293
1.358479
1.32079
1.313102
1.313102
1.330541
1.379105
1.454107
1.541297
1.636175
1.701052
1.755991
1.784492
1.777179
1.777179
1.744553
1.668051
1.568298
1.467045
1.37648
1.314228
1.288539
1.283852
1.291914
1.291914
1.31929
1.396168
1.485233
1.573735
1.651363
1.709115
1.739303
1.737428
1.737428
1.699364
1.6283
1.534922
1.431981
1.349291
1.299602
1.276539
1.275414
1.280852
1.280852
1.303727
1.371604
1.461982
1.561735
1.633362
1.696927
1.725615
1.72749
1.692989
1.692989
1.6223
1.538484
1.440981
1.360729
1.306165
1.286289
1.285539
1.292477
1.322478
1.322478
1.398043
1.497608
1.589674
1.670301
1.752616
1.792742
1.80118
1.775679
1.709677
1.709677
1.619674
1.525172
1.453544
1.38923
1.344416
1.330166
1.352104
1.396543
1.396543
1.477357
1.579548
1.677614
1.766491
1.829306
1.870182
1.879557
1.855182
1.79743
1.79743
1.712302
1.618924
1.529484
1.46217
1.413793
1.39898
1.411356
1.452607
1.530797
1.530797
1.62755
1.723553
1.80643
1.872995
1.919684
1.931309
1.906933
1.845244
1.763304
1.763304
1.673864
1.575611
1.500796
1.45617
1.428044
1.441169
1.477733
1.55161
1.643675
1.643675
1.735928
1.820493
1.887995
1.927184
1.941247
1.915746
1.853307
1.768179
1.768179
1.675926
1.581423
1.506234
1.448482
1.430294
1.443044
1.475108
1.636925
1.721303
1.808493
1.808493
1.87487
1.923996
1.934872
1.905433
1.850494
1.770992
1.673676
1.583111
1.506421
1.506421
1.453732
1.426356
1.430481
1.467232
1.533047
1.623237
1.716427
1.794055
1.849556
1.849556
1.90112
1.910496
1.891745
1.839056
1.757116
1.667863
1.578611
1.498358
1.449044
1.449044
1.421106
1.422231
1.456919
1.520109
1.605049
1.701989
1.78918
1.851244
1.900558
1.900558
1.918934
1.902246
1.853682
1.772867
1.669551
1.572798
1.493483
1.431981
1.40648
1.40648
1.409105
1.439856
1.503421
1.590799
1.684926
1.766491
1.838494
1.888933
1.888933
1.912371
1.897183
1.847494
1.765554
1.659988
1.571486
1.490671
1.426544
1.385855
1.385855
1.390543
1.415481
1.469107
1.563423
1.660926
1.751491
1.831181
1.884433
1.908058
1.908058
1.889683
1.847119
1.766117
1.668613
1.579548
1.501171
1.436856
1.398793
1.39673
1.39673
1.424106
1.484295
1.573548
1.661676
1.757866
1.834743
1.885182
1.910121
1.897183
1.897183
1.856494
1.773242
1.676864
1.590424
1.506984
1.444544
1.39748
1.390355
1.390355
1.425793
1.471545
1.56361
1.658113
1.744178
1.821993
1.872995
1.899245
1.890808
1.890808
1.850869
1.779617
1.685114
1.587986
1.499296
1.446607
1.39898
1.390355
1.417168
1.417168
1.471545
1.55086
1.635237
1.72674
1.802305
1.860057
1.887245
1.881057
1.843931
1.843931
1.783179
1.695427
1.598674
1.506608
1.445669
1.404043
1.396355
1.417543
1.476045
1.476045
1.548797
1.64705
1.737428
1.814305
1.881057
1.904683
1.901683
1.863807
1.791242
1.791242
1.695614
1.601299
1.510546
1.445669
1.400668
1.387355
1.413043
1.457857
1.457857
1.539797
1.640675
1.73274
1.81168
1.868495
1.895495
1.896995
1.863619
1.787867
1.787867
1.683614
1.594361
1.517671
1.443607
1.396918
1.383605
1.405355
1.450169
1.533797
1.533797
1.63205
1.728428
1.803055
1.864557
1.89737
1.908621
1.873932
1.800055
1.700114
1.700114
1.611424
1.521421
1.449232
1.40348
1.397105
1.409668
1.447544
1.519921
1.62155
1.62155
1.713615
1.795367
1.857619
1.900745
1.912371
1.876557
1.813555
1.721303
1.721303
1.621362
1.533047
1.462357
1.415106
1.39673
1.416981
1.449982
1.520671
1.613862
1.613862
1.708365
1.785054
1.852744
1.89887
1.904496
1.87562
1.81393
1.71849
1.6253
1.6253
1.541672
1.460482
1.409293
1.38848
1.40498
1.439669
1.512421
1.600549
1.697114
1.697114
1.778117
1.834931
1.874495
1.878057
1.856307
1.810368
1.717552
1.621737
1.53811
1.53811
1.453732
1.407605
1.391855
1.40798
1.439856
1.510546
1.607487
1.691677
1.771367
1.771367
1.839619
1.88912
1.904683
1.878057
1.822556
1.730115
1.6253
1.54186
1.54186
1.46517
1.397668
1.373479
1.380792
1.416043
1.481483
1.572048
1.670488
1.753366
1.753366
1.81918
1.861932
1.875807
1.858932
1.798555
1.710427
1.613674
1.508671
1.436481
1.436481
1.379667
1.354166
1.362229
1.400105
1.475108
1.559298
1.659801
1.742866
1.81618
1.81618
1.869995
1.889495
1.872995
1.829681
1.755804
1.653988
1.556672
1.48167
1.434419
1.434419
1.40498
1.407418
1.439669
1.501358
1.582923
1.681926
1.771554
1.834181
1.834181
1.890808
1.914621
1.89662
1.852369
1.767054
1.680239
1.578048
1.498546
1.431981
1.431981
1.399355
1.403668
1.441356
1.504358
1.590986
1.682676
1.766117
1.832868
1.896995
1.896995
1.921184
1.907121
1.851619
1.776804
1.683051
1.592861
1.505296
1.450544
1.422231
1.422231
1.415481
1.440606
1.493483
1.583111
1.679114
1.770242
1.845056
1.898683
1.912933
1.912933
1.89887
1.854807
1.772117
1.677614
1.589111
1.509984
1.449982
1.418856
1.418856
1.416606
1.440231
1.498921
1.583673
1.681926
1.771554
1.845431
1.901495
1.924371
1.924371
1.918184
1.879557
1.800055
1.702177
1.606174
1.520296
1.460295
1.425231
1.419231
1.419231
1.446419
1.502108
1.590611
1.679114
1.761241
1.834556
1.88687
1.917058
1.910683
1.910683
1.875245
1.814493
1.71099
1.590986
1.499108
1.416043
1.328291
1.298102
1.284602
1.284602
1.288914
1.334478
1.403855
1.446982
1.493108
1.541109
1.56511
1.565298
1.565298
1.552547
1.618924
1.765929
1.78693
1.677614
1.559673
1.506421
1.469295
1.575236
1.575236
1.700114
1.917621
2.14169
2.30707
2.358072
2.37926
2.37026
2.359572
2.311383
2.311383
2.22663
2.135315
2.028062
1.912558
1.803243
1.73574
1.680426
1.684739
1.704802
1.704802
1.758429
1.826306
1.892308
1.932246
1.963747
1.969373
1.947809
1.900933
1.821431
1.821431
1.719615
1.612737
1.519171
1.453732
1.400855
1.38773
1.405918
1.447544
1.447544
1.519171
1.610112
1.703302
1.775117
1.840931
1.878057
1.875057
1.842056
1.764804
1.764804
1.675176
1.587799
1.491421
1.422231
1.37648
1.358292
1.383042
1.415668
1.483358
1.483358
1.587799
1.688676
1.770804
1.833618
1.874307
1.870182
1.841494
1.778679
1.693177
1.693177
1.593799
1.504733
1.431606
1.385855
1.368229
1.387167
1.422418
1.488045
1.583486
1.583486
1.684176
1.763304
1.828743
1.86737
1.876745
1.854807
1.79218
1.699177
1.600174
1.600174
1.506234
1.435169
1.382105
1.365042
1.37873
1.410606
1.481483
1.575048
1.575048
1.673301
1.751116
1.818056
1.859682
1.873932
1.846556
1.783367
1.700677
1.604299
1.604299
1.513359
1.441731
1.39148
1.366354
1.372542
1.40798
1.476608
1.571673
1.665613
1.665613
1.749991
1.821618
1.861182
1.872807
1.849931
1.79143
1.706115
1.609549
1.519734
1.519734
1.440231
1.38923
1.365229
1.370104
1.40198
1.472482
1.55911
1.651363
1.735928
1.735928
1.80118
1.851619
1.864182
1.838681
1.785617
1.696927
1.595674
1.509046
1.509046
1.431794
1.374792
1.344791
1.352291
1.381355
1.446982
1.533797
1.630737
1.715302
1.715302
1.777929
1.822368
1.845431
1.831368
1.778867
1.695989
1.597924
1.506796
1.425981
1.425981
1.366167
1.341228
1.343853
1.378355
1.434981
1.522547
1.613112
1.692239
1.768179
1.768179
1.80718
1.830243
1.810743
1.761804
1.675551
1.575986
1.477545
1.394105
1.335603
1.335603
1.306727
1.30579
1.327165
1.373479
1.465732
1.558735
1.642175
1.710615
1.710615
1.755429
1.771929
1.754116
1.700114
1.618174
1.518984
1.419418
1.340103
1.291539
1.291539
1.276914
1.275789
1.285164
1.315165
1.393167
1.488233
1.57036
1.644613
1.701989
1.701989
1.72749
1.71324
1.671426
1.594736
1.500421
1.403668
1.32979
1.289289
1.274476
1.274476
1.272226
1.280664
1.30579
1.379855
1.48092
1.571673
1.647613
1.692614
1.724678
1.724678
1.714927
1.678364
1.601674
1.505296
1.415293
1.338978
1.294352
1.278414
1.278414
1.277664
1.287414
1.32379
1.410043
1.504358
1.600924
1.679301
1.746803
1.779242
1.779242
1.773992
1.743241
1.677239
1.588173
1.497608
1.423731
1.364292
1.334666
1.331853
1.331853
1.359979
1.411356
1.499296
1.595674
1.683801
1.761616
1.840181
1.873932
1.876932
1.876932
1.838494
1.771742
1.687551
1.597174
1.522171
1.460857
1.422418
1.408731
1.435731
1.435731
1.494796
1.575798
1.766304
1.842056
1.906933
1.938434
1.944247
1.907308
1.840181
1.840181
1.750366
1.654926
1.569798
1.500046
1.456544
1.440606
1.462357
1.508484
1.590049
1.590049
1.684364
1.778492
1.855557
1.918934
1.952872
1.95381
1.917808
1.850869
1.758241
1.758241
1.657738
1.571298
1.504546
1.455982
1.435356
1.458045
1.500046
1.574298
1.672739
1.672739
1.762741
1.835868
1.901871
1.941622
1.946872
1.912746
1.853869
1.763866
1.653613
1.653613
1.55611
1.483545
1.439669
1.424668
1.445294
1.48092
1.559485
1.654738
1.654738
1.747928
1.823868
1.891558
1.924934
1.938434
1.908246
1.842994
1.751491
1.651925
1.651925
1.560423
1.489733
1.437044
1.414543
1.427294
1.46742
1.537172
1.6313
1.72374
1.72374
1.80268
1.875432
1.908058
1.919121
1.893058
1.830431
1.740616
1.643863
1.551422
1.551422
1.47942
1.424293
1.407043
1.422606
1.463107
1.531359
1.621924
1.702177
1.774929
1.774929
1.844119
1.887245
1.899433
1.875807
1.81618
1.730303
1.638425
1.548985
1.548985
1.475857
1.424856
1.398605
1.40723
1.441544
1.509421
1.600174
1.694302
1.775679
1.775679
1.847119
1.896058
1.910121
1.887058
1.832118
1.748678
1.648363
1.557047
1.480545
1.480545
1.427481
1.399168
1.40798
1.442107
1.509421
1.600549
1.693739
1.779429
1.850681
1.850681
1.897558
1.917246
1.894183
1.842431
1.760304
1.661113
1.564548
1.48917
1.431606
1.431606
1.404605
1.412668
1.446982
1.506608
1.603924
1.692052
1.778117
1.849744
1.849744
1.88987
1.907496
1.89437
1.847681
1.764054
1.671051
1.578798
1.499483
1.439294
1.439294
1.407043
1.411543
1.450169
1.511671
1.601111
1.695614
1.778304
1.852182
1.905621
1.905621
1.924746
1.913871
1.868495
1.785242
1.688489
1.588361
1.508484
1.451107
1.417731
1.417731
1.419793
1.451857
1.509796
1.598111
1.694489
1.781304
1.852369
1.903558
1.927184
1.927184
1.912933
1.866807
1.789555
1.690739
1.595674
1.515796
1.457294
1.417918
1.420918
1.420918
1.444169
1.501171
1.586111
1.679864
1.771367
1.839431
1.894183
1.925496
1.925496
1.915934
1.873182
1.795367
1.698239
1.604111
1.520671
1.457107
1.418481
1.410231
1.410231
1.442669
1.497608
1.580486
1.676489
1.768366
1.845244
1.899995
1.925121
1.916496
1.916496
1.877307
1.804555
1.700302
1.612362
1.526297
1.46517
1.424293
1.411731
1.434419
1.434419
1.488608
1.573548
1.670114
1.758429
1.832868
1.890245
1.919684
1.916683
1.87712
1.87712
1.805305
1.706115
1.611799
1.527047
1.460857
1.412856
1.40423
1.431044
1.431044
1.47942
1.563235
1.665238
1.757679
1.829681
1.896808
1.929809
1.925684
1.884807
1.884807
1.81243
1.720365
1.623612
1.536609
1.470795
1.429731
1.417356
1.439481
1.488045
1.488045
1.569423
1.665238
1.753553
1.827618
1.889683
1.912183
1.908058
1.875057
1.805118
1.805118
1.711177
1.617799
1.528922
1.457669
1.413418
1.400668
1.428044
1.474358
1.551797
1.551797
1.6463
1.739866
1.818056
1.876182
1.907121
1.905433
1.875807
1.806618
1.714177
1.714177
1.614612
1.529109
1.460107
1.416231
1.391292
1.410043
1.459545
1.538484
1.538484
1.632237
1.719427
1.795367
1.854994
1.88687
1.893808
1.851994
1.786367
1.696177
1.696177
1.598861
1.512421
1.441919
1.392417
1.37423
1.395043
1.439481
1.515421
1.617237
1.617237
1.710802
1.793305
1.860432
1.892683
1.901308
1.875807
1.814118
1.72674
1.6343
1.6343
1.552172
1.476045
1.421856
1.40198
1.413043
1.449607
1.526297
1.622112
1.727678
1.727678
1.80868
1.88012
1.928871
1.939372
1.911246
1.846181
1.763304
1.665801
1.665801
1.568673
1.494796
1.446982
1.421481
1.431419
1.471357
1.539235
1.630737
1.722053
1.722053
1.806993
1.875995
1.918371
1.936184
1.912371
1.854807
1.771742
1.672364
1.578798
1.578798
1.500796
1.448294
1.421856
1.422418
1.46592
1.536047
1.6223
1.718678
1.800992
1.800992
1.868119
1.916121
1.934497
1.909746
1.857057
1.768179
1.665801
1.572986
1.501733
1.501733
1.450357
1.420731
1.428044
1.467982
1.530797
1.619487
1.712115
1.79893
1.79893
1.866057
1.913121
1.923809
1.908058
1.850681
1.772679
1.677801
1.577861
1.508109
1.508109
1.460857
1.430481
1.432919
1.465357
1.522922
1.603736
1.693177
1.778117
1.857057
1.857057
1.908433
1.935059
1.913121
1.849369
1.748116
1.617049
1.475108
1.353041
1.285727
1.285727
1.264914
1.260226
1.259476
1.260788
1.268851
1.297165
1.345916
1.389605
1.47717
1.47717
1.54786
1.682301
1.839431
1.841306
1.734615
1.598111
1.559485
1.536047
1.572986
1.572986
1.649113
1.79218
1.969185
2.103439
2.226818
2.29507
2.353759
2.392761
2.392761
2.401761
2.347197
2.278757
2.190067
2.074938
1.956247
1.835118
1.733303
1.661113
1.661113
1.637675
1.657176
1.667488
1.711177
1.794805
1.846556
1.884058
1.925121
1.947622
1.947622
1.927184
1.883307
1.790305
1.674051
1.608424
1.517484
1.451857
1.409668
1.403293
1.403293
1.429731
1.476795
1.55911
1.645363
1.72974
1.79668
1.852931
1.879745
1.87037
1.87037
1.834369
1.766491
1.667301
1.572048
1.490108
1.431606
1.381542
1.371417
1.371417
1.39373
1.445857
1.526297
1.621924
1.709677
1.78918
1.853119
1.882745
1.873932
1.873932
1.830806
1.762179
1.666738
1.572423
1.490108
1.424481
1.38473
1.373104
1.392792
1.392792
1.438919
1.524421
1.614424
1.71849
1.789742
1.844494
1.873932
1.87487
1.838494
1.838494
1.770617
1.680801
1.585736
1.497233
1.429169
1.38623
1.370667
1.389605
1.430294
1.430294
1.503608
1.618737
1.700489
1.783742
1.848244
1.877307
1.87337
1.848994
1.848994
1.784679
1.696552
1.601111
1.515609
1.438544
1.400293
1.37948
1.392605
1.439294
1.439294
1.517859
1.613674
1.711552
1.788242
1.852931
1.890433
1.892308
1.863244
1.795555
1.795555
1.698989
1.602049
1.508484
1.437981
1.39898
1.378167
1.39523
1.442482
1.514484
1.514484
1.606174
1.699177
1.782992
1.851619
1.887058
1.89512
1.859682
1.79668
1.710615
1.710615
1.598299
1.515046
1.437981
1.380042
1.379292
1.389417
1.430481
1.505296
1.505296
1.597924
1.688864
1.771554
1.838119
1.880682
1.89512
1.863432
1.797617
1.714552
1.714552
1.616862
1.524047
1.448669
1.394855
1.37423
1.383605
1.420356
1.494233
1.582736
1.582736
1.674239
1.758804
1.827243
1.866619
1.875057
1.845431
1.784305
1.695614
1.592861
1.592861
1.501546
1.428606
1.371979
1.342353
1.357729
1.392417
1.456357
1.545797
1.637487
1.637487
1.71924
1.788055
1.824618
1.835868
1.80268
1.742116
1.650613
1.54711
1.455607
1.455607
1.381917
1.328103
1.309352
1.309165
1.339541
1.403668
1.492733
1.580298
1.580298
1.666551
1.736115
1.778492
1.797242
1.772117
1.720927
1.635612
1.539422
1.446419
1.446419
1.366729
1.315915
1.297915
1.301477
1.318915
1.38248
1.470607
1.563423
1.646863
1.646863
1.714365
1.758804
1.774179
1.755804
1.701989
1.620612
1.525547
1.434231
1.359041
1.359041
1.311603
1.292102
1.293039
1.319478
1.376667
1.47042
1.571673
1.661676
1.73724
1.81768
1.81768
1.79668
1.759179
1.684176
1.585923
1.499671
1.421856
1.374417
1.345166
1.352666
1.352666
1.378542
1.446044
1.542985
1.6388
1.731615
1.80718
1.866807
1.890995
1.890995
1.875057
1.826118
1.757491
1.674801
1.581611
1.505671
1.443232
1.408355
1.411168
1.411168
1.442669
1.49292
1.583111
1.685114
1.771929
1.851807
1.905621
1.932621
1.925121
1.925121
1.878995
1.80343
1.705927
1.614612
1.535297
1.470045
1.439856
1.428981
1.461045
1.461045
1.510359
1.600924
1.694489
1.785054
1.861932
1.917621
1.939184
1.929996
1.885932
1.885932
1.812055
1.722053
1.620424
1.530609
1.477545
1.429356
1.426544
1.450919
1.502296
1.502296
1.589298
1.685301
1.771179
1.852182
1.904871
1.931871
1.924559
1.880307
1.880307
1.807368
1.716052
1.615549
1.528172
1.472107
1.436294
1.426731
1.453732
1.500983
1.500983
1.579736
1.678739
1.765929
1.831743
1.899995
1.935059
1.925684
1.890433
1.81468
1.81468
1.717177
1.624175
1.538484
1.467607
1.429544
1.414918
1.438544
1.485983
1.564548
1.564548
1.662801
1.753553
1.831743
1.88387
1.920246
1.915558
1.885932
1.809243
1.712865
1.712865
1.617049
1.530609
1.46667
1.419981
1.412106
1.431981
1.47117
1.55611
1.55611
1.651925
1.742866
1.820493
1.884433
1.905058
1.910121
1.87862
1.80568
1.701614
1.701614
1.612362
1.523296
1.452607
1.411168
1.394855
1.418668
1.461795
1.539797
1.633925
1.633925
1.722053
1.80568
1.876557
1.901683
1.909746
1.881057
1.810368
1.722053
1.629237
1.629237
1.546735
1.47642
1.424293
1.40123
1.416043
1.466857
1.538859
1.633737
1.728053
1.728053
1.807555
1.869057
1.914058
1.909183
1.88537
1.822181
1.731428
1.633175
1.633175
1.546547
1.471545
1.425231
1.410606
1.419606
1.460857
1.535672
1.6268
1.71849
1.71849
1.801367
1.863807
1.900183
1.911433
1.88462
1.823493
1.734428
1.63805
1.55086
1.55086
1.47867
1.432544
1.417168
1.426544
1.468357
1.539235
1.623987
1.71999
1.80268
1.80268
1.865682
1.911433
1.925871
1.897183
1.842056
1.754491
1.648738
1.56511
1.486545
1.486545
1.431231
1.407793
1.423731
1.460482
1.526484
1.615549
1.706302
1.798555
1.858932
1.858932
1.910683
1.911808
1.897745
1.842806
1.753928
1.642175
1.565485
1.48392
1.48392
1.428231
1.399543
1.407043
1.439669
1.513546
1.601861
1.693552
1.780742
1.850494
1.850494
1.897933
1.917808
1.89887
1.852931
1.771742
1.662988
1.583111
1.504358
1.442294
1.442294
1.404793
1.410981
1.449232
1.514671
1.601674
1.695052
1.785429
1.852369
1.898683
1.898683
1.918184
1.901308
1.848994
1.769491
1.671239
1.573735
1.491608
1.432356
1.40648
1.40648
1.416606
1.440794
1.506421
1.594174
1.686239
1.778117
1.859494
1.895683
1.895683
1.920809
1.893995
1.847119
1.764804
1.669363
1.571298
1.493296
1.433294
1.395605
1.395605
1.402543
1.438919
1.501171
1.587048
1.680426
1.776054
1.837744
1.890433
1.912183
1.912183
1.899621
1.850681
1.772867
1.676864
1.582173
1.501921
1.439481
1.398793
1.393543
1.393543
1.423918
1.475857
1.567548
1.667488
1.751866
1.821806
1.87712
1.900745
1.889683
1.889683
1.849181
1.774179
1.667488
1.581798
1.503421
1.439669
1.392043
1.39823
1.39823
1.421293
1.469482
1.561923
1.648175
1.741741
1.820118
1.875807
1.899058
1.888183
1.888183
1.846931
1.765179
1.670488
1.569048
1.480358
1.413418
1.37648
1.371229
1.394855
1.394855
1.446419
1.532109
1.62755
1.718865
1.786555
1.842244
1.869432
1.871307
1.833431
1.833431
1.764241
1.670488
1.573548
1.490296
1.428044
1.39298
1.379105
1.414731
1.461607
1.461607
1.550297
1.655113
1.755804
1.822368
1.89437
1.914433
1.911246
1.871682
1.871682
1.789367
1.713052
1.615924
1.508484
1.456732
1.421293
1.395605
1.423731
1.47492
1.47492
1.558548
1.658488
1.738178
1.823118
1.876932
1.919121
1.910496
1.872995
1.811118
1.811118
1.716052
1.618174
1.530984
1.46292
1.429544
1.404605
1.422793
1.473232
1.54186
1.54186
1.647238
1.732553
1.813743
1.868119
1.912371
1.918184
1.891745
1.817305
1.713052
1.713052
1.623612
1.552547
