1.650425
1.744741
1.816368
1.816368
1.845994
1.842994
1.791055
1.706677
1.605611
1.505671
1.419043
1.355479
1.32979
1.32979
1.326791
1.357354
1.422793
1.535859
1.643675
1.748491
1.832681
1.899058
1.899058
1.928684
1.924371
1.87637
1.78693
1.683801
1.578423
1.48242
1.415481
1.371979
1.371979
1.371417
1.40048
1.461982
1.562298
1.663926
1.771929
1.854807
1.929434
1.956435
1.956435
1.948934
1.890245
1.811305
1.71024
1.592486
1.492358
1.417356
1.38773
1.374979
1.374979
1.406293
1.457107
1.549735
1.65305
1.756741
1.851057
1.914246
1.937872
1.934872
1.934872
1.899058
1.805492
1.695989
1.584048
1.488233
1.414168
1.358104
1.347604
1.347604
1.368604
1.425606
1.513171
1.623987
1.725615
1.807743
1.873182
1.914058
1.907496
1.907496
1.866619
1.783929
1.678176
1.572986
1.470795
1.397855
1.343104
1.332603
1.348541
1.348541
1.39223
1.489733
1.585548
1.691489
1.79518
1.859119
1.89587
1.895683
1.853682
1.853682
1.782242
1.668426
1.549922
1.467982
1.388855
1.334853
1.31854
1.336916
1.377042
1.377042
1.461795
1.571298
1.678926
1.780929
1.854432
1.890433
1.889308
1.840556
1.840556
1.782804
1.672364
1.565298
1.45992
1.38698
1.335791
1.315353
1.322853
1.374042
1.374042
1.462357
1.564173
1.670301
1.768179
1.842619
1.898683
1.893058
1.860807
1.79143
1.79143
1.690739
1.577861
1.485045
1.408168
1.347229
1.321353
1.334853
1.380605
1.453169
1.453169
1.547672
1.644238
1.749616
1.825368
1.868495
1.875057
1.843556
1.780367
1.674426
1.674426
1.567548
1.463295
1.387917
1.320978
1.299227
1.313478
1.349666
1.418293
1.525547
1.525547
1.634862
1.729928
1.797992
1.855369
1.870557
1.842994
1.776617
1.675364
1.675364
1.583298
1.48167
1.39223
1.344229
1.322103
1.327353
1.364479
1.448294
1.55311
1.55311
1.659613
1.747928
1.839994
1.87787
1.909933
1.884807
1.809055
1.717365
1.608987
1.608987
1.505296
1.419606
1.363167
1.332416
1.343666
1.380605
1.452419
1.542797
1.660176
1.660176
1.763866
1.845244
1.89062
1.907121
1.88762
1.826306
1.733115
1.627737
1.513359
1.513359
1.440044
1.372917
1.340291
1.345729
1.382292
1.453544
1.550672
1.655301
1.655301
1.755054
1.849369
1.902621
1.912183
1.88987
1.835306
1.744366
1.628675
1.531359
1.531359
1.448857
1.379667
1.340103
1.346291
1.384167
1.452607
1.545797
1.652675
1.755616
1.755616
1.831931
1.902433
1.913121
1.899433
1.848056
1.754491
1.644238
1.539422
1.453732
1.453732
1.382105
1.340666
1.342916
1.369167
1.455044
1.543172
1.642738
1.743428
1.829306
1.829306
1.889683
1.920059
1.902621
1.854619
1.768929
1.670488
1.56511
1.481108
1.481108
1.403855
1.357729
1.355479
1.38773
1.455607
1.555172
1.665426
1.780929
1.856494
1.856494
1.916683
1.938622
1.876557
1.779617
1.657926
1.514859
1.365604
1.282539
1.260226
1.260226
1.254601
1.253663
1.256101
1.268101
1.356041
1.678176
1.939747
2.035
2.014749
1.969185
1.969185
1.892308
1.833618
1.813368
1.836244
1.911621
1.943497
1.925309
1.889683
1.851244
1.851244
1.867182
1.956247
2.03575
2.120877
2.218568
2.264507
2.252319
2.22213
2.142253
2.142253
2.027874
1.894558
1.757679
1.634862
1.532484
1.442107
1.40123
1.396918
1.396918
1.428044
1.498733
1.588361
1.674989
1.754679
1.821431
1.860432
1.857057
1.81243
1.81243
1.72674
1.615362
1.513171
1.415481
1.345729
1.304102
1.286664
1.298477
1.344604
1.344604
1.422418
1.527047
1.6343
1.722615
1.800805
1.838306
1.837744
1.797617
1.710052
1.710052
1.608987
1.519359
1.419606
1.336916
1.29979
1.289102
1.300165
1.330541
1.415668
1.415668
1.518046
1.627175
1.72299
1.794617
1.835868
1.831743
1.80418
1.718115
1.718115
1.617612
1.515796
1.419793
1.338416
1.299415
1.290227
1.296602
1.332791
1.414168
1.414168
1.520109
1.62305
1.72674
1.804368
1.842994
1.845994
1.809055
1.734428
1.635612
1.635612
1.527234
1.423918
1.344604
1.297727
1.288727
1.301665
1.322665
1.39973
1.513546
1.513546
1.612924
1.703302
1.784305
1.833618
1.848056
1.812055
1.738178
1.633737
1.526859
1.526859
1.426731
1.347791
1.301102
1.290414
1.299227
1.323978
1.39673
1.494796
1.597361
1.597361
1.699552
1.780742
1.831743
1.846931
1.811868
1.740241
1.640112
1.534172
1.534172
1.427106
1.345916
1.300915
1.284227
1.286852
1.310665
1.374042
1.477357
1.583673
1.583673
1.683051
1.754491
1.807743
1.824431
1.793305
1.73274
1.622675
1.522171
1.415481
1.415481
1.331478
1.286852
1.275039
1.277851
1.292852
1.346104
1.444357
1.549547
1.645363
1.645363
1.72224
1.776054
1.788805
1.763866
1.698052
1.599986
1.496108
1.381355
1.30954
1.30954
1.274101
1.267164
1.267164
1.272601
1.303352
1.385105
1.483545
1.573548
1.573548
1.6538
1.713802
1.725615
1.698427
1.63655
1.53961
1.421668
1.325103
1.274851
1.274851
1.261539
1.257788
1.258163
1.260788
1.271851
1.317228
1.409668
1.509421
1.594174
1.594174
1.652675
1.679489
1.658863
1.600924
1.507359
1.398043
1.30579
1.269226
1.259663
1.259663
1.257038
1.256851
1.259288
1.267164
1.30429
1.392605
1.499108
1.591361
1.650988
1.650988
1.676489
1.658676
1.611424
1.528172
1.427856
1.331478
1.279914
1.262851
1.258726
1.258726
1.259476
1.263601
1.279539
1.344979
1.450919
1.565298
1.663551
1.72974
1.72974
1.774367
1.761054
1.715302
1.640863
1.543547
1.443794
1.364104
1.309915
1.284602
1.284602
1.285164
1.302977
1.357916
1.458607
1.574673
1.682301
1.771554
1.847869
1.889495
1.889495
1.882745
1.842056
1.760491
1.656426
1.554235
1.462357
1.391855
1.348916
1.342353
1.342353
1.372917
1.434606
1.535109
1.644238
1.743241
1.840181
1.906558
1.942184
1.935997
1.935997
1.890995
1.812805
1.708365
1.602049
1.510359
1.429731
1.38698
1.375355
1.375355
1.398605
1.455607
1.538672
1.642175
1.751866
1.841681
1.908621
1.942559
1.936747
1.936747
1.897933
1.818243
1.716427
1.607299
1.506421
1.428794
1.372167
1.356041
1.38173
1.38173
1.431419
1.519359
1.615174
1.72374
1.81018
1.899058
1.933371
1.929246
1.88387
1.88387
1.80793
1.697114
1.596236
1.492733
1.410418
1.361854
1.349854
1.360167
1.39748
1.39748
1.485233
1.597549
1.692802
1.794055
1.860057
1.89737
1.901308
1.863619
1.863619
1.788805
1.692427
1.586486
1.477733
1.399543
1.342728
1.323603
1.341228
1.387542
1.387542
1.46967
1.578236
1.685114
1.774367
1.857244
1.892495
1.906371
1.875807
1.794992
1.794992
1.700302
1.593236
1.491045
1.406293
1.352291
1.330166
1.337291
1.381542
1.461232
1.461232
1.56361
1.674614
1.769866
1.847119
1.894745
1.903183
1.876557
1.803055
1.697114
1.697114
1.583861
1.485233
1.404418
1.348354
1.323603
1.334103
1.372354
1.445482
1.445482
1.553297
1.658863
1.757304
1.841119
1.891558
1.906558
1.865494
1.797992
1.712302
1.712302
1.609362
1.498733
1.411356
1.354166
1.328478
1.341603
1.368604
1.438356
1.537359
1.537359
1.641613
1.743241
1.825556
1.879182
1.900371
1.871307
1.804743
1.705927
1.590236
1.590236
1.481483
1.394105
1.334103
1.309352
1.314603
1.345353
1.417168
1.521984
1.627737
1.627737
1.740428
1.823306
1.88162
1.900558
1.876932
1.825368
1.739303
1.634112
1.534172
1.534172
1.444544
1.374604
1.344416
1.355291
1.389042
1.459357
1.554422
1.656051
1.656051
1.764616
1.854432
1.907308
1.929434
1.911058
1.853494
1.759179
1.654363
1.548235
1.548235
1.460107
1.394668
1.353416
1.353604
1.38698
1.456544
1.551422
1.662426
1.762554
1.762554
1.849931
1.909371
1.932621
1.912558
1.857432
1.767429
1.659801
1.551047
1.467607
1.467607
1.39898
1.360354
1.360916
1.392043
1.452794
1.554235
1.660551
1.754491
1.844869
1.844869
1.907683
1.938434
1.921184
1.867182
1.780179
1.669363
1.56661
1.473045
1.473045
1.401793
1.362417
1.356416
1.388292
1.448294
1.534359
1.641613
1.742866
1.839056
1.839056
1.902058
1.932809
1.918746
1.873745
1.784679
1.674426
1.569235
1.478483
1.40273
1.40273
1.355854
1.354541
1.38098
1.441356
1.539047
1.645925
1.747366
1.838681
1.911808
1.911808
1.951184
1.947059
1.901683
1.812243
1.695052
1.583111
1.48842
1.428606
1.380792
1.380792
1.377604
1.407605
1.446419
1.520484
1.595111
1.650613
1.692427
1.709302
1.700677
1.700677
1.646113
1.558923
1.426731
1.305415
1.262851
1.254226
1.252538
1.252351
1.252351
1.252726
1.265289
1.380042
1.540172
1.616299
1.704802
1.835681
1.985311
2.114502
2.114502
2.202067
2.305945
2.332946
2.268444
2.177879
2.048875
1.958497
1.900933
1.857994
1.857994
1.828368
1.863244
1.940309
2.007061
2.082438
2.129128
2.166629
2.167191
2.14544
2.14544
2.083751
1.967685
1.830618
1.683989
1.556298
1.444919
1.379855
1.355104
1.365604
1.365604
1.40123
1.480358
1.580673
1.683239
1.777179
1.854244
1.897933
1.903746
1.903746
1.864369
1.785992
1.674614
1.556672
1.458045
1.379292
1.323415
1.303915
1.315165
1.315165
1.355291
1.435356
1.542047
1.652113
1.746241
1.827431
1.87262
1.882933
1.847119
1.847119
1.769304
1.670488
1.569423
1.460857
1.386417
1.331291
1.310853
1.32304
1.358104
1.358104
1.433106
1.539984
1.645363
1.744178
1.828181
1.873182
1.884433
1.849744
1.786555
1.786555
1.685864
1.577298
1.475108
1.390918
1.333728
1.30879
1.319478
1.356229
1.435544
1.435544
1.540922
1.649675
1.744178
1.818056
1.871495
1.879932
1.856307
1.783367
1.783367
1.692614
1.585736
1.481858
1.395793
1.336916
1.314603
1.321353
1.358292
1.436106
1.436106
1.538297
1.646675
1.743616
1.826681
1.875057
1.891933
1.865119
1.80343
1.706865
1.706865
1.597174
1.488233
1.407418
1.343666
1.31554
1.322478
1.349479
1.417731
1.518046
1.518046
1.627925
1.724865
1.806618
1.857057
1.88087
1.857432
1.797992
1.704802
1.596049
1.596049
1.491608
1.40348
1.340103
1.312353
1.318915
1.339916
1.402543
1.505108
1.718115
1.718115
1.79668
1.854432
1.86887
1.848431
1.79143
1.706115
1.592299
1.488795
1.397855
1.397855
1.335228
1.304852
1.303915
1.326603
1.386417
1.488233
1.588548
1.688489
1.774367
1.774367
1.829493
1.850494
1.833056
1.773992
1.686802
1.572235
1.464045
1.371042
1.371042
1.307102
1.282539
1.281414
1.289852
1.329978
1.419793
1.517859
1.621174
1.704427
1.704427
1.764054
1.785804
1.763679
1.710615
1.62155
1.509421
1.391855
1.31179
1.274851
1.274851
1.265664
1.264164
1.269789
1.286664
1.358667
1.46142
1.561173
1.650238
1.711552
1.711552
1.746428
1.733303
1.684364
1.595111
1.485795
1.377604
1.300915
1.272414
1.262851
1.262851
1.262851
1.266601
1.280102
1.338041
1.446232
1.553485
1.64255
1.70649
1.70649
1.738741
1.734428
1.690927
1.610299
1.508671
1.40798
1.322103
1.281414
1.268476
1.268476
1.268289
1.275226
1.302227
1.38473
1.499671
1.614237
1.706302
1.783742
1.824056
1.824056
1.820493
1.78693
1.709865
1.602986
1.518046
1.427106
1.355291
1.323228
1.315165
1.315165
1.337853
1.392792
1.488233
1.593799
1.707427
1.80118
1.88012
1.924559
1.924934
1.924934
1.886495
1.811118
1.705927
1.603174
1.512421
1.422418
1.377792
1.363917
1.38548
1.38548
1.433669
1.521609
1.6328
1.740241
1.836244
1.905621
1.946122
1.95156
1.95156
1.914246
1.842431
1.73574
1.630175
1.532297
1.453919
1.401605
1.38248
1.398605
1.398605
1.446419
1.531547
1.634487
1.741741
1.836806
1.908996
1.945747
1.944622
1.911808
1.911808
1.841869
1.741928
1.639738
1.537172
1.452607
1.398418
1.378355
1.398605
1.441356
1.441356
1.521609
1.624925
1.734428
1.827993
1.901871
1.945934
1.950435
1.917996
1.845806
1.845806
1.746616
1.635612
1.532297
1.446794
1.393167
1.367854
1.373854
1.416793
1.416793
1.494983
1.591924
1.706115
1.800242
1.879557
1.926434
1.940309
1.908246
1.831931
1.831931
1.738553
1.627737
1.522734
1.439294
1.377792
1.348541
1.356041
1.395418
1.469295
1.469295
1.571298
1.681176
1.777929
1.862119
1.910121
1.920809
1.894183
1.830243
1.727303
1.727303
1.616674
1.523109
1.437231
1.368042
1.336541
1.347041
1.37423
1.449607
1.55086
1.55086
1.660176
1.766491
1.850119
1.902246
1.926621
1.894558
1.835494
1.741366
1.741366
1.630362
1.527984
1.435544
1.371604
1.337666
1.341603
1.368979
1.437419
1.54186
1.54186
1.650425
1.752241
1.838681
1.895495
1.918184
1.893808
1.831931
1.748303
1.6403
1.6403
1.536234
1.450169
1.383417
1.344791
1.347979
1.376104
1.441544
1.55161
1.662238
1.662238
1.756929
1.843744
1.899245
1.925121
1.89587
1.842994
1.748678
1.645925
1.542985
1.542985
1.446232
1.37423
1.335603
1.332791
1.370854
1.432731
1.532672
1.641988
1.741178
1.741178
1.821806
1.881057
1.900933
1.88012
1.821431
1.733303
1.624737
1.522359
1.522359
1.432356
1.361292
1.326978
1.326978
1.353791
1.419606
1.517484
1.627175
1.73049
1.73049
1.820493
1.889308
1.921746
1.907683
1.855182
1.769866
1.660551
1.558173
1.47567
1.47567
1.404043
1.357916
1.354354
1.377042
1.441356
1.525547
1.646113
1.747553
1.835681
1.835681
1.896995
1.928496
1.920809
1.875057
1.782617
1.682489
1.574298
1.483545
1.405918
1.405918
1.365792
1.351354
1.369917
1.424668
1.522547
1.629987
1.738553
1.834931
1.834931
1.902246
1.935059
1.927371
1.883495
1.797242
1.697489
1.590236
1.488983
1.419231
1.419231
1.368417
1.359229
1.385667
1.439106
1.527609
1.633925
1.735553
1.827431
1.900933
1.900933
1.934684
1.928309
1.887245
1.804743
1.700864
1.594361
1.503421
1.426731
1.375917
1.375917
1.367667
1.388855
1.424106
1.521046
1.624175
1.726365
1.81918
1.890808
1.926246
1.926246
1.933934
1.88762
1.809805
1.70499
1.598486
1.499671
1.421106
1.375355
1.375355
1.357729
1.377417
1.432544
1.525734
1.641988
1.753928
1.842806
1.906746
1.938059
1.938059
1.939559
1.908621
1.836056
1.73574
1.63505
1.539797
1.442669
1.354541
1.30579
1.30579
1.284227
1.284039
1.293789
1.341791
1.387542
1.437794
1.466482
1.490483
1.460295
1.460295
1.388105
1.310103
1.283102
1.269226
1.32379
1.400855
1.392792
1.328478
1.38998
1.38998
1.46592
1.672551
1.860432
2.066688
2.31532
2.479201
2.560766
2.564328
2.495889
2.495889
2.416761
2.28757
2.132315
1.990373
1.887433
1.79743
1.735553
1.70724
1.70724
1.713427
1.751678
1.826681
1.915558
1.985123
2.018687
2.04325
2.016624
1.950997
1.950997
1.856494
1.749241
1.63655
1.524796
1.434231
1.362979
1.332041
1.339916
1.375167
1.375167
1.454669
1.556672
1.661863
1.757304
1.837556
1.889683
1.893058
1.862869
1.792367
1.792367
1.693364
1.582923
1.476795
1.396168
1.338791
1.312728
1.32004
1.349666
1.420356
1.420356
1.523296
1.629425
1.725053
1.809618
1.862119
1.878057
1.854807
1.789929
1.789929
1.696739
1.590986
1.490858
1.40123
1.338603
1.315165
1.322103
1.350791
1.420356
1.420356
1.522922
1.6328
1.733303
1.815055
1.875432
1.896433
1.874495
1.811868
1.716615
1.716615
1.608049
1.504921
1.412106
1.345916
1.314415
1.32079
1.348916
1.427294
1.518984
1.518984
1.630737
1.734615
1.817118
1.875807
1.899433
1.876745
1.818243
1.72749
1.620987
1.620987
1.510359
1.422606
1.354541
1.321165
1.323228
1.344041
1.404418
1.506984
1.506984
1.618549
1.716615
1.800617
1.857244
1.883682
1.866619
1.811868
1.71774
1.617049
1.617049
1.510359
1.425606
1.360916
1.32379
1.323603
1.338978
1.392605
1.48992
1.600924
1.600924
1.703864
1.795555
1.857619
1.887808
1.871307
1.820681
1.73274
1.626612
1.524047
1.524047
1.429169
1.356229
1.312353
1.311415
1.327353
1.38398
1.476795
1.583486
1.685676
1.685676
1.773429
1.839056
1.86887
1.860807
1.817118
1.72599
1.614424
1.499858
1.499858
1.408731
1.336916
1.297915
1.287414
1.30129
1.345729
1.438544
1.54561
1.649863
1.649863
1.72599
1.794242
1.827431
1.812805
1.765741
1.681364
1.574486
1.46217
1.362604
1.362604
1.299227
1.275226
1.271476
1.277476
1.298665
1.368979
1.467607
1.570548
1.655863
1.655863
1.723365
1.762929
1.749991
1.703302
1.618924
1.511109
1.403293
1.31329
1.275414
1.275414
1.264351
1.262101
1.264351
1.273726
1.322478
1.421293
1.521796
1.616299
1.690364
1.690364
1.730865
1.725428
1.687176
1.609362
1.505858
1.396355
1.310853
1.272789
1.272789
1.262476
1.260788
1.263601
1.272039
1.313478
1.408543
1.515796
1.619674
1.698052
1.698052
1.741553
1.751303
1.724115
1.647613
1.553672
1.452607
1.361292
1.302602
1.279727
1.279727
1.274289
1.282727
1.31029
1.390167
1.501358
1.615362
1.719615
1.805305
1.854432
1.854432
1.864182
1.839994
1.771179
1.675176
1.574673
1.479608
1.408168
1.358292
1.330353
1.330353
1.352854
1.401793
1.485608
1.592861
1.706115
1.799492
1.875807
1.934122
1.934122
1.934872
1.904683
1.846744
1.757491
1.6448
1.547672
1.46517
1.410793
1.383605
1.383605
1.40123
1.441356
1.520296
1.629987
1.740241
1.834931
1.96131
1.976685
1.940872
1.878995
1.878995
1.779804
1.670114
1.567735
1.488233
1.420731
1.390918
1.401043
1.442669
1.519171
1.519171
1.617799
1.72749
1.828556
1.906558
1.957935
1.969935
1.942747
1.879932
1.78768
1.78768
1.676864
1.571298
1.487483
1.415668
1.382855
1.38623
1.422981
1.498921
1.608799
1.608799
1.717927
1.806805
1.893245
1.946309
1.964685
1.936747
1.869619
1.778679
1.778679
1.670864
1.55911
1.473795
1.40048
1.364479
1.373667
1.408168
1.47942
1.578986
1.578986
1.681176
1.784492
1.870557
1.923246
1.946309
1.928496
1.862682
1.773429
1.667676
1.667676
1.554422
1.461795
1.395418
1.365229
1.365979
1.392605
1.461607
1.560423
1.668238
1.668238
1.767429
1.854057
1.909371
1.935059
1.921371
1.869432
1.772679
1.665051
1.560048
1.560048
1.469295
1.40348
1.368417
1.367854
1.397105
1.45617
1.556672
1.658488
1.752428
1.752428
1.842806
1.901495
1.934872
1.917434
1.868682
1.777554
1.669363
1.566235
1.566235
1.476983
1.403668
1.360354
1.355854
1.388105
1.447732
1.54486
1.653238
1.754491
1.754491
1.842806
1.907308
1.935997
1.920621
1.872432
1.788617
1.676301
1.57111
1.478483
1.478483
1.407043
1.361292
1.352291
1.381167
1.441731
1.535484
1.646863
1.752991
1.837368
1.837368
1.909558
1.939559
1.929996
1.884245
1.800805
1.692802
1.588173
1.494608
1.420543
1.420543
1.374979
1.364479
1.387355
1.441544
1.539797
1.638988
1.746803
1.839431
1.839431
1.909558
1.946122
1.935059
1.889308
1.811493
1.709865
1.595486
1.505296
1.427481
1.427481
1.377604
1.365979
1.38623
1.439106
1.530609
1.6388
1.738928
1.833806
1.906371
1.906371
1.943122
1.935247
1.891558
1.811118
1.707615
1.596986
1.498921
1.423168
1.371042
1.371042
1.357166
1.383605
1.431981
1.519921
1.62605
1.733865
1.824993
1.894745
1.934497
1.934497
1.932434
1.894558
1.815993
1.71099
1.605799
1.501171
1.422981
1.374042
1.374042
1.355854
1.373104
1.420168
1.505858
1.606737
1.710615
1.810743
1.884807
1.929434
1.929434
1.935059
1.904121
1.821056
1.716615
1.610487
1.511671
1.420168
1.358854
1.336541
1.336541
1.347416
1.38773
1.464795
1.565298
1.677801
1.775867
1.859494
1.900558
1.908246
1.908246
1.869807
1.793305
1.691302
1.589298
1.490671
1.40123
1.348166
1.324915
1.339353
1.339353
1.384355
1.471732
1.576361
1.691114
1.791992
1.870557
1.922496
1.934122
1.902621
1.902621
1.829681
1.733865
1.6283
1.530422
1.448107
1.389792
1.362604
1.373854
1.373854
1.411356
1.490858
1.594549
1.70349
1.80043
1.883495
1.932246
1.95006
1.919309
1.919309
1.850307
1.749428
1.646113
1.541672
1.46142
1.39748
1.368604
1.377042
1.413418
1.413418
1.485233
1.591549
1.692989
1.78918
1.875807
1.928309
1.951372
1.929621
1.865682
1.865682
1.774554
1.662988
1.557235
1.471545
1.408355
1.373667
1.379667
1.420543
1.420543
1.493671
1.596611
1.702364
1.797055
1.882933
1.940122
1.957185
1.933184
1.872807
1.872807
1.774929
1.666176
1.559673
1.47792
1.40723
1.373479
1.377417
1.408355
1.48017
1.48017
1.578048
1.686051
1.785617
1.872057
1.929434
1.953997
1.931684
1.874307
1.775867
1.775867
1.669926
1.56736
1.477733
1.414731
1.372542
1.38098
1.418293
1.485983
1.589298
1.589298
1.688302
1.779429
1.860994
1.928871
1.965435
1.948372
1.907308
1.817868
1.702927
1.702927
1.575798
1.447919
1.340291
1.280664
1.267164
1.262851
1.265851
1.276539
1.276539
1.295665
1.342728
1.419418
1.463482
1.440981
1.46442
1.464982
1.542797
1.646113
1.646113
1.624737
1.515234
1.415668
1.409105
1.485983
1.621737
1.779992
2.026749
2.251569
2.251569
2.394823
2.504514
2.54314
2.54839
2.525327
2.453512
2.313446
2.166816
2.043062
2.043062
1.908058
1.800055
1.712677
1.661301
1.650238
1.674989
1.742491
1.818806
1.897745
1.897745
1.95756
1.991311
1.989436
1.952497
1.899245
1.809055
1.694114
1.578048
1.578048
1.474732
1.398043
1.353229
1.334291
1.360916
1.414356
1.503608
1.603924
1.706302
1.706302
1.794242
1.856494
1.89137
1.882183
1.836244
1.750741
1.64405
1.540922
1.436856
1.436856
1.364667
1.326041
1.306352
1.328103
1.390167
1.472857
1.571486
1.680051
1.774179
1.774179
1.848431
1.875807
1.87937
1.838119
1.770992
1.649488
1.534734
1.451482
1.366542
1.366542
1.309727
1.305977
1.355666
1.391667
1.47417
1.580298
1.714177
1.777179
1.842994
1.842994
1.890245
1.894558
1.866994
1.773429
1.678176
1.558173
1.46592
1.392043
1.392043
1.341228
1.329041
1.348729
1.395793
1.483545
1.577298
1.682489
1.785429
1.856494
1.856494
1.932621
1.932434
1.849744
1.786555
1.692614
1.586486
1.480733
1.39973
1.344979
1.344979
1.32304
1.333728
1.38248
1.46592
1.569235
1.671988
1.770054
1.845244
1.88837
1.88837
1.898683
1.862869
1.791055
1.700489
1.583486
1.479233
1.405918
1.336916
1.32154
1.32154
1.338978
1.38698
1.460482
1.55386
1.660926
1.749241
1.833431
1.886495
1.886495
1.890245
1.860432
1.79068
1.693927
1.584798
1.480545
1.39748
1.332978
1.31104
1.31104
1.32079
1.355104
1.434231
1.539047
1.6403
1.746991
1.820306
1.866619
1.874682
1.874682
1.842056
1.773054
1.669176
1.560235
1.456919
1.362417
1.319103
1.300165
1.299602
1.299602
1.326603
1.388855
1.488983
1.596049
1.688489
1.753928
1.821056
1.823306
1.79668
1.79668
1.732553
1.632237
1.513734
1.406106
1.323603
1.281227
1.269601
1.269414
1.269414
1.278977
1.31554
1.39523
1.509609
1.605799
1.691114
1.729928
1.749241
1.72674
1.72674
1.661676
1.563798
1.451857
1.350416
1.284789
1.265289
1.260601
1.260601
1.265289
1.265289
1.283664
1.349666
1.450357
1.550297
1.634862
1.693552
1.725428
1.707615
1.649113
1.649113
1.553672
1.450169
1.347604
1.284977
1.265851
1.260976
1.261913
1.266976
1.287789
1.287789
1.357729
1.458795
1.561173
1.655676
1.719802
1.746241
1.73199
1.680801
1.680801
1.598299
1.494233
1.397668
1.31929
1.280477
1.272976
1.271664
1.287039
1.328853
1.328853
1.436856
1.548047
1.657738
1.754491
1.824431
1.861744
1.839619
1.796867
1.72224
1.72224
1.613674
1.514859
1.433856
1.365229
1.32979
1.332603
1.373854
1.435356
1.539047
1.539047
1.6493
1.754491
1.849931
1.910496
1.946309
1.935247
1.890808
1.801742
1.699927
1.699927
1.602049
1.509046
1.434606
1.391105
1.383417
1.409105
1.469857
1.571673
1.677239
1.677239
1.781304
1.866807
1.937684
1.972185
1.961497
1.910683
1.827618
1.724678
1.724678
1.613674
1.522359
1.451294
1.40273
1.394293
1.413793
1.463482
1.566048
1.664301
1.664301
1.766491
1.860057
1.928496
1.969185
1.962247
1.919309
1.829306
1.72599
1.618362
1.618362
1.526672
1.448482
1.393355
1.38623
1.405355
1.461607
1.551422
1.655113
1.759554
1.759554
1.852182
1.920996
1.97106
1.95531
1.908808
1.844306
1.733303
1.627175
1.531547
1.531547
1.449607
1.400668
1.380417
1.395793
1.444919
1.530797
1.638988
1.737803
1.737803
1.836056
1.908996
1.947247
1.914058
1.830056
1.726928
1.616862
1.515984
1.437419
1.381542
1.381542
1.356791
1.374042
1.420918
1.504733
1.608799
1.72524
1.820868
1.89137
1.940122
1.940122
1.934309
1.904871
1.830618
1.723928
1.619487
1.513359
1.434231
1.374604
1.352854
1.352854
1.367667
1.414168
1.500421
1.605424
1.710615
1.799305
1.875432
1.930559
1.930559
1.932997
1.898683
1.828556
1.734428
1.624549
1.513921
1.428606
1.375729
1.351916
1.351916
1.364854
1.396168
1.482983
1.593611
1.700489
1.79143
1.872432
1.922871
1.933184
1.933184
1.894933
1.829306
1.73349
1.623237
1.520484
1.437981
1.377604
1.356041
1.367292
1.367292
1.39673
1.478295
1.583861
1.691114
1.790867
1.871495
1.921934
1.929434
1.900183
1.900183
1.831931
1.743803
1.642363
1.540547
1.452419
1.392043
1.364104
1.368792
1.368792
1.410981
1.482795
1.582923
1.692614
1.796305
1.875245
1.919684
1.937684
1.913308
1.913308
1.844306
1.744178
1.655676
1.548797
1.456357
1.394668
1.363167
1.368417
1.403105
1.403105
1.475483
1.572423
1.682114
1.78618
1.868682
1.924371
1.944247
1.918934
1.856119
1.856119
1.765366
1.654738
1.544672
1.463295
1.401605
1.352854
1.363167
1.39748
1.461795
1.461795
1.56661
1.674801
1.775304
1.863057
1.922684
1.949122
1.922871
1.865307
1.773804
1.773804
1.670488
1.55986
1.467795
1.406668
1.371604
1.375729
1.398043
1.466857
1.466857
1.56361
1.671051
1.773242
1.858932
1.924559
1.946122
1.926246
1.869995
1.772867
1.772867
1.675176
1.571673
1.469295
1.40723
1.358479
1.358854
1.396168
1.453732
1.549547
1.549547
1.660363
1.766491
1.851994
1.916121
1.950247
1.928684
1.872995
1.784117
1.677426
1.677426
1.571298
1.481108
1.40948
1.359792
1.359416
1.382667
1.438919
1.534547
1.641425
1.641425
1.750178
1.847306
1.910121
1.946309
1.933184
1.881807
1.794617
1.688302
1.688302
1.581048
1.483733
1.413043
1.370667
1.366354
1.38848
1.441731
1.535672
1.64255
1.64255
1.744366
1.835868
1.909371
1.933184
1.923059
1.880682
1.799117
1.689801
1.580298
1.580298
1.490483
1.416043
1.363167
1.352104
1.375167
1.428044
1.513734
1.620049
1.727865
1.727865
1.818431
1.888558
1.925684
1.921934
1.879932
1.793305
1.689427
1.578986
1.488233
1.488233
1.411356
1.362979
1.350041
1.363354
1.418668
1.513359
1.617987
1.72449
1.72449
1.80793
1.890995
1.914996
1.916871
1.866245
1.791055
1.680614
1.571673
1.47342
1.47342
1.393917
1.344791
1.327916
1.353229
1.395418
1.48167
1.578986
1.677614
1.772117
1.772117
1.841494
1.88387
1.88087
1.846369
1.761429
1.665051
1.557423
1.464045
1.38773
1.38773
1.336353
1.324728
1.341603
1.39223
1.480358
1.582736
1.690364
1.784305
1.863807
1.863807
1.908996
1.919684
1.894183
1.822556
1.721115
1.614799
1.511109
1.430481
1.376855
1.376855
1.348166
1.368979
1.411356
1.494983
1.601111
1.70874
1.806055
1.888558
1.888558
1.925496
1.938059
1.908996
1.835494
1.73274
1.625487
1.523859
1.438356
1.379667
1.379667
1.349291
1.369729
1.411918
1.490296
1.596611
1.706115
1.805118
1.880495
1.927746
1.927746
1.943122
1.905808
1.840931
1.743241
1.636362
1.534547
1.449982
1.391105
1.359792
1.359792
1.368604
1.410606
1.492171
1.591549
1.697677
1.789555
1.876182
1.927934
1.935622
1.935622
1.905058
1.842056
1.745866
1.640112
1.531359
1.443794
1.387542
1.361104
1.361104
1.370854
1.406855
1.487108
1.580298
1.680801
1.793867
1.872995
1.933371
1.949872
1.949872
1.926809
1.87187
1.778867
1.672176
1.57111
1.48092
1.401793
1.375167
1.390355
1.390355
1.428606
1.506608
1.619862
1.72299
1.79893
1.857807
1.899621
1.851807
1.779617
1.779617
1.671988
1.542797
1.387542
1.279164
1.255913
1.253101
1.252163
1.252538
1.252538
1.252538
1.253851
1.318728
1.639363
1.855744
1.921934
1.920059
1.943872
1.911996
1.911996
1.979498
1.999936
2.05075
2.106814
2.081501
1.983811
1.908433
1.87412
1.902621
1.902621
1.954372
2.032749
2.121252
2.199442
2.251381
2.281945
2.270507
2.216693
2.123127
2.123127
1.998811
1.869619
1.747178
1.62605
1.516171
1.445669
1.418106
1.419606
1.463857
1.463857
1.545985
1.641988
1.73349
1.821993
1.89062
1.904308
1.88687
1.824431
1.744178
1.744178
1.6403
1.526297
1.435731
1.363167
1.320603
1.317228
1.333166
1.38473
1.481295
1.481295
1.589861
1.695989
1.787117
1.840181
1.873745
1.859869
1.818806
1.729178
1.729178
1.62155
1.520296
1.424856
1.357354
1.316478
1.312915
1.333728
1.382667
1.46967
1.46967
1.580298
1.686614
1.777929
1.845431
1.882933
1.874307
1.826868
1.737053
1.644988
1.644988
1.531359
1.438731
1.367104
1.320978
1.31254
1.334291
1.389042
1.471545
1.581423
1.581423
1.688676
1.782617
1.846931
1.88537
1.874682
1.829493
1.760116
1.655863
1.542047
1.542047
1.442294
1.362604
1.317415
1.311228
1.323978
1.367292
1.458607
1.564173
1.564173
1.668801
1.759366
1.835494
1.853119
1.852931
1.831743
1.757679
1.649863
1.539047
1.539047
1.441169
1.363917
1.31704
1.310103
1.315915
1.370104
1.448669
1.55086
1.666926
1.666926
1.752803
1.828368
1.865119
1.863619
1.834743
1.757304
1.652863
1.543547
1.444169
1.444169
1.365604
1.315915
1.300352
1.31554
1.356041
1.440419
1.54561
1.662613
1.743991
1.743991
1.812243
1.859682
1.861182
1.827431
1.747928
1.645175
1.543172
1.445107
1.445107
1.363917
1.315915
1.299415
1.308415
1.345916
1.426919
1.532109
1.636737
1.73124
1.73124
1.80643
1.848994
1.853869
1.813555
1.744928
1.6388
1.526859
1.428044
1.347416
1.347416
1.304102
1.283477
1.292477
1.315728
1.384542
1.481483
1.584236
1.676301
1.758616
1.758616
1.801555
1.800992
1.767617
1.696927
1.594924
1.48017
1.372167
1.301477
1.274664
1.274664
1.265664
1.267164
1.275601
1.319103
1.408731
1.502296
1.601111
1.682864
1.682864
1.735178
1.73349
1.706115
1.637487
1.536047
1.431606
1.329228
1.280664
1.265664
1.265664
1.260976
1.262289
1.266039
1.293227
1.375167
1.473982
1.56736
1.655301
1.703677
1.703677
1.72524
1.698052
1.639363
1.544485
1.431044
1.334478
1.281789
1.265476
1.261163
1.261163
1.262476
1.270914
1.293789
1.375355
1.488045
1.590236
1.677239
1.737615
1.762929
1.762929
1.750178
1.692239
1.606174
1.508484
1.411356
1.328665
1.288352
1.275789
1.283102
1.283102
1.30429
1.366354
1.481108
1.600924
1.698427
1.782054
1.844494
1.878432
1.878432
1.869057
1.809993
1.72599
1.63055
1.531547
1.440231
1.376104
1.344979
1.345916
1.345916
1.388105
1.451669
1.561735
1.667113
1.773429
1.862869
1.928121
1.954747
1.937122
1.937122
1.884058
1.794617
1.687739
1.586861
1.502671
1.428231
1.388667
1.391105
1.420731
1.420731
1.487108
1.586111
1.691114
1.796867
1.889308
1.944622
1.973123
1.96056
1.910496
1.910496
1.823868
1.717552
1.605986
1.517296
1.450169
1.40573
1.396355
1.427669
1.427669
1.487108
1.589674
1.693552
1.79518
1.881245
1.953435
1.97856
1.95756
1.919121
1.72149
1.72149
1.616112
1.520859
1.451857
1.39823
1.398793
1.422418
1.471545
1.56286
1.669363
1.669363
1.774742
1.860432
1.926809
1.967873
1.96281
1.896245
1.810368
1.707802
1.607674
1.607674
1.507546
1.433106
1.386605
1.370854
1.39523
1.452607
1.54261
1.649488
1.754491
1.754491
1.841119
1.910121
1.942934
1.935997
1.900745
1.81393
1.700677
1.598674
1.495546
1.495546
1.423731
1.369542
1.355666
1.374792
1.433481
1.518984
1.62905
1.729553
1.729553
1.818806
1.887433
1.923621
1.925684
1.881807
1.803992
1.691864
1.590424
1.488608
1.488608
1.410981
1.366729
1.355104
1.349479
1.40648
1.492546
1.595299
1.702739
1.797242
1.797242
1.866994
1.912183
1.911246
1.875807
1.806243
1.697114
1.588923
1.498921
1.412668
1.412668
1.356791
1.344979
1.360541
1.405168
1.494421
1.599236
1.712302
1.79668
1.87337
1.87337
1.922496
1.924371
1.893245
1.810368
1.71549
1.607299
1.507733
1.420918
1.420918
1.369729
1.349104
1.361104
1.408731
1.494233
1.596236
1.707615
1.797992
1.88162
1.88162
1.922309
1.942372
1.900183
1.821806
1.728428
1.625487
1.518234
1.436106
1.38773
1.38773
1.348916
1.363167
1.40573
1.48467
1.593424
1.70724
1.798555
1.876557
1.929246
1.929246
1.937872
1.908996
1.841119
1.749241
1.627362
1.528922
1.445294
1.380417
1.356041
1.356041
1.370104
1.407418
1.48317
1.580111
1.694489
1.787492
1.871495
1.926059
1.944622
1.944622
1.909746
1.830993
1.750741
1.639175
1.537734
1.449232
1.393355
1.352291
1.352291
1.371229
1.397293
1.471732
1.577861
1.700114
1.780367
1.878432
1.924371
1.939559
1.939559
1.916683
1.854994
1.749241
1.644425
1.548235
1.449794
1.394105
1.361292
1.368979
1.368979
1.405543
1.477357
1.580111
1.687551
1.791992
1.865682
1.928496
1.962247
1.910121
1.910121
1.861557
1.773429
1.668988
1.56736
1.478483
1.404043
1.368417
1.370667
1.407418
1.407418
1.477733
1.565673
1.683614
1.790305
1.865869
1.926059
1.942184
1.926434
1.926434
1.869057
1.782617
1.658488
1.549172
1.46592
1.408543
1.367479
1.355666
1.410418
1.410418
1.472295
1.560985
1.674614
1.776617
1.855744
1.928496
1.936184
1.923246
1.87037
1.87037
1.776617
1.669363
1.565485
1.476045
1.404418
1.365417
1.367104
1.397105
1.45992
1.45992
1.561548
1.662801
1.767429
1.850869
1.921559
1.939934
1.919309
1.875995
1.790117
1.790117
1.675926
1.582548
1.477357
1.408355
1.372354
1.364667
1.39148
1.455232
1.551797
1.551797
1.654363
1.765554
1.839244
1.909746
1.948934
1.928121
1.86887
1.78693
1.78693
1.682114
1.602799
1.48842
1.417168
1.375167
1.374604
1.37948
1.442857
1.533047
1.533047
1.652863
1.750554
1.840931
1.913683
1.945934
1.937684
1.884058
1.800242
1.690364
1.690364
1.607862
1.517296
1.424106
1.372354
1.376292
1.397293
1.437606
1.535297
1.64405
1.64405
1.749616
1.832306
1.902996
1.948372
1.937497
1.884058
1.804555
1.701614
1.592861
1.592861
1.487483
1.413231
1.359416
1.346104
1.359979
1.420543
1.512796
1.613299
1.613299
1.725615
1.820681
1.892308
1.932621
1.925309
1.884058
1.805868
1.692614
1.590236
1.590236
1.493296
1.415856
1.362042
1.351166
1.364479
1.410231
1.500608
1.600361
1.71099
1.71099
1.793117
1.87862
1.916871
1.917808
1.880682
1.80343
1.689614
1.563423
1.45842
1.45842
1.375167
1.324915
1.307852
1.326228
1.369542
1.456544
1.567923
1.674801
1.776242
1.776242
1.856869
1.899245
1.886308
1.878807
1.80343
1.700677
1.588173
1.485608
1.485608
1.411356
1.346479
1.330541
1.348729
1.407605
1.495171
1.594924
1.705364
1.799117
1.799117
1.87412
1.918746
1.930934
1.899621
1.825931
1.727303
1.609924
1.519359
1.433106
1.433106
1.37423
1.350229
1.361479
1.413793
1.488983
1.600174
1.700302
1.799867
1.879745
1.879745
1.921559
1.931309
1.900933
1.834931
1.737428
1.626612
1.530047
1.441919
1.378917
1.378917
1.349479
1.361667
1.402168
1.48617
1.587423
1.686989
1.788617
1.87037
1.923434
1.923434
1.936934
1.915371
1.854057
1.741553
1.637862
1.531922
1.445482
1.386042
1.386042
1.352291
1.364292
1.399918
1.477545
1.572235
1.685301
1.787304
1.870932
1.921746
1.921746
1.939184
1.911621
1.844681
1.748866
1.637862
1.541109
1.454107
1.370104
1.354541
1.354541
1.370104
1.418106
1.497421
1.606174
1.699739
1.79143
1.861182
1.926621
1.951184
1.951184
1.930371
1.881432
1.791055
1.676301
1.554985
1.424856
1.320603
1.272976
1.262289
1.262289
1.259101
1.261163
1.267914
1.278039
1.309727
1.362417
1.399355
1.394668
1.394668
1.373479
1.344041
1.40123
1.536984
1.543735
1.46292
1.353604
1.350041
1.409855
1.409855
1.563798
1.721678
1.973873
2.208067
2.36876
2.469638
2.513889
2.517077
2.474513
2.474513
2.400261
2.264507
2.105877
1.981185
1.858744
1.753553
1.683801
1.6373
1.646863
1.646863
1.678364
1.753179
1.839431
1.913871
1.958122
2.003124
1.982873
1.954185
1.885932
1.885932
1.797805
1.678739
1.563985
1.47117
1.393167
1.349291
1.342541
1.366354
1.366354
1.429544
1.537359
1.617049
1.72974
1.809805
1.876932
1.904683
1.898683
1.838119
1.838119
1.736866
1.638988
1.528922
1.430856
1.368042
1.323415
1.319103
1.346291
1.404418
1.404418
1.492546
1.599799
1.698239
1.792742
1.861932
1.893433
1.88612
1.836244
1.752428
1.752428
1.64855
1.543172
1.445294
1.378917
1.340103
1.317603
1.344791
1.39598
1.48692
1.48692
1.584048
1.688302
1.799867
1.869244
1.907871
1.891933
1.844681
1.767054
1.661301
1.661301
1.55536
1.456357
1.385292
1.342353
1.328665
1.348541
1.405355
1.491421
1.491421
1.603736
1.70799
1.794992
1.869995
1.902058
1.899808
1.857244
1.779804
1.676864
1.676864
1.558923
1.470607
1.390918
1.338041
1.324353
1.346104
1.39373
1.477357
1.578236
1.578236
1.685489
1.779054
1.848056
1.886308
1.907121
1.848431
1.770617
1.672926
1.563235
1.563235
1.469107
1.387355
1.334666
1.314228
1.337666
1.378355
1.46292
1.569423
1.680051
1.680051
1.768554
1.845056
1.87262
1.893058
1.864369
1.784117
1.677239
1.571486
1.571486
1.468732
1.38998
1.334478
1.314978
1.333541
1.37798
1.450544
1.55686
1.665613
1.665613
1.759741
1.833243
1.881245
1.895308
1.855932
1.776429
1.675364
1.572048
1.469857
1.469857
1.381917
1.32379
1.306915
1.309165
1.367667
1.426356
1.513359
1.612362
1.721678
1.721678
1.80118
1.830431
1.849744
1.81693
1.752803
1.64705
1.54186
1.423543
1.346854
1.346854
1.289102
1.290602
1.287227
1.303915
1.374042
1.452044
1.556672
1.651175
1.651175
1.73049
1.772492
1.780179
1.763304
1.694302
1.584048
1.47267
1.370479
1.291352
1.291352
1.274101
1.265101
1.266414
1.274101
1.308602
1.398605
1.491233
1.600361
1.692052
1.692052
1.743803
1.746616
1.71849
1.654926
1.56286
1.450169
1.352479
1.289102
1.267726
1.267726
1.262851
1.263789
1.268851
1.293977
1.379855
1.481483
1.594736
1.686427
1.731428
1.731428
1.749053
1.73124
1.668801
1.579548
1.365229
1.303352
1.273539
1.266976
1.268851
1.268851
1.278977
1.319103
1.416606
1.532484
1.641237
1.73649
1.800992
1.822931
1.799492
1.799492
1.766491
1.685864
1.577298
1.472857
1.389792
1.332416
1.309727
1.311415
1.340853
1.340853
1.40948
1.522922
1.6313
1.739491
1.828556
1.902058
1.928496
1.911058
1.862682
1.862682
1.766491
1.668426
1.56886
1.485233
1.403105
1.357729
1.362604
1.398605
1.398605
1.47117
1.57261
1.699739
1.797242
1.885558
1.946872
1.965998
1.951372
1.904308
1.904308
1.80493
1.701052
1.608612
1.503608
1.440794
1.396543
1.390543
1.422418
1.481108
1.481108
1.575236
1.681364
1.786742
1.879557
1.942184
1.975935
1.960935
1.902058
1.825743
1.825743
1.714927
1.612737
1.509984
1.441919
1.377229
1.396543
1.419418
1.47492
1.56811
1.56811
1.676301
1.778679
1.869057
1.935247
1.970873
1.96731
1.907121
1.826118
1.826118
1.721865
1.613862
1.533047
1.443419
1.390167
1.376104
1.413043
1.460857
1.566048
1.566048
1.672176
1.771179
1.853494
1.926621
1.962997
1.947247
1.908996
1.825368
1.718678
1.718678
1.612362
1.512421
1.441356
1.385855
1.370292
1.394855
1.452044
1.53961
1.6403
1.6403
1.747178
1.835868
1.904683
1.942934
1.912746
1.903371
1.821993
1.71249
1.602611
1.602611
1.506984
1.430106
1.372167
1.358104
1.377604
1.431606
1.511109
1.613487
1.613487
1.722615
1.814493
1.894558
1.929246
1.932621
1.88987
1.814305
1.721115
1.609362
1.609362
1.508109
1.430294
1.37648
1.347979
1.376104
1.428419
1.499483
1.605986
1.714552
1.714552
1.811868
1.891558
1.928496
1.932997
1.901683
1.817868
1.719052
1.616487
1.508484
1.508484
1.428419
1.370292
1.356041
1.368604
1.423168
1.499858
1.604486
1.71249
1.812243
1.812243
1.882745
1.922684
1.936559
1.901871
1.828743
1.730115
1.611237
1.517859
1.517859
1.434981
1.38098
1.360167
1.377604
1.397668
1.499671
1.598486
1.707615
1.803805
1.803805
1.883682
1.927559
1.938809
1.914246
1.844869
1.725803
1.629237
1.530609
1.440981
1.440981
1.37948
1.360916
1.361854
1.404605
1.489733
1.592111
1.692052
1.785992
1.868495
1.868495
1.924934
1.937497
1.908058
1.842994
1.737053
1.634862
1.527797
1.444169
1.387355
1.387355
1.362604
1.371229
1.395793
1.480733
1.586298
1.689052
1.796867
1.874682
1.924184
1.924184
1.946684
1.909371
1.844494
1.752803
1.64105
1.538859
1.466857
1.392792
1.392792
1.355666
1.356041
1.406855
1.47492
1.578423
1.687551
1.781304
1.862494
1.921934
1.921934
1.935997
1.919309
1.851431
1.753928
1.647988
1.537922
1.451857
1.387167
1.352104
1.352104
1.363354
1.402918
1.46442
1.568298
1.677426
1.763491
1.855744
1.913308
1.934684
1.934684
1.907308
1.845619
1.763116
1.656613
1.551047
1.461795
1.39148
1.346666
1.354166
1.354166
1.398043
1.458045
1.557985
1.665613
1.767429
1.851431
1.903183
1.926996
1.926996
1.910308
1.868495
1.768742
1.665238
1.558548
1.479608
1.40048
1.358854
1.366729
1.366729
1.365417
1.455982
1.554798
1.652488
1.764241
1.845244
1.907871
1.926621
1.920996
1.920996
1.867182
1.779429
1.670301
1.57261
1.462732
1.405355
1.353416
1.363917
1.386042
1.386042
1.440044
1.54486
1.647613
1.762741
1.848056
1.914433
1.941434
1.921559
1.87487
1.87487
1.783179
1.684739
1.568673
1.497046
1.412481
1.359979
1.358479
1.384917
1.384917
1.443232
1.540172
1.628112
1.752428
1.842431
1.918559
1.930934
1.918559
1.881245
1.881245
1.80493
1.691864
1.575048
1.485045
1.40348
1.364667
1.355291
1.378917
1.434606
1.434606
1.530984
1.632612
1.748678
1.830806
1.902996
1.930934
1.917808
1.877682
1.79968
1.79968
1.698052
1.586486
1.485795
1.424856
1.364104
1.365042
1.380792
1.420356
1.515046
1.515046
1.62155
1.72524
1.824806
1.901683
1.913496
1.904871
1.847119
1.801742
1.801742
1.695989
1.574111
1.488233
1.406106
1.368417
1.355104
1.364292
1.423731
1.501733
1.501733
1.619299
1.719615
1.80568
1.882933
1.920059
1.919496
1.872807
1.808305
1.693364
1.693364
1.596049
1.491233
1.410981
1.364667
1.346854
1.365792
1.404605
1.486545
1.589861
1.589861
1.680801
1.767617
1.843181
1.878432
1.884433
1.835118
1.783742
1.671988
1.569423
1.569423
1.476045
1.397105
1.338978
1.330353
1.347416
1.392043
1.47792
1.582361
1.688676
1.688676
1.787304
1.864932
1.911621
1.910871
1.875057
1.838869
1.733865
1.624175
1.624175
1.521984
1.446232
1.384167
1.362604
1.374042
1.414918
1.494046
1.590049
1.700114
1.700114
1.796305
1.88312
1.933184
1.941622
1.908058
1.842994
1.739491
1.636175
1.533047
1.533047
1.448857
1.393917
1.363542
1.378167
1.415293
1.495546
1.602611
1.709115
1.797242
1.797242
1.887995
1.935247
1.939934
1.911808
1.852369
1.752803
1.643675
1.54261
1.458795
1.458795
1.390167
1.358292
1.375542
1.412293
1.48767
1.587236
1.692989
1.790117
1.790117
1.875995
1.922496
1.942184
1.920809
1.855182
1.758429
1.641425
1.542797
1.456732
1.456732
1.396355
1.361667
1.370854
1.40273
1.476233
1.585173
1.683426
1.781492
1.878057
1.878057
1.931497
1.952497
1.934309
1.87937
1.781492
1.674426
1.565673
1.469295
1.40348
1.40348
1.368604
1.389605
1.418293
1.503796
1.608799
1.698614
1.759366
1.803618
1.805118
1.805118
1.771179
1.677801
1.575048
1.427669
1.29604
1.257038
1.252913
1.252163
1.251976
1.251976
1.251976
1.252163
1.253288
1.335228
1.608799
1.781117
1.832681
1.882933
1.882933
1.944622
2.03725
2.070063
2.092939
2.144878
2.146003
2.085814
2.036875
1.957935
1.957935
1.940309
1.960185
2.003124
2.033499
2.112814
2.199255
2.239193
2.269944
2.258131
2.258131
2.200192
2.119752
2.009124
1.873182
1.748678
1.617424
1.524796
1.448107
1.407418
1.407418
1.413793
1.46967
1.560423
1.661676
1.757116
1.833806
1.879182
1.932059
1.911246
1.911246
1.863057
1.771179
1.663363
1.54936
1.465545
1.383792
1.329603
1.32079
1.32079
1.342353
1.395043
1.490483
1.599611
1.70799
1.802118
1.863807
1.898495
1.882183
1.882183
1.835118
1.746053
1.648738
1.543547
1.449232
1.371792
1.326228
1.32304
1.340666
1.340666
1.386605
1.490296
1.595861
1.690927
1.791617
1.868307
1.89437
1.882933
1.839806
1.839806
1.757116
1.657738
1.542047
1.448107
1.371042
1.329041
1.325103
1.342916
1.400105
1.400105
1.483358
1.582548
1.685676
1.804743
1.866432
1.900371
1.894558
1.858932
1.858932
1.770617
1.669738
1.561923
1.464982
1.390543
1.347604
1.330541
1.350791
1.394293
1.394293
1.487858
1.590611
1.697677
1.787492
1.859119
1.89662
1.893433
1.859869
1.779054
1.779054
1.673489
1.570735
1.470795
1.392605
1.347791
1.330541
1.342541
1.39148
1.466295
1.466295
1.585923
1.688302
1.779054
1.842619
1.900183
1.903183
1.856307
1.782804
1.677989
1.677989
1.566423
1.476233
1.395043
1.340291
1.321353
1.333353
1.381355
1.464982
1.464982
1.571673
1.682676
1.773617
1.854994
1.900558
1.89812
1.860807
1.793305
1.689239
1.689239
1.587986
1.47792
1.344229
1.317415
1.329041
1.374792
1.453544
1.557985
1.659238
1.755429
1.755429
1.836994
1.868307
1.88387
1.851057
1.773429
1.673301
1.557985
1.455044
1.373292
1.373292
1.318353
1.29529
1.301477
1.328665
1.398043
1.498171
1.607674
1.699927
1.778867
1.778867
1.812618
1.81918
1.793867
1.698239
1.62905
1.503983
1.403105
1.321353
1.280102
1.280102
1.271101
1.273539
1.283289
1.328665
1.423356
1.523109
1.618174
1.697864
1.743428
1.743428
1.762554
1.73049
1.663176
1.558173
1.450544
1.341791
1.288539
1.266789
1.266789
1.262289
1.263601
1.269226
1.296227
1.375355
1.485983
1.578798
1.663551
1.715302
1.715302
1.732178
1.705552
1.63955
1.542047
1.435731
1.350041
1.281977
1.266039
1.262289
1.262289
1.262851
1.268851
1.293602
1.381167
1.484858
1.592861
1.673114
1.73799
1.767241
1.767241
1.751491
1.700114
1.613862
1.499671
1.410043
1.343104
1.29979
1.281227
1.281227
1.285164
1.306915
1.385667
1.472857
1.591361
1.704802
1.782429
1.861182
1.879557
1.879557
1.868119
1.818618
1.732178
1.628862
1.535297
1.451294
1.380042
1.347979
1.344791
1.344791
1.382105
1.460857
1.564173
1.675551
1.780179
1.868495
1.936747
1.966373
1.947059
1.947059
1.890433
1.802493
1.698239
1.591924
1.515234
1.441919
1.402918
1.401043
1.428981
1.428981
1.490858
1.585923
1.701614
1.801742
1.88762
1.945372
1.975185
1.96131
1.911246
1.911246
1.826306
1.715865
1.607674
1.518796
1.443607
1.397855
1.38998
1.422793
1.422793
1.473982
1.578236
1.687927
1.785242
1.878057
1.943684
1.97706
1.965435
1.918559
1.918559
1.835681
1.730303
1.620049
1.528547
1.451482
1.407043
1.38548
1.441544
1.482983
1.482983
1.564923
1.679676
1.783554
1.875245
1.941622
1.975935
1.970685
1.920434
1.836994
1.836994
1.723928
1.620424
1.527797
1.445669
1.402355
1.39073
1.408543
1.465357
1.551797
1.551797
1.6538
1.766117
1.850119
1.925684
1.968998
1.958122
1.913871
1.823306
1.823306
1.72374
1.609174
1.511109
1.442294
1.38023
1.371604
1.38923
1.446232
1.539235
1.539235
1.6373
1.744366
1.832681
1.900745
1.940122
1.940122
1.895683
1.823493
1.712302
1.712302
1.613862
1.516171
1.439106
1.379292
1.362979
1.381542
1.420918
1.529672
1.622675
1.622675
1.725428
1.820681
1.898495
1.935059
1.930184
1.897558
1.819368
1.71699
1.604299
1.604299
1.505108
1.428794
1.372542
1.352479
1.382105
1.421481
1.498921
1.613299
1.613299
1.725803
1.810555
1.885932
1.929996
1.933934
1.896245
1.820868
1.720178
1.608237
1.608237
1.516734
1.431981
1.377792
1.348916
1.369542
1.414543
1.493296
1.590049
1.712302
1.712302
1.803055
1.882557
1.924559
1.927746
1.89887
1.826493
1.727115
1.6238
1.522359
1.522359
1.443982
1.386042
1.360916
1.374604
1.413606
1.492733
1.598299
1.702364
1.794805
1.794805
1.876557
1.930184
1.936559
1.904683
1.843181
1.737428
1.644988
1.537734
1.452232
1.452232
1.389042
1.365229
1.38473
1.417918
1.495358
1.587986
1.698989
1.797805
1.797805
1.875432
1.930371
1.938247
1.909183
1.837556
1.749053
1.64705
1.546172
1.453919
1.453919
1.395043
1.364104
1.375729
1.40798
1.483358
1.581798
1.697302
1.793492
1.87037
1.87037
1.920246
1.938809
1.921559
1.859307
1.761804
1.6463
1.547672
1.458607
1.390167
1.390167
1.357916
1.372542
1.407418
1.476233
1.581423
1.677051
1.784305
1.868682
1.919496
1.919496
1.945559
1.915934
1.857807
1.764429
1.666363
1.551797
1.464045
1.393917
1.393917
1.351541
1.365229
1.399355
1.468357
1.56511
1.675364
1.773804
1.858557
1.917434
1.917434
1.936747
1.918746
1.862682
1.765554
1.665988
1.561173
1.464232
1.39973
1.368979
1.368979
1.368417
1.39673
1.458045
1.561923
1.670864
1.769304
1.856494
1.925871
1.936934
1.936934
1.922871
1.864369
1.782242
1.669551
1.55911
1.47117
1.40948
1.364104
1.371042
1.371042
1.39973
1.46142
1.557423
1.663176
1.772304
1.845619
1.912746
1.943497
1.924746
1.924746
1.868682
1.787304
1.681551
1.57336
1.480545
1.413043
1.374792
1.366167
1.366167
1.386417
1.453544
1.559485
1.655676
1.758804
1.845619
1.901495
1.941809
1.933746
1.933746
1.875807
1.788617
1.685864
1.576736
1.488233
1.406855
1.368417
1.361479
1.385667
1.385667
1.442107
1.537922
1.650425
1.752428
1.844119
1.906371
1.928871
1.933934
1.87637
1.87637
1.796305
1.693177
1.581611
1.49292
1.412856
1.354166
1.344229
1.364854
1.427481
1.427481
1.520671
1.626425
1.72599
1.824056
1.899433
1.925871
1.918371
1.872807
1.872807
1.794055
1.689614
1.580861
1.483733
1.408731
1.364104
1.348729
1.373292
1.425981
1.425981
1.516546
1.622862
1.720365
1.815243
1.877307
1.912558
1.905808
1.864369
1.785242
1.785242
1.676114
1.572986
1.469482
1.386042
1.338603
1.32304
1.331666
1.380605
1.468357
1.468357
1.573548
1.687927
1.775867
1.846931
1.888745
1.891558
1.850307
1.768742
1.663926
1.663926
1.558735
1.468357
1.394668
1.349291
1.32454
1.348916
1.394293
1.48992
1.48992
1.591924
1.702739
1.783179
1.873932
1.917434
1.923059
1.88987
1.812243
1.716427
1.716427
1.606362
1.503421
1.414731
1.371229
1.344791
1.363917
1.419606
1.500233
1.596799
1.596799
1.706865
1.808493
1.875995
1.931309
1.935059
1.896808
1.823306
1.722615
1.617612
1.617612
1.512796
1.439481
1.381167
1.354916
1.368417
1.413981
1.48767
1.585548
1.703115
1.703115
1.792367
1.874307
1.921184
1.920621
1.904121
1.827618
1.734241
1.634487
1.512234
1.512234
1.430669
1.383042
1.352291
1.364292
1.40948
1.481483
1.581798
1.692239
1.692239
1.79443
1.873745
1.915746
1.934122
1.902058
1.834743
1.746241
1.633737
1.524047
1.524047
1.437981
1.379667
1.350604
1.367292
1.40798
1.474358
1.574861
1.687364
1.781492
1.781492
1.863057
1.920996
1.943309
1.913871
1.855557
1.765929
1.65155
1.543922
1.452419
1.452419
1.404418
1.377792
1.382667
1.424481
1.510171
1.583861
1.675176
1.758241
1.793117
1.793117
1.800805
1.774742
1.708177
1.610674
1.502671
1.333541
1.266601
1.255351
1.255351
1.253101
1.252726
1.253476
1.264351
1.45617
1.689239
1.789367
1.829493
1.87787
1.87787
1.905433
1.985123
2.043437
2.146565
2.225505
2.208067
2.109627
1.994311
1.853307
1.853307
1.779804
1.776054
1.804555
1.844494
1.939559
2.025062
2.083751
2.144691
2.177316
2.177316
2.167754
2.127815
2.041562
1.917808
1.801555
1.668988
1.54186
1.442294
1.374417
1.374417
1.366354
1.39073
1.442669
1.520671
1.616487
1.717365
1.809993
1.871307
1.889495
1.889495
1.873182
1.815618
1.730303
1.616674
1.501921
1.408168
1.337478
1.30129
1.30129
1.29979
1.317978
1.376104
1.467982
1.57261
1.680239
1.763304
1.830993
1.860994
1.860994
1.851807
1.796867
1.723178
1.605236
1.500796
1.411918
1.338416
1.304477
1.298852
1.298852
1.31779
1.368229
1.459732
1.56961
1.672176
1.764241
1.829306
1.862119
1.857807
1.857807
1.804555
1.71699
1.617987
1.506421
1.422606
1.350229
1.306165
1.31404
1.359041
1.359041
1.453357
1.559673
1.664301
1.759554
1.813555
1.859119
1.848431
1.821618
1.739303
1.739303
1.623612
1.519734
1.422043
1.342916
1.297352
1.31179
1.320228
1.359416
1.446419
1.446419
1.543172
1.657926
1.749053
1.817305
1.854619
1.851619
1.804743
1.720178
1.620049
1.620049
1.511859
1.416043
1.340103
1.305227
1.296414
1.302415
1.352291
1.447169
1.447169
1.534172
1.64255
1.732553
1.806618
1.853119
1.850307
1.803243
1.72749
1.619862
1.619862
1.504171
1.418481
1.334291
1.295665
1.284977
1.298852
1.338978
1.421106
1.526109
1.526109
1.613299
1.72374
1.79893
1.838306
1.844681
1.806243
1.718678
1.609174
1.517671
1.517671
1.409855
1.335416
1.294915
1.282539
1.290789
1.320228
1.397855
1.502108
1.597924
1.597924
1.692989
1.774742
1.812618
1.80793
1.782992
1.704427
1.591361
1.48992
1.389417
1.389417
1.30954
1.284414
1.271664
1.274476
1.290602
1.351916
1.453732
1.550297
1.550297
1.64105
1.720552
1.758991
1.761804
1.723928
1.645738
1.534734
1.422231
1.324915
1.324915
1.275976
1.263601
1.259288
1.260976
1.266414
1.287227
1.365417
1.472857
1.567735
1.567735
1.642738
1.679489
1.697489
1.667863
1.597736
1.492171
1.375167
1.294165
1.267351
1.267351
1.258913
1.257226
1.257601
1.260601
1.277851
1.335041
1.433294
1.530047
1.609549
1.609549
1.658676
1.678551
1.654738
1.577111
1.493671
1.387542
1.297915
1.266226
1.266226
1.259851
1.257788
1.258351
1.261539
1.279539
1.349291
1.452419
1.545985
1.633925
1.633925
1.696552
1.723178
1.700489
1.644238
1.552735
1.463857
1.369354
1.301102
1.276351
1.276351
1.271101
1.276164
1.290977
1.345541
1.453544
1.564923
1.663926
1.760116
1.822556
1.822556
1.852182
1.829306
1.770617
1.694489
1.595861
1.492171
1.403105
1.352854
1.322665
1.322665
1.326041
1.357729
1.430481
1.536047
1.650238
1.749616
1.836431
1.900371
1.922121
1.922121
1.909933
1.855182
1.756929
1.654738
1.557985
1.469482
1.396168
1.364854
1.364854
1.365042
1.387542
1.452982
1.55536
1.663926
1.768366
1.854994
1.918559
1.941997
1.941997
1.926621
1.865682
1.783929
1.672926
1.568673
1.488045
1.416043
1.373479
1.372729
1.372729
1.39898
1.466295
1.552922
1.676864
1.773992
1.856869
1.922496
1.946872
1.932434
1.932434
1.891183
1.797617
1.697489
1.569798
1.48392
1.409293
1.375542
1.367292
1.391855
1.391855
1.447732
1.541297
1.647988
1.745678
1.843744
1.898683
1.928684
1.917621
1.917621
1.869995
1.779804
1.664113
1.562298
1.46967
1.40048
1.353041
1.342353
1.366917
1.366917
1.419231
1.509796
1.620237
1.723928
1.811305
1.87787
1.910121
1.89512
1.846931
1.846931
1.764991
1.656801
1.55461
1.462545
1.383792
1.332603
1.321165
1.348729
1.397293
1.397293
1.48917
1.590424
1.702927
1.79218
1.862307
1.900745
1.88162
1.843931
1.769866
1.769866
1.660176
1.54861
1.447732
1.369729
1.332228
1.324353
1.339541
1.390543
1.47117
1.47117
1.578611
1.679301
1.770617
1.844306
1.882933
1.876745
1.830431
1.761616
1.761616
1.651738
1.544672
1.444919
1.369167
1.322103
1.310853
1.320978
1.371979
1.473232
1.473232
1.569985
1.673489
1.768742
1.830243
1.882557
1.889683
1.850869
1.776242
1.667488
1.667488
1.55761
1.455044
1.38698
1.335228
1.31779
1.332228
1.375542
1.463857
1.57111
1.57111
1.678176
1.769866
1.849744
1.890995
1.887808
1.864182
1.784305
1.688864
1.580486
1.580486
1.479795
1.396918
1.343853
1.320978
1.334478
1.375167
1.457857
1.555735
1.555735
1.666363
1.760866
1.844494
1.890995
1.896995
1.863619
1.789555
1.693177
1.581236
1.581236
1.478108
1.39748
1.343666
1.31854
1.328103
1.368979
1.448669
1.551047
1.658488
1.658488
1.748303
1.826493
1.878245
1.895495
1.857807
1.787867
1.696552
1.584423
1.48617
1.48617
1.40273
1.342353
1.312728
1.325478
1.366167
1.433294
1.53811
1.65005
1.749803
1.749803
1.829306
1.87562
1.890245
1.859682
1.789929
1.695802
1.587799
1.485983
1.485983
1.412668
1.344979
1.313853
1.322103
1.359979
1.437606
1.534547
1.640675
1.740428
1.740428
1.824993
1.87637
1.89137
1.869057
1.800992
1.71474
1.603549
1.498546
1.415293
1.415293
1.355104
1.32304
1.328665
1.363917
1.437419
1.535672
1.643488
1.743991
1.829493
1.829493
1.881245
1.900558
1.879745
1.81768
1.722803
1.613487
1.507921
1.420356
1.350604
1.350604
1.322103
1.322665
1.354541
1.422231
1.523296
1.627737
1.735553
1.810555
1.810555
1.866432
1.894933
1.872995
1.812993
1.724303
1.616862
1.507359
1.419981
1.356416
1.356416
1.319853
1.321165
1.343291
1.410606
1.508109
1.619487
1.724678
1.80193
1.865869
1.865869
1.89812
1.878995
1.823306
1.725053
1.618362
1.513171
1.428606
1.353791
1.315728
1.315728
1.323603
1.347604
1.40798
1.504733
1.614237
1.71249
1.796305
1.855369
1.871495
1.871495
1.858369
1.80643
1.719615
1.609362
1.508484
1.406855
1.334666
1.300915
1.298852
1.298852
1.316478
1.365417
1.46067
1.566048
1.668426
1.751303
1.819743
1.848994
1.848994
1.834743
1.776992
1.694114
1.596236
1.496108
1.39748
1.332603
1.29529
1.303915
1.303915
1.322665
1.372729
1.466107
1.574111
1.683051
1.770242
1.844119
1.88912
1.874307
1.874307
1.827431
1.746241
1.639925
1.537359
1.442857
1.365604
1.323603
1.31554
1.337103
1.337103
1.390167
1.482233
1.589486
1.694677
1.788242
1.853307
1.88912
1.88012
1.828743
1.828743
1.755804
1.652488
1.542797
1.450357
1.378917
1.330728
1.32079
1.339166
1.339166
1.385105
1.482983
1.590236
1.698989
1.794617
1.860432
1.88612
1.891183
1.847494
1.847494
1.765929
1.657176
1.561735
1.46067
1.381542
1.337291
1.312915
1.331478
1.390543
1.390543
1.466482
1.578611
1.681926
1.771179
1.832306
1.896433
1.885745
1.850494
1.765741
1.765741
1.664488
1.534359
1.476233
1.38098
1.332791
1.315165
1.32004
1.384917
1.457857
1.457857
1.562298
1.670114
1.761241
1.832868
1.881432
1.892308
1.87262
1.797805
1.684739
1.684739
1.580298
1.470232
1.388105
1.335791
1.321728
1.338041
1.384917
1.47717
1.47717
1.57186
1.658113
1.727865
1.773429
1.755616
1.716427
1.6238
1.514484
1.370104
1.370104
1.274664
1.255163
1.252538
1.251976
1.252163
1.252163
1.252538
1.274664
1.522922
1.522922
1.728053
1.809243
1.836619
1.868495
1.899808
1.990373
1.987936
2.017374
2.097251
2.097251
2.063313
1.956622
1.87787
1.822181
1.832118
1.844119
1.913308
1.994686
2.074563
2.074563
2.13794
2.184817
2.19738
2.182754
2.11769
2.007249
1.88837
1.765179
1.765179
1.626612
1.513734
1.427481
1.365604
1.350604
1.369167
1.419981
1.530047
1.626987
1.626987
1.716427
1.79818
1.848431
1.864744
1.836056
1.765554
1.664113
1.558548
1.445294
1.445294
1.365979
1.306915
1.291164
1.290227
1.308227
1.370667
1.470232
1.575611
1.676301
1.676301
1.758804
1.817305
1.830431
1.80718
1.750741
1.658301
1.548047
1.441544
1.355854
1.355854
1.30504
1.281414
1.282164
1.315353
1.469857
1.573173
1.674239
1.765554
1.819555
1.845994
1.845994
1.825556
1.765741
1.669551
1.558923
1.455419
1.366917
1.316853
1.290414
1.290414
1.290227
1.310665
1.371979
1.469107
1.579548
1.690927
1.767991
1.829118
1.853119
1.853119
1.832868
1.769679
1.690364
1.575611
1.461607
1.382105
1.31929
1.292477
1.29454
1.29454
1.31029
1.362979
1.45992
1.567923
1.675176
1.761991
1.819743
1.848244
1.832306
1.832306
1.778304
1.689801
1.587048
1.478858
1.388105
1.321353
1.294165
1.299977
1.316665
1.316665
1.369354
1.464607
1.572423
1.664301
1.755616
1.815243
1.858369
1.834556
1.834556
1.776242
1.693177
1.578798
1.476045
1.39223
1.325665
1.293414
1.290977
1.312353
1.312353
1.356979
1.445857
1.560985
1.662426
1.749803
1.821993
1.849369
1.841869
1.781304
1.781304
1.704802
1.596236
1.485983
1.399918
1.32079
1.294352
1.282352
1.308977
1.354354
1.354354
1.435544
1.536609
1.641425
1.725803
1.792742
1.840369
1.832306
1.772679
1.680989
1.680989
1.578986
1.47492
1.374792
1.318728
1.285914
1.279352
1.285164
1.315165
1.409668
1.409668
1.505858
1.597924
1.688489
1.764991
1.789929
1.784305
1.73799
1.655113
1.655113
1.542985
1.425981
1.329603
1.280664
1.266601
1.264914
1.266039
1.277289
1.325665
1.325665
1.423356
1.528172
1.606549
1.691677
1.708927
1.727678
1.674614
1.596986
1.48692
1.48692
1.382292
1.292852
1.270726
1.260788
1.258163
1.260038
1.265289
1.300352
1.382667
1.382667
1.488983
1.585173
1.657926
1.691489
1.696364
1.646863
1.591361
1.472857
1.375355
1.375355
1.295477
1.267351
1.260038
1.257788
1.261913
1.267351
1.289664
1.38248
1.38248
1.492733
1.590236
1.662613
1.72749
1.72074
1.701052
1.62905
1.534734
1.435544
1.435544
1.337291
1.297727
1.274101
1.270539
1.276539
1.29604
1.367292
1.483545
1.591361
1.591361
1.696177
1.778117
1.810555
1.855182
1.825931
1.757491
1.658113
1.551047
1.470795
1.470795
1.387917
1.338228
1.320978
1.341791
1.37423
1.47342
1.574486
1.675926
1.778867
1.778867
1.864744
1.915746
1.931497
1.903558
1.843556
1.738366
1.627737
1.537359
1.537359
1.445482
1.393543
1.371417
1.382292
1.425231
1.511109
1.599424
1.708927
1.81693
1.81693
1.896808
1.945372
1.96131
1.934497
1.872245
1.767241
1.666363
1.56961
1.481858
1.481858
1.421668
1.38848
1.391105
1.432356
1.506234
1.611049
1.713802
1.804743
1.888558
1.888558
1.939184
1.956247
1.937122
1.866245
1.775117
1.642363
1.581048
1.460857
1.427106
1.427106
1.394668
1.38023
1.417356
1.493858
1.598674
1.691864
1.789929
1.87787
1.87787
1.929246
1.959247
1.934872
1.87637
1.780554
1.668426
1.561923
1.475295
1.408355
1.408355
1.371417
1.381917
1.387355
1.475857
1.578423
1.674426
1.772492
1.863619
1.926246
1.926246
1.927559
1.920621
1.863807
1.767241
1.659988
1.555172
1.460482
1.391105
1.356229
1.356229
1.344791
1.390355
1.449607
1.550485
1.655863
1.754116
1.836244
1.902621
1.924746
1.924746
1.913121
1.855932
1.762741
1.656801
1.54786
1.453357
1.389792
1.348916
1.342916
1.342916
1.366917
1.427856
1.524421
1.6343
1.742303
1.820868
1.881057
1.908996
1.908996
1.893245
1.842806
1.757116
1.64855
1.539984
1.446044
1.371604
1.331291
1.343479
1.343479
1.358292
1.407605
1.488608
1.633737
1.721303
1.809618
1.868119
1.905058
1.891933
1.891933
1.845619
1.767054
1.650425
1.543735
1.455794
1.38098
1.338228
1.330541
1.334478
1.334478
1.419043
1.507171
1.614049
1.701052
1.823493
1.875245
1.913121
1.889495
1.849744
1.849744
1.764054
1.658863
1.56211
1.467045
1.389792
1.341041
1.334103
1.369917
1.369917
1.407793
1.481858
1.615549
1.714365
1.808493
1.88012
1.908246
1.884807
1.860432
1.860432
1.771179
1.677801
1.564173
1.468545
1.391855
1.346104
1.338228
1.347416
1.403668
1.403668
1.492546
1.602049
1.70724
1.793117
1.872245
1.909933
1.89812
1.864932
1.788617
1.788617
1.684176
1.576173
1.47492
1.410418
1.350979
1.338041
1.359041
1.401605
1.48017
1.48017
1.592674
1.702364
1.791992
1.865494
1.901871
1.902621
1.866432
1.788992
1.788992
1.684926
1.572798
1.478108
1.399355
1.346666
1.332041
1.346291
1.370292
1.475857
1.475857
1.580486
1.682864
1.777929
1.855744
1.89887
1.902058
1.859494
1.785804
1.685114
1.685114
1.572048
1.470982
1.39673
1.335603
1.329416
1.337666
1.384542
1.475295
1.588361
1.588361
1.674239
1.775304
1.847494
1.89587
1.909371
1.871307
1.795367
1.692239
1.584611
1.584611
1.48317
1.40573
1.361667
1.331853
1.342541
1.379855
1.457294
1.564548
1.672176
1.672176
1.768742
1.846744
1.893433
1.908621
1.88237
1.803992
1.715302
1.608237
1.608237
1.504921
1.418856
1.357541
1.333166
1.340853
1.377417
1.454669
1.559298
1.671051
1.671051
1.765929
1.845244
1.89662
1.902058
1.882183
1.818806
1.722428
1.615737
1.508109
1.508109
1.423543
1.362792
1.335603
1.356604
1.38848
1.461045
1.565673
1.669176
1.764241
1.764241
1.846931
1.899058
1.915558
1.892308
1.816743
1.733115
1.6358
1.528922
1.436481
1.436481
1.376855
1.341978
1.345729
1.385667
1.450919
1.548797
1.644988
1.743053
1.743053
1.825931
1.873557
1.902996
1.872057
1.80343
1.708177
1.593611
1.494046
1.403105
1.403105
1.334478
1.30204
1.30954
1.326416
1.403293
1.500421
1.608049
1.72374
1.799492
1.799492
1.859119
1.877495
1.858932
1.796492
1.724115
1.611424
1.506984
1.419981
1.357166
1.357166
1.325478
1.329228
1.354541
1.416606
1.524984
1.6388
1.741178
1.828556
1.88537
1.88537
1.912183
1.894183
1.840369
1.749803
1.653425
1.533422
1.452044
1.379667
1.379667
1.343291
1.345916
1.371417
1.427294
1.529859
1.63505
1.733678
1.820681
1.880307
1.880307
1.906933
1.894933
1.848619
1.761804
1.653238
1.546922
1.455982
1.387542
1.347416
1.347416
1.341041
1.371042
1.434794
1.525921
1.636175
1.743053
1.824431
1.890058
1.917808
1.917808
1.900371
1.860807
1.778679
1.672176
1.55986
1.46517
1.394105
1.350041
1.345166
1.345166
1.369167
1.418856
1.516359
1.622487
1.72824
1.816368
1.885558
1.920246
1.906746
1.906746
1.858369
1.772492
1.664863
1.557797
1.465357
1.388855
1.342166
1.336728
1.336728
1.364292
1.412481
1.507733
1.621924
1.73274
1.827056
1.897183
1.923434
1.903933
1.903933
1.847869
1.774554
1.677239
1.575423
1.48917
1.417168
1.358667
1.331103
1.312353
1.312353
1.320228
1.347041
1.394855
1.435356
1.485795
1.494608
1.483545
1.441169
1.394668
1.394668
1.302227
1.262289
1.254788
1.253288
1.254601
1.277289
1.336353
1.368979
1.374979
1.374979
1.499296
1.65005
1.871307
2.033687
2.219505
2.406074
2.494389
2.496826
2.423512
2.423512
2.288507
2.168129
2.0425
1.909746
1.81093
1.769866
1.755991
1.767054
1.767054
1.815243
1.88687
1.962247
2.018687
2.074938
2.092564
2.063875
1.998999
1.893995
1.893995
1.761054
1.627362
1.518046
1.430294
1.370104
1.338228
1.343479
1.38173
1.466107
1.466107
1.670301
1.758054
1.833993
1.883495
1.896245
1.858182
1.780179
1.672176
1.554798
1.554798
1.455982
1.37423
1.319478
1.298852
1.303915
1.340103
1.416418
1.523859
1.626425
1.626425
1.728615
1.807555
1.850307
1.862682
1.828181
1.757304
1.652675
1.553672
1.452982
1.452982
1.37423
1.320978
1.29904
1.311603
1.343666
1.416981
1.524421
1.633362
1.730303
1.730303
1.813368
1.852744
1.87187
1.845994
1.773804
1.680051
1.57111
1.469107
1.39073
1.39073
1.331291
1.310853
1.316665
1.346479
1.415481
1.519359
1.6298
1.73124
1.73124
1.80868
1.859869
1.881995
1.844869
1.793867
1.696177
1.578423
1.47492
1.392043
1.392043
1.332791
1.307102
1.30804
1.340103
1.408355
1.510921
1.618362
1.711177
1.802305
1.802305
1.852931
1.869432
1.850869
1.789367
1.701989
1.598299
1.485608
1.397855
1.334666
1.334666
1.309165
1.309727
1.339166
1.398418
1.505858
1.609174
1.712865
1.80343
1.855557
1.855557
1.87262
1.859494
1.799867
1.710802
1.597174
1.487858
1.410231
1.341978
1.341978
1.312353
1.315728
1.337666
1.388105
1.498358
1.617049
1.703677
1.79143
1.842994
1.842994
1.87112
1.857244
1.800805
1.704802
1.597361
1.506421
1.401605
1.336916
1.308602
1.308602
1.30729
1.330541
1.389417
1.485795
1.589298
1.682301
1.777367
1.820868
1.847494
1.847494
1.830993
1.779804
1.690177
1.583111
1.467232
1.373292
1.30729
1.287977
1.286289
1.286289
1.29679
1.337666
1.428231
1.535297
1.631487
1.708177
1.767429
1.799117
1.799117
1.779617
1.726178
1.6358
1.516359
1.418856
1.331103
1.279914
1.265664
1.264164
1.264164
1.269601
1.286102
1.357541
1.457107
1.557797
1.644613
1.710052
1.744928
1.731615
1.731615
1.689614
1.598674
1.488795
1.377792
1.303165
1.273351
1.262664
1.260413
1.263976
1.263976
1.276726
1.332416
1.423731
1.532297
1.619674
1.686427
1.718302
1.706115
1.669738
1.669738
1.587799
1.477545
1.373667
1.30429
1.271851
1.262101
1.261539
1.265101
1.280102
1.280102
1.338978
1.439669
1.54711
1.6418
1.72149
1.757116
1.758804
1.717177
1.717177
1.643488
1.55611
1.449232
1.362229
1.313853
1.284602
1.280852
1.292102
1.331103
1.331103
1.428231
1.534734
1.644425
1.743616
1.821431
1.863807
1.876182
1.837744
1.754304
1.754304
1.664301
1.55386
1.469857
1.396355
1.339541
1.329041
1.349479
1.39598
1.48317
1.48317
1.590236
1.695427
1.787117
1.872995
1.922309
1.910308
1.884245
1.81468
1.708552
1.708552
1.604674
1.488045
1.433106
1.369167
1.342541
1.365229
1.416981
1.496483
1.496483
1.613487
1.705364
1.80343
1.904121
1.928121
1.927746
1.904496
1.829306
1.730678
1.730678
1.621362
1.523859
1.443982
1.388292
1.365042
1.392792
1.416418
1.506608
1.609924
1.609924
1.704615
1.81093
1.88837
1.933559
1.936747
1.912371
1.833618
1.749053
1.616674
1.616674
1.527234
1.466295
1.394293
1.364479
1.379667
1.413793
1.493858
1.588736
1.696364
1.696364
1.78768
1.871307
1.926621
1.937684
1.890245
1.829681
1.72899
1.640488
1.640488
1.532484
1.452232
1.386605
1.362229
1.367104
1.400668
1.486358
1.580861
1.681551
1.681551
1.783929
1.864557
1.910496
1.932246
1.900745
1.836244
1.731428
1.625112
1.526109
1.526109
1.435919
1.371229
1.340478
1.349854
1.38248
1.463857
1.559485
1.662613
1.753741
1.753741
1.841119
1.899995
1.913121
1.89662
1.832868
1.733678
1.629425
1.522171
1.436669
1.436669
1.368604
1.328853
1.326416
1.347604
1.423731
1.524047
1.63355
1.742678
1.829681
1.829681
1.881057
1.909933
1.89287
1.820868
1.733678
1.628487
1.521421
1.432919
1.432919
1.372542
1.329416
1.331478
1.362792
1.429356
1.528172
1.6538
1.72899
1.818243
1.818243
1.89212
1.903746
1.882933
1.826681
1.738553
1.635612
1.533797
1.445294
1.374417
1.374417
1.326978
1.335978
1.365604
1.427669
1.523484
1.63505
1.738741
1.827806
1.87187
1.87187
1.904871
1.891183
1.837368
1.746991
1.624549
1.528734
1.453544
1.37798
1.341791
1.341791
1.342541
1.370104
1.428231
1.527047
1.634862
1.741178
1.828181
1.884995
1.884995
1.923809
1.886683
1.849181
1.750366
1.642738
1.567923
1.462357
1.38248
1.334478
1.334478
1.345729
1.360354
1.419231
1.521796
1.621362
1.724678
1.806055
1.87637
1.910871
1.910871
1.898308
1.842994
1.769491
1.659988
1.55086
1.460107
1.389605
1.333728
1.328478
1.328478
1.356229
1.414356
1.504921
1.606924
1.70349
1.80643
1.86737
1.89737
1.888183
1.888183
1.856119
1.766491
1.674426
1.564173
1.470982
1.386792
1.342916
1.329603
1.329603
1.350041
1.400105
1.495546
1.608237
1.708552
1.803055
1.87037
1.903933
1.89662
1.89662
1.860619
1.782054
1.670864
1.569985
1.471357
1.395043
1.334291
1.336728
1.357916
1.357916
1.411731
1.503233
1.617237
1.718302
1.800055
1.876932
1.902808
1.910496
1.87562
1.87562
1.791617
1.689427
1.570923
1.477733
1.402918
1.354166
1.331666
1.361854
1.399543
1.399543
1.486545
1.588923
1.693364
1.784867
1.856494
1.897933
1.889683
1.845806
1.780367
1.780367
1.670301
1.555923
1.45842
1.377604
1.325478
1.31929
1.330353
1.365792
1.365792
1.45617
1.533422
1.656426
1.747366
1.816555
1.88012
1.873745
1.837556
1.774554
1.774554
1.669363
1.57186
1.474358
1.376104
1.347979
1.327353
1.355479
1.400293
1.47567
1.47567
1.56961
1.675739
1.784679
1.857807
1.932997
1.911246
1.864557
1.812243
1.713052
1.713052
1.605986
1.505671
1.427481
1.374604
1.346104
1.365042
1.38623
1.468545
1.577861
1.577861
1.686614
1.784492
1.859494
1.911058
1.922121
1.888558
1.808493
1.73199
1.73199
1.624362
1.512984
1.435544
1.377792
1.345916
1.351541
1.402918
1.472857
1.575986
1.575986
1.683614
1.784679
1.866432
1.899621
1.917058
1.886683
1.831368
1.729178
1.621174
1.621174
1.511671
1.431981
1.388855
1.340291
1.359979
1.395605
1.458232
1.567923
1.678551
1.678551
1.776992
1.848056
1.904121
1.938809
1.891183
1.827993
1.748116
1.630362
1.532672
1.532672
1.448669
1.380605
1.346291
1.348916
1.38923
1.45992
1.562673
1.663363
1.663363
1.769116
1.861557
1.912183
1.951184
1.932809
1.857619
1.749803
1.634487
1.539047
1.539047
1.448482
1.387167
1.359604
1.377604
1.407043
1.447544
1.526672
1.624925
1.678739
1.678739
1.714177
1.73649
1.729365
1.674051
1.583111
1.446419
1.309915
1.263039
1.255913
1.255913
1.254038
1.253663
1.268101
1.425043
1.591736
1.659801
1.714552
1.794992
1.854432
1.854432
1.999936
2.107939
2.230568
2.333321
2.328071
2.213318
2.069313
1.917621
1.827431
1.827431
1.785617
1.764054
1.777742
1.853307
1.914433
1.990186
2.066688
2.11619
2.11619
2.14019
2.13869
2.089939
2.022624
1.912183
1.781679
1.634487
1.511296
1.419981
1.419981
1.354729
1.340291
1.377604
1.417543
1.502483
1.607862
1.710802
1.806055
1.853119
1.853119
1.893058
1.87787
1.830618
1.734241
1.618174
1.509233
1.419043
1.345916
1.30279
1.30279
1.30279
1.311415
1.360541
1.456919
1.56211
1.678364
1.757491
1.858744
1.845431
1.802868
1.802868
1.717927
1.606737
1.500046
1.425418
1.335978
1.302227
1.299227
1.312353
1.360167
1.360167
1.452982
1.563048
1.664301
1.752616
1.823306
1.861744
1.849181
1.806618
1.806618
1.721678
1.622862
1.523296
1.423356
1.350791
1.30804
1.299602
1.31329
1.357729
1.357729
1.444357
1.555547
1.661676
1.758054
1.822368
1.863807
1.858932
1.823118
1.740991
1.740991
1.639175
1.530422
1.436106
1.364667
1.310477
1.302227
1.314415
1.354729
1.454482
1.454482
1.557047
1.659988
1.751116
1.823681
1.853869
1.857619
1.820681
1.756741
1.643863
1.643863
1.535484
1.437231
1.355104
1.307852
1.29679
1.308602
1.352854
1.434981
1.538672
1.538672
1.64405
1.73799
1.808493
1.856869
1.861932
1.818993
1.746053
1.644613
1.644613
1.535672
1.440231
1.362229
1.314978
1.29754
1.310665
1.345729
1.422043
1.528547
1.528547
1.636737
1.724303
1.794617
1.843744
1.855369
1.819368
1.752616
1.643675
1.535672
1.535672
1.436856
1.350791
1.301852
1.288914
1.295102
1.321728
1.392417
1.493671
1.600924
1.600924
1.705177
1.772304
1.823868
1.831743
1.799305
1.72674
1.623612
1.511484
1.408355
1.408355
1.326791
1.285164
1.274851
1.279914
1.295665
1.353604
1.443044
1.54936
1.54936
1.638238
1.73349
1.768554
1.772867
1.740616
1.676489
1.568298
1.453732
1.344979
1.344979
1.287039
1.266976
1.261351
1.262101
1.268101
1.288539
1.356979
1.466295
1.564548
1.564548
1.644238
1.686427
1.709677
1.675176
1.607674
1.510359
1.399355
1.30654
1.272789
1.272789
1.261163
1.258726
1.258726
1.262101
1.276351
1.338603
1.448669
1.538859
1.623425
1.623425
1.679864
1.694302
1.673301
1.614424
1.520859
1.414168
1.323415
1.275039
1.275039
1.262851
1.259851
1.260226
1.264914
1.283102
1.354729
1.463857
1.576361
1.664301
1.664301
1.725428
1.753366
1.738928
1.685301
1.602424
1.503421
1.405168
1.330541
1.289102
1.289102
1.276539
1.280664
1.29754
1.357729
1.461607
1.575236
1.688489
1.779992
1.847494
1.847494
1.87262
1.86887
1.808118
1.717365
1.619487
1.524984
1.439294
1.371792
1.339728
1.339728
1.344416
1.369354
1.434419
1.536047
1.64705
1.753741
1.843556
1.905058
1.932059
1.932059
1.918559
1.867557
1.786367
1.685301
1.578986
1.491421
1.418106
1.375542
1.375542
1.379105
1.410418
1.47117
1.567173
1.673489
1.777554
1.869807
1.927559
1.956247
1.956247
1.941809
1.899995
1.812243
1.707802
1.598674
1.507359
1.433856
1.387167
1.382105
1.382105
1.413418
1.473045
1.56661
1.670864
1.779054
1.862119
1.934122
1.961122
1.949309
1.949309
1.904496
1.823493
1.717177
1.603924
1.507359
1.422606
1.384542
1.37873
1.39898
1.39898
1.448107
1.536797
1.64405
1.746803
1.836806
1.901495
1.938622
1.927746
1.927746
1.879182
1.79518
1.692614
1.584423
1.48617
1.408731
1.363167
1.352479
1.366354
1.366354
1.417168
1.504921
1.609737
1.711365
1.800617
1.876182
1.913308
1.911996
1.868307
1.868307
1.785804
1.681364
1.568485
1.478295
1.39823
1.344791
1.326978
1.354354
1.40348
1.40348
1.488233
1.586673
1.693177
1.781492
1.858932
1.892495
1.88837
1.848619
1.771179
1.771179
1.671988
1.566985
1.460295
1.386605
1.333353
1.317978
1.329228
1.379292
1.379292
1.462357
1.568673
1.669926
1.757491
1.834181
1.87637
1.881995
1.845056
1.772867
1.772867
1.670864
1.55911
1.463295
1.377604
1.330728
1.31554
1.331666
1.366542
1.450919
1.450919
1.554235
1.660551
1.753179
1.832118
1.880682
1.88462
1.855182
1.787304
1.677426
1.677426
1.576361
1.479795
1.39973
1.344791
1.321728
1.333916
1.378542
1.459357
1.560235
1.560235
1.673864
1.770242
1.847869
1.894558
1.909933
1.870745
1.802305
1.704802
1.602986
1.602986
1.504733
1.423918
1.364292
1.345353
1.352291
1.390543
1.467795
1.572986
1.572986
1.682676
1.780742
1.858182
1.909558
1.921934
1.897183
1.824431
1.732178
1.626612
1.626612
1.524609
1.434044
1.37873
1.341978
1.356979
1.393917
1.473607
1.575986
1.679301
1.679301
1.784679
1.873932
1.921934
1.932434
1.907871
1.846369
1.747928
1.644613
1.540359
1.540359
1.453169
1.393355
1.357916
1.362604
1.409293
1.47717
1.580298
1.687739
1.782992
1.782992
1.866432
1.903183
1.929809
1.911621
1.842056
1.747553
1.640112
1.54786
1.54786
1.459545
1.401043
1.365229
1.365229
1.395605
1.45992
1.567735
1.674801
1.773242
1.773242
1.859869
1.913308
1.923434
1.902621
1.837744
1.746428
1.638238
1.533422
1.443419
1.443419
1.368042
1.333353
1.331478
1.361104
1.426731
1.521046
1.623425
1.719615
1.80718
1.80718
1.865119
1.884245
1.863432
1.809805
1.708365
1.600174
1.498171
1.39598
1.339166
1.339166
1.305415
1.301852
1.32304
1.378917
1.482045
1.593986
1.697114
1.79293
1.79293
1.849181
1.87112
1.853682
1.81093
1.732365
1.616674
1.503796
1.419043
1.352291
1.352291
1.325478
1.317415
1.338791
1.404043
1.503796
1.611049
1.710427
1.79818
1.860994
1.860994
1.88762
1.873932
1.824993
1.745491
1.634675
1.525547
1.440044
1.369167
1.320978
1.320978
1.31329
1.331103
1.402918
1.486358
1.594549
1.701989
1.78768
1.854432
1.883495
1.883495
1.872057
1.826493
1.738178
1.633175
1.532859
1.428044
1.359604
1.323603
1.31479
1.31479
1.333916
1.39373
1.482795
1.587611
1.690552
1.777179
1.850494
1.88912
1.88912
1.880495
1.836431
1.750366
1.643863
1.53961
1.442857
1.361104
1.324165
1.31479
1.31479
1.332041
1.384355
1.479045
1.584798
1.685864
1.779054
1.849369
1.891558
1.89137
1.89137
1.836056
1.754491
1.652113
1.541672
1.446232
1.368042
1.324915
1.318728
1.343104
1.343104
1.388855
1.49292
1.611987
1.713802
1.801742
1.867182
1.901308
1.891183
1.870932
1.870932
1.79518
1.694114
1.592861
1.500608
1.39898
1.319665
1.282352
1.273914
1.276914
1.276914
1.280289
1.318728
1.369542
1.412106
1.449044
1.449419
1.449044
1.383605
1.383605
1.297165
1.281414
1.275976
1.353229
1.421293
1.392792
1.325103
1.340853
1.427106
1.427106
1.615174
1.801555
2.007061
2.251569
2.416761
2.491014
2.530577
2.470013
2.37926
2.37926
2.272194
2.142253
1.990561
1.87862
1.811118
1.746241
1.730303
1.736866
1.790117
1.790117
1.857244
1.944434
2.015124
2.05675
2.068563
2.039875
1.969748
1.865869
1.743803
1.743803
1.629425
1.518421
1.429169
1.364854
1.334478
1.330541
1.38323
1.464045
1.464045
1.55911
1.657176
1.750366
1.828181
1.875432
1.884058
1.847306
1.774742
1.670114
1.670114
1.550297
1.441919
1.359416
1.305602
1.294915
1.301852
1.325103
1.405168
1.505483
1.505483
1.611049
1.715302
1.793492
1.853307
1.860994
1.831743
1.764054
1.655863
1.541484
1.541484
1.453544
1.367292
1.309915
1.287789
1.29754
1.325478
1.38998
1.495921
1.605986
1.605986
1.708552
1.786367
1.849931
1.870932
1.845244
1.779992
1.672176
1.56961
1.56961
1.470045
1.376667
1.31404
1.297915
1.294915
1.339166
1.404043
1.503608
1.610487
1.610487
1.705177
1.799867
1.862869
1.837368
1.778492
1.692989
1.574298
1.469482
1.378355
1.313853
1.313853
1.297352
1.298477
1.329041
1.39523
1.492546
1.605236
1.706677
1.793117
1.793117
1.860432
1.868119
1.844119
1.789929
1.690177
1.581798
1.477357
1.384167
1.322853
1.322853
1.296227
1.297727
1.322853
1.38698
1.484483
1.596986
1.702552
1.782617
1.844306
1.844306
1.877307
1.865307
1.791617
1.706865
1.601861
1.48767
1.410981
1.342916
1.30879
1.30879
1.311228
1.341416
1.404043
1.504358
1.613674
1.71999
1.81543
1.876557
1.897558
1.897558
1.884245
1.840556
1.753553
1.64105
1.532484
1.441356
1.37423
1.330166
1.330166
1.321353
1.349854
1.386417
1.517296
1.618549
1.714927
1.796305
1.860619
1.890433
1.890433
1.869807
1.81243
1.720927
1.611987
1.496296
1.393543
1.31929
1.286102
1.280852
1.280852
1.292477
1.329041
1.412856
1.518984
1.62305
1.701989
1.760679
1.78618
1.758991
1.758991
1.719615
1.6358
1.506984
1.398793
1.311228
1.272226
1.263039
1.261726
1.263789
1.263789
1.281227
1.335791
1.428606
1.511109
1.604674
1.698427
1.715115
1.700677
1.700677
1.654551
1.56811
1.453169
1.356791
1.289664
1.262289
1.260601
1.258351
1.259851
1.259851
1.267164
1.298477
1.391292
1.496858
1.591174
1.661863
1.70349
1.698239
1.657551
1.657551
1.567735
1.472107
1.353604
1.286852
1.265101
1.259476
1.259476
1.260976
1.272789
1.272789
1.325665
1.429731
1.538859
1.651175
1.73274
1.775867
1.778867
1.749616
1.678739
1.678739
1.563798
1.461607
1.364292
1.302227
1.278227
1.274851
1.278227
1.309165
1.391292
1.391292
1.505108
1.617424
1.716427
1.794242
1.850307
1.852182
1.821618
1.748303
1.748303
1.648175
1.539984
1.444357
1.370292
1.320228
1.302977
1.31779
1.359792
1.441356
1.441356
1.54936
1.674989
1.750366
1.843556
1.887245
1.89287
1.860057
1.784305
1.687176
1.687176
1.569423
1.47417
1.39148
1.342353
1.32079
1.337666
1.375729
1.445107
1.576736
1.576736
1.685676
1.784117
1.860432
1.904871
1.922121
1.881807
1.813368
1.707615
1.600924
1.600924
1.500421
1.395793
1.38473
1.332791
1.352291
1.392792
1.469107
1.584048
1.584048
1.695614
1.78918
1.872057
1.931497
1.931684
1.900745
1.837556
1.745116
1.636175
1.636175
1.522547
1.431419
1.385292
1.355291
1.342353
1.411168
1.48767
1.579173
1.687551
1.687551
1.79218
1.866994
1.924746
1.937872
1.905246
1.844494
1.737803
1.635612
1.535672
1.535672
1.436856
1.359979
1.347229
1.360541
1.390355
1.462732
1.56286
1.670676
1.774179
1.774179
1.864557
1.902808
1.920996
1.894933
1.834931
1.738366
1.616299
1.528359
1.528359
1.437044
1.380417
1.338041
1.336728
1.365792
1.434231
1.543922
1.643863
1.749803
1.749803
1.836994
1.904496
1.922684
1.894183
1.834556
1.741928
1.63655
1.520484
1.436294
1.436294
1.373479
1.329041
1.338791
1.361479
1.428981
1.527234
1.638238
1.739866
1.829868
1.829868
1.887808
1.907308
1.888933
1.845619
1.751491
1.641988
1.515609
1.456357
1.377417
1.377417
1.340666
1.339353
1.378355
1.447544
1.541484
1.636737
1.752616
1.839806
1.910496
1.910496
1.916121
1.913308
1.846931
1.761804
1.663926
1.540735
1.460107
1.38623
1.38623
1.344041
1.340103
1.371417
1.437606
1.532859
1.64405
1.748116
1.840931
1.903558
1.903558
1.928309
1.922684
1.866432
1.775492
1.663176
1.55911
1.46367
1.398418
1.360729
1.360729
1.351729
1.383417
1.439106
1.54636
1.653238
1.748116
1.840744
1.912371
1.949685
1.949685
1.934872
1.88012
1.797617
1.691302
1.589111
1.474358
1.438731
1.375542
1.367667
1.367667
1.39073
1.455607
1.530984
1.669738
1.764804
1.851807
1.920059
1.95306
1.95306
1.939934
1.902058
1.813368
1.706115
1.604111
1.509796
1.427669
1.388855
1.373667
1.373667
1.396918
1.458982
1.556485
1.651738
1.763304
1.862307
1.915371
1.97031
1.958497
1.958497
1.918184
1.837931
1.730303
1.613112
1.510359
1.431606
1.401043
1.38698
1.396355
1.396355
1.463107
1.546172
1.643863
1.754491
1.853494
1.923621
1.948184
1.96731
1.918934
1.918934
1.841306
1.723178
1.615362
1.525359
1.421293
1.367292
1.353979
1.373292
1.416606
1.416606
1.499858
1.610862
1.706302
1.80343
1.87337
1.907683
1.910871
1.868682
1.868682
1.782992
1.689989
1.577111
1.47192
1.38923
1.344229
1.331666
1.347041
1.395605
1.395605
1.48392
1.597174
1.70799
1.797055
1.87487
1.921184
1.928309
1.895495
1.821056
1.821056
1.729553
1.622862
1.521046
1.437419
1.386042
1.362604
1.383417
1.40048
1.513734
1.513734
1.616487
1.712115
1.807743
1.894745
1.946497
1.951372
1.923059
1.847306
1.752241
1.752241
1.650613
1.537922
1.454669
1.383042
1.374604
1.376292
1.422793
1.500046
1.500046
1.613487
1.731428
1.810368
1.902433
1.944622
1.96956
1.933371
1.869432
1.755804
1.755804
1.657551
1.558548
1.472482
1.408918
1.38023
1.393355
1.435356
1.514109
1.623425
1.623425
1.726178
1.825743
1.917246
1.970498
1.979685
1.958872
1.887433
1.772304
1.680426
1.680426
1.578048
1.490858
1.408168
1.398605
1.40648
1.443982
1.521046
1.622862
1.72974
1.72974
1.826681
1.913121
1.97481
1.997123
1.947997
1.89287
1.797055
1.682676
1.575611
1.575611
1.491421
1.438544
1.407605
1.420731
1.459545
1.522734
1.612549
1.714365
1.714365
1.823306
1.909371
1.968998
2.000874
1.978185
1.911433
1.780929
1.637675
1.473607
1.473607
1.334291
1.271289
1.258538
1.256101
1.255163
1.255163
1.259288
1.282352
1.318915
1.318915
1.356979
1.457107
1.537734
1.684739
1.841119
1.836244
1.710615
1.582736
1.536984
1.536984
1.540359
1.622112
1.706302
1.88987
2.086001
2.242381
2.380385
2.4582
2.513514
2.513514
2.566203
2.565641
2.488763
2.398011
2.28982
2.13119
1.985123
1.850681
1.742116
1.742116
1.661676
1.633362
1.6238
1.675176
1.738741
1.806618
1.879557
1.943122
1.943122
1.982873
2.000499
1.982498
1.918934
1.824806
1.720178
1.602799
1.506046
1.434044
1.434044
1.38698
1.386417
1.411356
1.472295
1.566423
1.666738
1.764241
1.848431
1.927371
1.927371
1.948747
1.924934
1.879182
1.790867
1.680426
1.580861
1.492171
1.427294
1.372542
1.372542
1.359041
1.384917
1.452419
1.54936
1.655113
1.760304
1.854057
1.921371
1.95381
1.95381
1.944809
1.900745
1.822931
1.71099
1.613674
1.515984
1.437231
1.402543
1.402543
1.377042
1.410606
1.470607
1.56436
1.661488
1.787304
1.875995
1.95231
1.977998
1.977998
1.968998
1.919121
1.831368
1.740803
1.635612
1.539984
1.469482
1.426169
1.388292
1.388292
1.433481
1.48467
1.570923
1.674989
1.779617
1.872807
1.949309
1.991686
1.982498
1.982498
1.948747
1.866807
1.772304
1.64855
1.559298
1.478108
1.421481
1.404043
1.421668
1.421668
1.468357
1.556298
1.656426
1.758054
1.853869
1.924934
1.95681
1.954935
1.954935
1.914996
1.840744
1.73799
1.628675
1.517296
1.443982
1.373104
1.359229
1.377042
1.377042
1.419043
1.499296
1.598674
1.704239
1.797805
1.876182
1.912183
1.917058
1.88237
1.88237
1.707615
1.593799
1.493858
1.409668
1.361854
1.331478
1.341603
1.384542
1.467795
1.57261
1.57261
1.675926
1.771367
1.850307
1.898683
1.911808
1.875057
1.79893
1.699552
1.588548
1.588548
1.48917
1.406293
1.350416
1.323415
1.32454
1.368417
1.445857
1.543172
1.65305
1.65305
1.743428
1.817868
1.860807
1.87337
1.842619
1.763866
1.662613
1.552735
1.449794
1.449794
1.363354
1.309352
1.294727
1.298852
1.326416
1.385292
1.479983
1.587048
1.587048
1.675739
1.753366
1.794055
1.806618
1.776242
1.710802
1.600361
1.492358
1.39448
1.39448
1.31404
1.277664
1.270164
1.272039
1.284602
1.331666
1.419418
1.528734
1.624549
1.624549
1.705739
1.758616
1.775492
1.749241
1.685864
1.589861
1.484108
1.384917
1.311415
1.311415
1.278414
1.269226
1.270351
1.283289
1.327165
1.416606
1.531172
1.633737
1.718115
1.718115
1.767617
1.78918
1.771554
1.715115
1.6223
1.523672
1.421293
1.345353
1.345353
1.296977
1.282352
1.289852
1.31554
1.38323
1.492358
1.615549
1.72449
1.81018
1.81018
1.871495
1.900933
1.87862
1.820118
1.733303
1.640112
1.542985
1.462357
1.395418
1.395418
1.361667
1.363917
1.39673
1.463295
1.56736
1.678551
1.783929
1.866619
1.937309
1.937309
1.963372
1.942184
1.901495
1.818431
1.71549
1.609174
1.519171
1.450732
1.411731
1.411731
1.411168
1.438919
1.506984
1.607674
1.71549
1.819368
1.912183
1.980435
1.980435
2.007624
1.996936
1.944059
1.868307
1.757116
1.6493
1.556485
1.479233
1.440419
1.440419
1.442482
1.465357
1.523109
1.613487
1.722053
1.833618
1.916121
1.986248
2.017936
2.017936
2.005374
1.953997
1.86737
1.760866
1.658676
1.566235
1.489545
1.437794
1.427669
1.427669
1.458045
1.509984
1.606924
1.72074
1.821431
1.909558
1.973873
1.997873
1.985311
1.985311
1.946684
1.854244
1.739866
1.630362
1.536984
1.462545
1.419793
1.403668
1.403668
1.420168
1.479608
1.566985
1.667863
1.768179
1.859307
1.923246
1.955497
1.945747
1.945747
1.900371
1.827056
1.72674
1.616487
1.520296
1.450919
1.390918
1.375355
1.396168
1.396168
1.443419
1.531922
1.637675
1.745303
1.846556
1.905246
1.926809
1.916871
1.885745
1.885745
1.809055
1.699552
1.587236
1.48767
1.412293
1.352104
1.330353
1.343666
1.391105
1.391105
1.464982
1.57186
1.684926
1.785804
1.876745
1.926809
1.936934
1.906183
1.833618
1.833618
1.725428
1.6253
1.534922
1.457857
1.393167
1.368604
1.389042
1.426919
1.426919
1.517859
1.619299
1.710615
1.805118
1.884807
1.920996
1.922871
1.876557
1.807555
1.807555
1.70499
1.591361
1.491233
1.415668
1.358854
1.338041
1.354541
1.400668
1.483733
1.483733
1.581048
1.686802
1.780929
1.870557
1.912933
1.920809
1.88237
1.811118
1.70949
1.70949
1.599611
1.498546
1.417356
1.358667
1.337291
1.346854
1.390167
1.464982
1.56511
1.56511
1.668238
1.770992
1.846931
1.901683
1.918184
1.880682
1.80943
1.707052
1.707052
1.603549
1.509233
1.428981
1.358854
1.340666
1.350416
1.386605
1.463107
1.563235
1.563235
1.669176
1.764241
1.848431
1.897933
1.911246
1.886683
1.823493
1.718678
1.611612
1.611612
1.506984
1.434044
1.372917
1.340291
1.347604
1.374042
1.464232
1.567548
1.672176
1.672176
1.770054
1.848806
1.89662
1.909558
1.881807
1.823306
1.72449
1.607112
1.502483
1.502483
1.426544
1.369542
1.330166
1.332416
1.369729
1.436294
1.536984
1.633737
1.633737
1.732365
1.798555
1.815618
1.796117
1.721678
1.624549
1.507921
1.408918
1.331853
1.331853
1.309915
1.292289
1.289664
1.319853
1.366167
1.441544
1.541672
1.650425
1.755804
1.755804
1.841869
1.902621
1.924934
1.900183
1.841494
1.748116
1.638988
1.538859
1.459545
1.459545
1.382855
1.352666
1.353041
1.38998
1.457669
1.544485
1.653613
1.764991
1.845431
1.845431
1.899245
1.930184
1.905621
1.856307
1.762929
1.664113
1.540735
1.466295
1.393167
1.393167
1.361292
1.364667
1.39523
1.46142
1.564735
1.665426
1.762929
1.852744
1.852744
1.910496
1.939559
1.923434
1.878995
1.786555
1.677239
1.566235
1.485983
1.411356
1.411356
1.372917
1.367667
1.40048
1.469857
1.557423
1.668426
1.768554
1.857994
1.925684
1.925684
1.953435
1.939372
1.89362
1.805118
1.696552
1.590049
1.493858
1.436669
1.387917
1.387917
1.373104
1.400105
1.454669
1.539984
1.653238
1.752616
1.846931
1.920621
1.948559
1.948559
1.930559
1.88612
1.788055
1.683426
1.578798
1.482045
1.410043
1.365417
1.365417
1.365792
1.383417
1.430481
1.531922
1.637112
1.741366
1.833618
1.902996
1.942934
1.942934
1.940309
1.900558
1.827993
1.72524
1.62155
1.508671
1.427481
1.373104
1.374792
1.374792
1.399355
1.463857
1.564735
1.659988
1.750741
1.823493
1.857994
1.850307
1.790867
1.790867
1.699177
1.575798
1.436669
1.313853
1.260413
1.254038
1.252538
1.252538
1.253101
1.253101
1.254226
1.339353
1.642738
1.823306
1.87562
1.881432
1.911246
1.916683
1.916683
1.98456
2.014749
2.076813
2.126127
2.094439
1.985498
1.892308
1.839244
1.846181
1.846181
1.87412
1.943309
2.032187
2.140003
2.188004
2.227193
2.237693
2.191004
2.137565
2.137565
2.038187
1.907308
1.780929
1.650988
1.535484
1.447169
1.394293
1.384917
1.427856
1.427856
1.502671
1.593424
1.683239
1.769866
1.841306
1.884807
1.887245
1.855557
1.79218
1.79218
1.685114
1.577111
1.469295
1.394668
1.332791
1.304477
1.31179
1.351916
1.425606
1.425606
1.533984
1.636362
1.746241
1.826306
1.867745
1.872432
1.845056
1.767617
1.767617
1.672926
1.56511
1.459169
1.38848
1.339916
1.314228
1.319103
1.356041
1.426169
1.426169
1.530047
1.641237
1.737615
1.81918
1.869619
1.882745
1.851619
1.788617
1.691677
1.691677
1.583861
1.476983
1.398605
1.330353
1.314228
1.324353
1.356041
1.430856
1.533422
1.533422
1.6343
1.738928
1.827806
1.875995
1.885932
1.860057
1.786742
1.690927
1.588548
1.588548
1.48392
1.405355
1.343291
1.311603
1.316103
1.349854
1.422231
1.515796
1.515796
1.623237
1.727303
1.800805
1.850494
1.87637
1.855557
1.786742
1.701239
1.589861
1.589861
1.476795
1.396168
1.341603
1.312728
1.309165
1.336353
1.408168
1.511859
1.618737
1.618737
1.71249
1.79368
1.846931
1.87037
1.849744
1.788617
1.690364
1.578798
1.482233
1.482233
1.387167
1.317228
1.29454
1.304477
1.322853
1.377042
1.484858
1.580861
1.683239
1.683239
1.770242
1.828743
1.846181
1.836056
1.779617
1.682301
1.580861
1.46892
1.46892
1.37648
1.31704
1.288352
1.290789
1.307102
1.355479
1.453732
1.563985
1.659426
1.659426
1.737803
1.800242
1.817305
1.80943
1.758241
1.666926
1.54786
1.444732
1.356416
1.356416
1.293602
1.274664
1.274289
1.286664
1.31779
1.404605
1.510171
1.612924
1.696364
1.696364
1.755241
1.782429
1.757679
1.694114
1.607487
1.505858
1.391292
1.301102
1.269601
1.269601
1.261913
1.261351
1.264351
1.276351
1.330916
1.430669
1.531547
1.618362
1.618362
1.681364
1.70499
1.689427
1.637862
1.554422
1.446982
1.284414
1.265289
1.260226
1.259663
1.259663
1.261539
1.271289
1.313478
1.406293
1.511671
1.589486
1.664113
1.697302
1.692802
1.692802
1.644425
1.566985
1.460107
1.357916
1.293414
1.267539
1.261913
1.260601
1.262476
1.262476
1.274289
1.329416
1.430856
1.538484
1.64255
1.70949
1.759366
1.761241
1.761241
1.734053
1.6508
1.553672
1.450732
1.358854
1.30879
1.283102
1.282914
1.295102
1.295102
1.344041
1.428231
1.543172
1.660363
1.756179
1.828368
1.878245
1.887433
1.843181
1.843181
1.770054
1.671801
1.577111
1.482045
1.413043
1.362792
1.347791
1.369167
1.419418
1.419418
1.509046
1.610112
1.726178
1.81618
1.887808
1.938247
1.947997
1.907871
1.827993
1.827993
1.725428
1.6358
1.531734
1.457669
1.40048
1.378917
1.405543
1.450544
1.450544
1.530047
1.635612
1.740428
1.841681
1.916871
1.962997
1.967685
1.935434
1.858744
1.858744
1.761616
1.653988
1.550297
1.475295
1.416418
1.389792
1.404793
1.45617
1.526297
1.526297
1.631675
1.744928
1.843556
1.909183
1.958497
1.967123
1.929434
1.854432
1.755429
1.755429
1.651363
1.546735
1.46292
1.410231
1.384542
1.394293
1.422981
1.500421
1.612924
1.612924
1.71624
1.800242
1.884433
1.932997
1.942372
1.904121
1.834931
1.732178
1.732178
1.627175
1.534359
1.442294
1.381355
1.360354
1.371604
1.403293
1.479045
1.576361
1.576361
1.686051
1.782992
1.854807
1.910871
1.912933
1.886308
1.816368
1.72824
1.624737
1.624737
1.513921
1.428794
1.372167
1.338228
1.342541
1.38023
1.453169
1.556672
1.669363
1.669363
1.762179
1.843369
1.893808
1.917434
1.890433
1.821056
1.72899
1.617612
1.513921
1.513921
1.425606
1.365604
1.331103
1.337853
1.371792
1.434419
1.533609
1.640488
1.734991
1.734991
1.814493
1.872057
1.895308
1.88612
1.830431
1.726928
1.621362
1.521796
1.521796
1.431981
1.365979
1.333166
1.335228
1.367479
1.432919
1.531172
1.644238
1.747366
1.747366
1.827806
1.890433
1.906746
1.887995
1.833243
1.747178
1.639363
1.530609
1.445857
1.445857
1.37648
1.342916
1.340666
1.372729
1.437981
1.533609
1.644238
1.745303
1.824056
1.824056
1.888933
1.917246
1.903746
1.844494
1.760304
1.640488
1.546922
1.458232
1.382292
1.382292
1.345166
1.343104
1.369917
1.423168
1.517671
1.621174
1.72524
1.813743
1.813743
1.87787
1.898495
1.884433
1.827806
1.747366
1.634862
1.518234
1.433106
1.363354
1.363354
1.32229
1.313665
1.333353
1.393355
1.489733
1.590236
1.680801
1.767054
1.831368
1.831368
1.862869
1.854057
1.803805
1.725053
1.620049
1.516359
1.422418
1.360541
1.322853
1.322853
1.319103
1.345541
1.406293
1.503608
1.612737
1.715677
1.804555
1.877495
1.915934
1.915934
1.912371
1.860994
1.773429
1.666551
1.566423
1.47417
1.39973
1.353979
1.353979
1.347229
1.367854
1.417168
1.503796
1.608987
1.710802
1.80043
1.874495
1.915746
1.915746
1.911058
1.866994
1.785429
1.677614
1.574861
1.486358
1.411918
1.357166
1.349104
1.349104
1.369167
1.420543
1.515421
1.620799
1.73124
1.820118
1.890433
1.926246
1.921746
1.921746
1.88162
1.80268
1.698427
1.588548
1.494233
1.418856
1.367667
1.350229
1.371604
1.371604
1.420356
1.506421
1.612924
1.718302
1.805868
1.876557
1.917246
1.918559
1.879557
1.879557
1.80043
1.699177
1.596049
1.497233
1.420731
1.368417
1.348729
1.361104
1.361104
1.406293
1.487108
1.588548
1.692989
1.789367
1.866619
1.904496
1.912746
1.878995
1.878995
1.808868
1.707802
1.598674
1.496858
1.422793
1.37948
1.371042
1.393917
1.437606
1.437606
1.515046
1.610862
1.719052
1.81693
1.909746
1.953997
1.97031
1.943497
1.866057
1.866057
1.748116
1.629237
1.495546
1.368604
1.293039
1.267726
1.262476
1.264164
1.269414
1.269414
1.286289
1.322478
1.387542
1.46142
1.520671
1.552547
1.71849
1.855369
1.855369
1.827806
1.678926
1.523484
1.432169
1.379855
1.449232
1.563985
1.773992
1.992061
1.992061
2.145066
2.221005
2.261694
2.305195
2.349259
2.350009
2.307445
2.236193
2.13494
2.13494
1.991686
1.868307
1.754491
1.656613
1.602424
1.574861
1.593236
1.633737
1.711927
1.711927
1.775304
1.844306
1.897745
1.933184
1.934684
1.895495
1.81093
1.710615
1.600549
1.600549
1.493483
1.400668
1.341416
1.313478
1.318353
1.348729
1.413793
1.507359
1.611237
1.611237
1.70799
1.788992
1.840744
1.860244
1.838119
1.773804
1.680239
1.571486
1.571486
1.465732
1.381917
1.325853
1.29754
1.301477
1.326791
1.387355
1.488983
1.599424
1.599424
1.700302
1.781117
1.841681
1.864182
1.841681
1.785992
1.692239
1.580673
1.473232
1.473232
1.388855
1.329041
1.30204
1.30354
1.32979
1.390918
1.49292
1.601111
1.704052
1.704052
1.78618
1.844869
1.87262
1.854619
1.798742
1.709115
1.605611
1.501546
1.413606
1.413606
1.344979
1.310853
1.31179
1.337291
1.393543
1.486358
1.595486
1.701427
1.787117
1.787117
1.845619
1.87637
1.860619
1.800992
1.71174
1.605611
1.495358
1.400293
1.400293
1.333353
1.303915
1.305977
1.32304
1.380792
1.475295
1.582736
1.688302
1.772304
1.772304
1.837368
1.865119
1.848244
1.798367
1.718302
1.611799
1.504171
1.410231
1.339541
1.339541
1.306165
1.300915
1.315915
1.369354
1.46517
1.567735
1.670114
1.759366
1.825556
1.825556
1.853494
1.843556
1.799492
1.716052
1.608424
1.503421
1.407418
1.337478
1.30054
1.30054
1.294352
1.307852
1.353229
1.443419
1.546735
1.646863
1.733678
1.794805
1.794805
1.831368
1.828368
1.790867
1.70649
1.598861
1.489733
1.392605
1.325853
1.290977
1.290977
1.283664
1.293039
1.328291
1.413231
1.510546
1.612174
1.699364
1.770242
1.805492
1.805492
1.789929
1.746803
1.665426
1.55611
1.441544
1.345353
1.288539
1.269601
1.266601
1.266601
1.269039
1.281414
1.335791
1.433294
1.533047
1.617612
1.695239
1.732928
1.724115
1.724115
1.683801
1.608987
1.500983
1.394668
1.308602
1.271664
1.262289
1.260038
1.260038
1.261539
1.269414
1.305415
1.392417
1.494608
1.588923
1.659238
1.698802
1.700864
1.700864
1.668988
1.592299
1.492171
1.38323
1.300727
1.269789
1.261726
1.260226
1.261539
1.261539
1.267726
1.299602
1.39223
1.499858
1.596799
1.677801
1.725615
1.734991
1.704615
1.704615
1.638988
1.548235
1.440606
1.351354
1.297165
1.276539
1.272226
1.279727
1.30504
1.30504
1.380792
1.492171
1.595861
1.704615
1.791992
1.836244
1.855744
1.829868
1.766491
1.766491
1.675551
1.570548
1.47267
1.396918
1.346479
1.326603
1.341228
1.382855
1.382855
1.464607
1.57111
1.677051
1.777929
1.861182
1.917996
1.934122
1.909371
1.845994
1.845994
1.752053
1.645175
1.54486
1.46442
1.400293
1.376855
1.387542
1.426544
1.499108
1.499108
1.600924
1.707427
1.80868
1.893058
1.942184
1.958497
1.936934
1.867932
1.782242
1.782242
1.676114
1.57261
1.48992
1.427856
1.391667
1.392792
1.427294
1.505671
1.609924
1.609924
1.718678
1.813368
1.897745
1.950247
1.970123
1.940684
1.883495
1.781117
1.781117
1.676864
1.57336
1.48467
1.38548
1.387917
1.419793
1.491233
1.585361
1.690552
1.789367
1.789367
1.869995
1.923246
1.945934
1.927184
1.863994
1.770054
1.662801
1.555923
1.466857
1.466857
1.39898
1.355104
1.359979
1.393167
1.457294
1.555547
1.662988
1.762179
1.848806
1.848806
1.902058
1.926809
1.89812
1.838306
1.749428
1.63805
1.535672
1.440419
1.369729
1.369729
1.333916
1.337478
1.366354
1.428794
1.526672
1.631675
1.741366
1.823118
1.88237
1.88237
1.909371
1.891745
1.836619
1.748303
1.643863
1.533984
1.445294
1.371979
1.371979
1.331291
1.329978
1.356229
1.412856
1.512609
1.619674
1.717365
1.803618
1.87262
1.87262
1.896433
1.88387
1.832306
1.750178
1.644613
1.539235
1.444732
1.375167
1.336166
1.336166
1.326791
1.362417
1.416793
1.516921
1.62305
1.715677
1.811868
1.872995
1.902621
1.902621
1.887245
1.845244
1.756366
1.652113
1.549547
1.449607
1.390167
1.342916
1.335228
1.335228
1.357166
1.414731
1.507921
1.612549
1.722803
1.81093
1.882933
1.916121
1.916121
1.906933
1.865307
1.780742
1.673676
1.57186
1.478108
1.399355
1.356791
1.347416
1.347416
1.364292
1.416793
1.504733
1.615924
1.720552
1.816555
1.879932
1.917246
1.907308
1.907308
1.868119
1.790492
1.682676
1.574486
1.48017
1.404605
1.350041
1.341041
1.358667
1.358667
1.405918
1.499858
1.603736
1.707615
1.808305
1.878057
1.918371
1.912371
1.872057
1.872057
1.793867
1.686614
1.579923
1.474358
1.401793
1.352479
1.334666
1.354729
1.354729
1.40348
1.482795
1.586861
1.689801
1.79143
1.871682
1.905433
1.900558
1.854619
1.854619
1.776429
1.670114
1.561548
1.461232
1.385105
1.326978
1.308227
1.323415
1.359416
1.359416
1.438169
1.535859
1.6373
1.740053
1.822743
1.874495
1.879557
1.845431
1.771742
1.771742
1.671988
1.56736
1.473045
1.39448
1.344791
1.328103
1.339353
1.38023
1.469482
1.469482
1.572798
1.673301
1.767241
1.846931
1.899621
1.912933
1.881995
1.811868
1.708552
1.708552
1.609737
1.511296
1.428794
1.364854
1.351729
1.362042
1.40348
1.481858
1.481858
1.585923
1.694302
1.791617
1.87337
1.919121
1.930934
1.897558
1.825181
1.726928
1.726928
1.615549
1.519171
1.440044
1.376667
1.347604
1.361104
1.396918
1.470982
1.582548
1.582548
1.684176
1.78918
1.872245
1.924559
1.934872
1.905621
1.841869
1.749803
1.637675
1.637675
1.533422
1.447544
1.38548
1.356791
1.366354
1.39373
1.47342
1.579361
1.681926
1.681926
1.783742
1.863432
1.918371
1.945184
1.919871
1.846931
1.746803
1.636925
1.636925
1.538672
1.452982
1.391105
1.353979
1.359229
1.39223
1.46517
1.568673
1.664863
1.664863
1.778117
1.857807
1.910496
1.928871
1.910496
1.847119
1.752428
1.64705
1.545985
1.545985
1.461982
1.405355
1.366729
1.361854
1.385292
1.459169
1.571298
1.683051
1.79293
1.79293
1.888745
1.937684
1.942559
1.881995
1.784867
1.636175
1.469295
1.308602
1.263601
1.263601
1.254413
1.252726
1.252351
1.252351
1.252538
1.253663
1.261351
1.304477
1.46142
1.46142
1.742303
1.914246
1.920246
1.815993
1.769491
1.711365
1.72524
1.697677
1.697677
1.716427
1.832681
1.934684
2.016812
2.083564
2.149191
2.247256
2.318321
2.361072
2.361072
2.38976
2.399323
2.356947
2.251944
2.131565
1.987748
1.840744
1.721303
1.616487
1.616487
1.551235
1.510359
1.496483
1.521046
1.588923
1.671239
1.765929
1.844306
1.907121
1.907121
1.926809
1.903371
1.845431
1.756929
1.647238
1.540172
1.450919
1.377229
1.330166
1.330166
1.32004
1.340103
1.391105
1.485795
1.581048
1.684739
1.776242
1.839244
1.839244
1.869807
1.857244
1.818993
1.733865
1.6253
1.522359
1.430669
1.359604
1.313102
1.313102
1.306165
1.32379
1.380605
1.464232
1.572048
1.670488
1.767991
1.840181
1.87337
1.87337
1.864182
1.820868
1.73649
1.636737
1.539047
1.437794
1.360354
1.319103
1.31404
1.31404
1.331103
1.37873
1.472482
1.578798
1.681551
1.775679
1.844306
1.89062
1.87562
1.87562
1.837931
1.756929
1.656051
1.55011
1.46067
1.377042
1.329603
1.317228
1.317228
1.335228
1.381167
1.46967
1.573735
1.679489
1.776992
1.847119
1.88837
1.884433
1.884433
1.848244
1.775867
1.664488
1.560798
1.457294
1.38173
1.331478
1.318165
1.335603
1.335603
1.38173
1.464607
1.570923
1.674801
1.773992
1.849744
1.890808
1.888745
1.853869
1.853869
1.774929
1.663738
1.566798
1.46667
1.38773
1.330728
1.306352
1.331666
1.371042
1.371042
1.452232
1.556672
1.662426
1.758429
1.833618
1.879557
1.887433
1.854057
1.783742
1.783742
1.683051
1.577111
1.47717
1.395605
1.339728
1.31254
1.321915
1.360541
1.360541
1.443044
1.54711
1.644425
1.745678
1.825181
1.875995
1.88237
1.851619
1.779054
1.779054
1.679114
1.573735
1.46742
1.385105
1.327353
1.30579
1.308415
1.338416
1.413793
1.413793
1.513546
1.624737
1.716052
1.787867
1.836056
1.846369
1.812993
1.741178
1.637675
1.637675
1.525734
1.420731
1.332791
1.290602
1.277664
1.280664
1.293602
1.353229
1.441919
1.441919
1.546547
1.641237
1.716427
1.767804
1.786367
1.749803
1.683614
1.583298
1.583298
1.473232
1.371792
1.301665
1.272976
1.265664
1.267351
1.274664
1.308602
1.396918
1.396918
1.502296
1.599424
1.680614
1.733115
1.753366
1.732928
1.668051
1.578048
1.471357
1.471357
1.363729
1.293414
1.270726
1.263414
1.264914
1.271851
1.299977
1.385105
1.495358
1.495358
1.600361
1.689052
1.747741
1.775867
1.754304
1.707052
1.617237
1.513734
1.419793
1.419793
1.339353
1.295665
1.279914
1.283664
1.306915
1.365417
1.467607
1.578423
1.578423
1.685489
1.777179
1.844119
1.875057
1.848994
1.81093
1.718115
1.617612
1.518984
1.518984
1.437794
1.364292
1.341228
1.348354
1.378917
1.444732
1.543922
1.652113
1.759179
1.759179
1.847869
1.914246
1.946122
1.928871
1.87862
1.791992
1.679676
1.580673
1.488795
1.488795
1.413793
1.374792
1.375729
1.404605
1.466107
1.555735
1.670114
1.774554
1.863244
1.863244
1.921746
1.945934
1.938059
1.881995
1.808305
1.699739
1.600924
1.505671
1.431794
1.431794
1.387355
1.383417
1.40648
1.463482
1.56061
1.661863
1.767617
1.855369
1.855369
1.920434
1.95381
1.941809
1.898495
1.812243
1.703677
1.598111
1.505671
1.438169
1.438169
1.385855
1.369354
1.400855
1.456919
1.558173
1.648175
1.761616
1.851994
1.922121
1.922121
1.955872
1.943497
1.895308
1.812055
1.709677
1.601861
1.508859
1.427856
1.382667
1.382667
1.368979
1.391105
1.440606
1.532484
1.635987
1.746991
1.829306
1.911058
1.938809
1.938809
1.937872
1.896058
1.803243
1.701802
1.601674
1.500608
1.419418
1.370854
1.370854
1.356229
1.381167
1.429731
1.519171
1.621362
1.731615
1.818243
1.888745
1.926621
1.926621
1.922121
1.883682
1.803805
1.701989
1.603174
1.503421
1.424481
1.369354
1.349291
1.349291
1.374417
1.420731
1.508484
1.611237
1.720365
1.803992
1.876557
1.928309
1.924934
1.924934
1.88762
1.815243
1.713052
1.599236
1.503421
1.420731
1.368792
1.344979
1.410606
1.410606
1.492733
1.596611
1.699927
1.79143
1.869244
1.918184
1.918371
1.888183
1.81543
1.81543
1.70649
1.602049
1.506796
1.424106
1.369917
1.349104
1.356979
1.398605
1.481483
1.481483
1.591549
1.697114
1.789929
1.869432
1.918371
1.923809
1.882557
1.826493
1.71774
1.71774
1.612737
1.525172
1.431981
1.384542
1.356041
1.365792
1.407605
1.48242
1.48242
1.590986
1.700864
1.801555
1.872245
1.921934
1.933559
1.900745
1.834931
1.724678
1.724678
1.631862
1.527422
1.438169
1.381355
1.349291
1.358667
1.398793
1.47567
1.578611
1.578611
1.680614
1.784117
1.863994
1.909183
1.922309
1.896808
1.839056
1.745678
1.637487
1.637487
1.533797
1.443232
1.379105
1.353604
1.365792
1.40273
1.473795
1.57336
1.677614
1.677614
1.783554
1.865494
1.913121
1.932246
1.910871
1.841494
1.744178
1.63955
1.532484
1.532484
1.437794
1.375729
1.344604
1.329228
1.380792
1.440606
1.534734
1.635612
1.635612
1.736866
1.820493
1.870932
1.88987
1.864932
1.810368
1.715302
1.605424
1.504171
1.504171
1.423168
1.357166
1.332416
1.32304
1.352291
1.423168
1.526109
1.633175
1.745866
1.745866
1.832681
1.889683
1.921184
1.905808
1.848244
1.753928
1.664113
1.558735
1.46667
1.46667
1.39748
1.358292
1.357166
1.395793
1.45992
1.551235
1.665051
1.767054
1.855369
1.855369
1.924559
1.948934
1.932434
1.858369
1.767241
1.682676
1.579736
1.491421
1.491421
1.401605
1.373479
1.368979
1.394293
1.458232
1.56061
1.671051
1.776992
1.853869
1.853869
1.927184
1.947247
1.938997
1.891558
1.797617
1.688489
1.581423
1.502671
1.432731
1.432731
1.383792
1.364667
1.420356
1.467795
1.556298
1.666363
1.760679
1.869995
1.917996
1.917996
1.987186
1.931121
1.897183
1.819368
1.705177
1.604674
1.500233
1.436106
1.38023
1.38023
1.38323
1.384917
1.477733
1.555547
1.674426
1.760866
1.851057
1.919496
1.919496
1.956247
1.945747
1.891183
1.810368
1.697864
1.622862
1.503421
1.435169
1.388855
1.388855
1.376855
1.405543
1.445857
1.557047
1.700302
1.776804
1.854807
1.918184
1.948747
1.948747
1.953435
1.911808
1.838306
1.742491
1.635987
1.520484
1.405543
1.319665
1.278227
1.278227
1.274289
1.266789
1.278789
1.301102
1.340853
1.38248
1.442107
1.457294
1.416793
1.416793
1.377042
1.362604
1.358479
1.482233
1.500233
1.433106
1.338791
1.368229
1.426356
1.426356
1.596799
1.742678
1.998249
2.243881
2.424824
2.529452
2.562828
2.539577
2.539577
2.497576
2.395948
2.239006
2.091626
1.977435
1.863244
1.761429
1.702177
1.687739
1.687739
1.687364
1.744741
1.833618
1.910121
1.960935
1.996748
2.017374
1.996373
1.938247
1.938247
1.847681
1.735553
1.622675
1.509796
1.437794
1.375729
1.352291
1.351541
1.384542
1.384542
1.480358
1.590424
1.692239
1.780179
1.851431
1.890808
1.890433
1.863619
1.793117
1.793117
1.697677
1.584048
1.482795
1.388292
1.337478
1.324728
1.336166
1.368792
1.46442
1.46442
1.566235
1.664863
1.761241
1.840369
1.894558
1.902433
1.872807
1.802493
1.802493
1.70724
1.586486
1.483733
1.398418
1.355666
1.340666
1.338228
1.379667
1.450919
1.450919
1.551422
1.644425
1.747366
1.857432
1.915934
1.917246
1.875995
1.813368
1.734241
1.734241
1.589674
1.504358
1.382105
1.356604
1.344791
1.357166
1.377229
1.454482
1.550485
1.550485
1.64405
1.729178
1.821993
1.875807
1.905433
1.852744
1.820493
1.690177
1.589298
1.589298
1.509233
1.457857
1.295852
1.31329
1.298477
1.371792
1.433481
1.506234
1.506234
1.646113
1.727115
1.815805
1.859869
1.894745
1.861932
1.784492
1.706865
1.608612
1.608612
1.491796
1.410981
1.354729
1.323978
1.292102
1.333353
1.415856
1.512984
1.614237
1.614237
1.719802
1.783367
1.873182
1.899621
1.859494
1.797055
1.702552
1.595299
1.451669
1.451669
1.422231
1.340666
1.311978
1.318165
1.333916
1.414356
1.515421
1.593611
1.701239
1.701239
1.79518
1.849931
1.856307
1.824431
1.821431
1.698052
1.610112
1.481858
1.37798
1.37798
1.323415
1.298665
1.311978
1.308227
1.416231
1.490483
1.541297
1.670488
1.670488
1.746803
1.815805
1.829681
1.820868
1.753366
1.645925
1.560235
1.427481
1.32304
1.32304
1.287789
1.280852
1.271476
1.270726
1.31779
1.397855
1.483545
1.605236
1.665238
1.665238
1.704615
1.737053
1.713427
1.724303
1.572986
1.502108
1.396355
1.313853
1.263226
1.263226
1.260788
1.257413
1.269414
1.271851
1.290602
1.391105
1.539235
1.663176
1.679301
1.679301
1.806805
1.685301
1.638988
1.606174
1.455044
1.334103
1.285164
1.270726
1.270726
1.267164
1.270351
1.267914
1.318915
1.280477
1.38548
1.520109
1.612737
1.701614
1.701614
1.752428
1.714552
1.653613
1.603736
1.48392
1.419231
1.309352
1.284039
1.269039
1.269039
1.269226
1.266601
1.29679
1.413793
1.506608
1.621737
1.696364
1.80718
1.862682
1.862682
1.752803
1.866245
1.831556
1.603736
1.503421
1.430856
1.403105
1.343104
1.333166
1.333166
1.311603
1.40723
1.532672
1.650613
1.759366
1.815055
1.863807
1.908621
1.908621
1.935434
1.883495
1.802493
1.731053
1.605799
1.533984
1.441731
1.395793
1.387355
1.387355
1.448482
1.440231
1.599424
1.695989
1.710802
1.836431
1.908433
1.963372
2.003124
2.003124
1.95456
1.831743
1.718678
1.654363
1.569235
1.47492
1.440981
1.38998
1.436856
1.436856
1.465545
1.561923
1.707052
1.692239
1.848619
1.884433
1.879557
2.015687
1.943309
1.943309
1.886308
1.767429
1.679489
1.580111
1.512421
1.455794
1.389605
1.38398
1.47717
1.47717
1.523296
1.666176
1.702552
1.912933
1.904308
1.972373
1.987561
1.96056
1.96056
1.856682
1.758991
1.676864
1.585361
1.48992
1.422231
1.393167
1.471732
1.396918
1.396918
1.572798
1.633175
1.735178
1.848994
1.932246
1.957185
1.960185
1.90112
1.847119
1.847119
1.737053
1.595299
1.64705
1.49292
1.434981
1.39673
1.443232
1.442669
1.498733
1.498733
1.646863
1.72899
1.87712
1.853869
1.935622
1.949872
1.971998
1.902058
1.734803
1.734803
1.631862
1.56811
1.506608
1.419606
1.401043
1.390355
1.415856
1.529672
1.529672
1.602611
1.693552
1.80793
1.885558
1.945559
1.95906
1.917808
1.856307
1.809993
1.809993
1.661113
1.582548
1.464982
1.47267
1.38323
1.360354
1.419606
1.520671
1.602611
1.602611
1.677426
1.786367
1.901308
1.982123
1.993186
1.923996
1.87337
1.776804
1.703677
1.703677
1.572798
1.441731
1.442857
1.39298
1.40498
1.498171
1.423356
1.57336
1.722053
1.722053
1.785054
1.893058
1.944622
1.943684
1.972185
1.913308
1.774367
1.723178
1.723178
1.583111
1.487295
1.423356
1.409668
1.40423
1.428981
1.494233
1.584986
1.650238
1.650238
1.834181
1.901683
1.978373
1.97106
1.907683
1.888745
1.774554
1.735365
1.638425
1.638425
1.504733
1.468545
1.411543
1.353604
1.38623
1.48842
1.550297
1.695427
1.784867
1.784867
1.89812
1.927746
1.95081
1.97106
1.903746
1.852182
1.710427
1.63055
1.531359
1.531359
1.419231
1.351541
1.367854
1.466482
1.54336
1.689989
1.773242
1.869244
1.988873
1.947059
1.947059
1.898308
1.931121
1.859869
1.744741
1.619862
1.523109
1.482983
1.415856
1.415856
1.370104
1.383417
1.472107
1.555547
1.63205
1.78918
1.838119
1.897558
1.955122
1.955122
1.915934
1.935247
1.822743
1.727678
1.615174
1.488608
1.477545
1.365417
1.361667
1.361667
1.440981
1.499296
1.564923
1.677051
1.689239
1.820118
1.943684
1.896808
2.008936
2.008936
1.915934
1.840556
1.693927
1.600361
1.518234
1.438544
1.39373
1.378542
1.420918
1.420918
1.430856
1.504358
1.63505
1.691489
1.822556
1.932434
1.924746
2.027874
2.027874
1.857994
1.784679
1.668238
1.599424
1.511109
1.393543
1.360541
1.350041
1.354916
1.354916
1.436294
1.494608
1.565298
1.700302
1.817868
1.866245
1.88612
1.878807
1.869619
1.869619
1.753553
1.688676
1.574298
1.502296
1.400293
1.376855
1.315915
1.316665
1.431981
1.431981
1.620237
1.589486
1.673676
1.772679
1.799492
1.903371
1.941434
1.907683
1.809805
1.809805
1.71324
1.617237
1.513359
1.475295
1.38173
1.361854
1.386042
1.40573
1.40573
1.47792
1.601861
1.739866
1.788242
1.868495
1.990373
1.965435
1.871495
1.793117
1.793117
1.698614
1.602424
1.576361
1.46517
1.362229
1.343479
1.457669
1.499296
1.497983
1.497983
1.614799
1.734053
1.753553
1.914808
1.868119
1.972748
1.898495
1.827993
1.758991
1.758991
1.639175
1.534734
1.427481
1.39523
1.362604
1.367104
1.415106
1.487108
1.614424
1.614424
1.717552
1.79143
1.863807
1.928309
1.924934
1.967873
1.869057
1.745303
1.635237
1.635237
1.557797
1.438544
1.395418
1.351729
1.421293
1.40423
1.509796
1.599424
1.599424
1.684551
1.757304
1.854244
1.916683
1.953622
1.916121
1.845056
1.669738
1.640863
1.640863
1.594924
1.488233
1.429544
1.425418
1.348729
1.364854
1.444544
1.533984
1.657926
1.657926
1.80493
1.835118
1.935247
1.923434
1.821431
1.832868
1.697489
1.525921
1.374417
1.374417
1.282727
1.281602
1.264164
1.266789
1.260976
1.280102
1.294727
1.423356
1.594361
1.594361
1.801555
2.038562
2.242006
2.237318
2.139253
1.986811
1.860619
1.767804
1.729178
1.729178
1.70724
1.802493
1.949309
1.950997
2.017749
2.114315
2.12669
2.244819
2.244819
2.29357
2.358447
2.401198
2.398198
2.20863
2.101002
1.996186
1.855369
1.655676
1.655676
1.6223
1.526672
1.518609
1.506984
1.531922
1.612737
1.635425
1.765929
1.785054
1.785054
1.862682
1.86737
1.905058
1.775117
1.742491
1.632237
1.483358
1.437231
1.352479
1.352479
1.301477
1.31179
1.335041
1.367854
1.447169
1.55836
1.682301
1.751678
1.808118
1.808118
1.853494
1.837744
1.795367
1.676864
1.612549
1.501546
1.369729
1.333916
1.333916
1.306165
1.297727
1.323603
1.331853
1.49292
1.627362
1.677989
1.717552
1.766117
1.766117
1.850119
1.925121
1.839431
1.764804
1.622675
1.497421
1.413043
1.354729
1.31254
1.31254
1.339916
1.286289
1.336728
1.454294
1.582173
1.699552
1.767429
1.798742
1.828368
1.828368
1.858182
1.821056
1.726178
1.6373
1.561173
1.405918
1.328665
1.319665
1.335416
1.335416
1.321165
1.340291
1.463107
1.582736
1.651175
1.694489
1.821618
1.931684
1.876745
1.876745
1.780742
1.686239
1.616487
1.536797
1.415481
1.350791
1.30504
1.30129
1.30129
1.300727
1.32154
1.458045
1.57111
1.648175
1.732553
1.851057
1.877307
1.800055
1.800055
1.80718
1.716802
1.624175
1.545047
1.431606
1.353416
1.311978
1.29979
1.322665
1.322665
1.343853
1.436669
1.54936
1.584423
1.713427
1.805868
1.872432
1.908433
1.746616
1.746616
1.751678
1.638613
1.614237
1.373854
1.326041
1.291352
1.29454
1.303165
1.333166
1.333166
1.445482
1.496483
1.625112
1.696739
1.758054
1.830618
1.834369
1.758241
1.758241
1.744553
1.616674
1.526297
1.416793
1.312915
1.295665
1.30504
1.279352
1.301477
1.301477
1.366542
1.444357
1.545985
1.674239
1.752616
1.774929
1.776429
1.749428
1.681176
1.681176
1.570923
1.47867
1.358479
1.30729
1.270539
1.267351
1.265664
1.287789
1.326228
1.326228
1.332416
1.483358
1.581611
1.704052
1.715115
1.696177
1.722428
1.590424
1.503983
1.503983
1.428794
1.31629
1.267914
1.261726
1.263976
1.260226
1.260038
1.299602
1.299602
1.388667
1.482045
1.538484
1.605611
1.719615
1.73349
1.657176
1.593424
1.503983
1.503983
1.394293
1.315915
1.273164
1.262101
1.260601
1.261726
1.278227
1.286102
1.356229
1.356229
1.490671
1.606549
1.655301
1.709302
1.798555
1.695989
1.635612
1.585548
1.522359
1.522359
1.371417
1.326603
1.284602
1.272226
1.299415
1.301665
1.377229
1.46067
1.576548
1.576548
1.692052
1.793867
1.890245
1.890433
1.886495
1.809055
1.683239
1.617237
1.504358
1.504358
1.40123
1.368792
1.31404
1.332978
1.39898
1.441919
1.559485
1.669926
1.669926
1.792367
1.870932
1.900371
1.955497
1.902621
1.887808
1.788617
1.665238
1.605986
1.605986
1.48167
1.431419
1.424668
1.387355
1.386605
1.464045
1.555547
1.71624
1.828368
1.828368
1.81393
1.968248
1.937309
1.922496
1.836431
1.785429
1.714177
1.561923
1.476233
1.476233
1.433481
1.390543
1.373667
1.438919
1.463295
1.550485
1.648363
1.748866
1.850307
1.850307
1.920621
1.945184
1.911058
1.855932
1.800242
1.699552
1.578236
1.481483
1.481483
1.441919
1.404043
1.346666
1.377792
1.442294
1.494233
1.636362
1.782992
1.847306
1.847306
1.95081
1.960372
1.935247
1.873182
1.840556
1.647425
1.603362
1.497421
1.408918
1.408918
1.361667
1.358667
1.401418
1.462357
1.526109
1.649863
1.729928
1.813368
1.903371
1.903371
1.965622
1.888933
1.846744
1.797805
1.710052
1.565485
1.505671
1.432919
1.427669
1.427669
1.365417
1.350791
1.423356
1.536234
1.623237
1.708365
1.801367
1.896808
1.896808
1.925871
1.935059
1.88087
1.770054
1.689239
1.578798
1.479795
1.411731
1.356791
1.356791
1.351729
1.388855
1.40948
1.508859
1.637112
1.697302
1.839431
1.941059
1.864932
1.864932
1.839619
1.870745
1.794055
1.665988
1.585361
1.501921
1.39823
1.359979
1.350229
1.350229
1.356604
1.378542
1.464795
1.576923
1.71849
1.826493
1.88387
1.905808
1.914246
1.914246
1.845244
1.785242
1.691114
1.566048
1.499108
1.404793
1.397105
1.330166
1.330166
1.352291
1.422231
1.479795
1.583486
1.71174
1.783742
1.837181
1.899995
1.88537
1.88537
1.913683
1.823493
1.716052
1.586298
1.497796
1.437231
1.365417
1.335416
1.367667
1.367667
1.372167
1.46742
1.601674
1.677801
1.778304
1.815618
1.903746
1.906183
1.907308
1.907308
1.80043
1.721303
1.587423
1.525359
1.414543
1.357166
1.365979
1.337291
1.386042
1.386042
1.466857
1.588923
1.688864
1.777367
1.869619
1.888933
1.915934
1.846556
1.839431
1.839431
1.710052
1.620237
1.512984
1.420356
1.363354
1.371042
1.375167
1.374417
1.374417
1.505671
1.628112
1.647988
1.778117
1.848806
1.922121
1.936372
1.931871
1.846556
1.846556
1.718115
1.607299
1.536422
1.449232
1.397855
1.374792
1.38998
1.376104
1.457482
1.457482
1.592674
1.807555
1.864744
1.938809
1.967498
1.908996
1.805305
1.71324
1.62755
1.580111
1.580111
1.495733
1.448482
1.388105
1.375917
1.351354
1.473045
1.57336
1.676114
1.676114
1.802305
1.860807
1.950997
1.966373
1.948747
1.843556
1.744553
1.634862
1.528359
1.528359
1.499858
1.405168
1.40198
1.350979
1.424856
1.439669
1.615549
1.659238
1.779242
1.779242
1.843556
1.917058
1.935809
1.923621
1.864369
1.781304
1.635237
1.54861
1.447169
1.447169
1.418481
1.330541
1.333353
1.39748
1.415293
1.527234
1.620237
1.746803
1.837744
1.837744
1.847119
1.89212
1.899808
1.859119
1.738553
1.62605
1.532484
1.509796
1.509796
1.396918
1.332791
1.325103
1.39973
1.452982
1.56136
1.657926
1.746053
1.848431
1.848431
1.887245
1.930934
1.943122
1.878245
1.783929
1.689801
1.588923
1.499858
1.443982
1.443982
1.404605
1.367292
1.418106
1.46742
1.529484
1.692989
1.770992
1.87487
1.906183
1.906183
1.984748
1.96956
1.923621
1.815993
1.690927
1.607299
1.496858
1.423356
1.381542
1.381542
1.387917
1.413418
1.476233
1.553485
1.699552
1.748678
1.837744
1.969935
1.969935
1.959622
1.916308
1.902621
1.829118
1.747553
1.642738
1.514109
1.434231
1.38098
1.38098
1.39148
1.411356
1.482795
1.553672
1.649863
1.767241
1.834556
1.913683
1.954747
1.954747
2.001249
1.89587
1.827618
1.750366
1.578423
1.521234
1.430106
1.40348
1.368042
1.368042
1.39823
1.451669
1.521609
1.641613
1.761616
1.826306
1.924371
1.985873
1.921934
1.921934
1.909371
1.862307
1.70949
1.62155
1.476983
1.429356
1.396543
1.40048
1.386792
1.386792
1.459169
1.539235
1.585548
1.686614
1.832681
1.926059
1.929809
1.935622
1.935622
1.922121
1.818993
1.691677
1.55536
1.401605
1.318915
1.288727
1.260226
1.269039
1.269039
1.281414
1.277664
1.329228
1.409855
1.517109
1.592674
1.709865
1.818618
2.052813
2.052813
2.117315
1.960372
1.821243
1.707802
1.623425
1.583486
1.615174
1.706677
1.823681
1.823681
1.999561
2.180504
2.274069
2.328259
2.380198
2.409636
2.432512
2.350197
2.30782
2.30782
2.137565
1.986811
1.850307
1.745866
1.659238
1.622487
1.594174
1.581611
1.581611
1.65155
1.761616
1.761616
1.853119
1.914433
1.88387
1.922684
1.88312
1.757304
1.757304
1.685301
1.582173
1.487295
1.38848
1.331666
1.337666
1.31779
1.342728
1.416793
1.416793
1.529484
1.618362
1.734615
1.820868
1.874495
1.87262
1.820493
1.73574
1.680989
1.680989
1.560985
1.46442
1.388292
1.345916
1.307665
1.295852
1.352291
1.398043
1.518046
1.518046
1.620612
1.721865
1.819368
1.851057
1.876557
1.802305
1.767429
1.708552
1.574673
1.574673
1.47342
1.389042
1.328665
1.322853
1.303165
1.340478
1.449982
1.499296
1.499296
1.600361
1.712865
1.807743
1.845056
1.867182
1.832868
1.784305
1.684926
1.592111
1.592111
1.462545
1.384355
1.344041
1.301852
1.299415
1.324915
1.38998
1.473232
1.602424
1.602424
1.697114
1.770617
1.836244
1.865869
1.850681
1.785617
1.689801
1.563423
1.481295
1.481295
1.39748
1.318165
1.314978
1.291727
1.32379
1.392417
1.502296
1.578048
1.697677
1.697677
1.774554
1.814868
1.859119
1.848431
1.767804
1.693177
1.561548
1.442482
1.442482
1.364854
1.350791
1.290414
1.310103
1.312353
1.368979
1.473795
1.556298
1.679489
1.679489
1.760679
1.836619
1.854432
1.821243
1.776242
1.714177
1.585923
1.495358
1.38923
1.38923
1.312353
1.278977
1.279352
1.323978
1.363354
1.428419
1.577298
1.655301
1.723928
1.723928
1.832681
1.826681
1.812243
1.767991
1.676301
1.602049
1.477733
1.370479
1.317603
1.317603
1.278789
1.285539
1.303165
1.342353
1.417731
1.536047
1.656051
1.712115
1.712115
1.79293
1.797805
1.79368
1.735178
1.64255
1.553485
1.459357
1.329228
1.292289
1.292289
1.269601
1.274851
1.287789
1.31479
1.344416
1.492171
1.564923
1.6298
1.72974
1.72974
1.760491
1.749991
1.712302
1.606362
1.502296
1.402168
1.29604
1.283852
1.262476
1.262476
1.260788
1.266414
1.279539
1.299415
1.404793
1.546172
1.618174
1.681926
1.748866
1.748866
1.699177
1.669926
1.593049
1.478108
1.386792
1.290789
1.267914
1.265476
1.262476
1.262476
1.262851
1.272414
1.330353
1.413606
1.530797
1.642925
1.704427
1.751491
1.751491
1.751303
1.712677
1.618174
1.514859
1.488233
1.355104
1.289477
1.284977
1.269039
1.269039
1.281602
1.306352
1.362792
1.495546
1.638613
1.710427
1.81168
1.841681
1.853682
1.853682
1.832681
1.743241
1.659801
1.551797
1.444169
1.378355
1.321915
1.327541
1.370479
1.370479
1.403855
1.497233
1.56961
1.710052
1.813368
1.860244
1.902621
1.940497
1.899245
1.899245
1.818431
1.73724
1.661113
1.521609
1.455607
1.375542
1.363729
1.400105
1.400105
1.442857
1.524609
1.622675
1.756179
1.814305
1.904308
1.942184
1.946309
1.936934
1.936934
1.857619
1.749616
1.656613
1.569798
1.456544
1.40048
1.374792
1.391292
1.448857
1.448857
1.511484
1.634862
1.703115
1.838306
1.879745
1.936372
1.944059
1.901308
1.843369
1.843369
1.743991
1.636362
1.551797
1.457482
1.416981
1.365604
1.395793
1.414543
1.480545
1.480545
1.590799
1.712677
1.788992
1.908433
1.922871
1.949122
1.876745
1.820868
1.820868
1.756366
1.646113
1.556672
1.465545
1.39973
1.371979
1.392605
1.413418
1.486358
1.486358
1.575986
1.699552
1.805305
1.892683
1.919496
1.934497
1.904683
1.862307
1.757866
1.757866
1.6478
1.541109
1.433294
1.423356
1.39073
1.374417
1.382855
1.479983
1.582173
1.582173
1.694677
1.771554
1.878432
1.911058
1.923059
1.907871
1.87112
1.752241
1.658488
1.658488
1.551422
1.450732
1.381167
1.374792
1.37873
1.39448
1.449044
1.553672
1.553672
1.646863
1.781304
1.827806
1.88387
1.941059
1.899621
1.839056
1.738553
1.637112
1.637112
1.524796
1.481858
1.389792
1.370667
1.333916
1.400293
1.452419
1.560235
1.647988
1.647988
1.740428
1.872807
1.90112
1.910871
1.917621
1.852556
1.785054
1.627175
1.575798
1.575798
1.48542
1.39898
1.32979
1.354166
1.387542
1.430106
1.56061
1.662613
1.753741
1.753741
1.845244
1.889308
1.923621
1.927934
1.86737
1.773054
1.670676
1.56436
1.441919
1.441919
1.416793
1.350229
1.341041
1.385105
1.451294
1.56586
1.666176
1.767617
1.767617
1.869807
1.881245
1.910496
1.905058
1.878432
1.798367
1.676864
1.588736
1.472857
1.472857
1.375355
1.399168
1.367667
1.38473
1.421106
1.536422
1.614987
1.762179
1.807368
1.807368
1.911433
1.917621
1.90112
1.894183
1.783554
1.705927
1.583861
1.496858
1.419043
1.419043
1.414731
1.360729
1.424106
1.392417
1.546172
1.630737
1.720178
1.81768
1.892308
1.892308
1.919871
1.929434
1.873557
1.774367
1.706677
1.580486
1.532297
1.404418
1.404418
1.379292
1.378167
1.374042
1.436106
1.539047
1.6373
1.742491
1.86737
1.926996
1.926996
1.923246
1.940309
1.869244
1.819555
1.72074
1.594924
1.488795
1.438356
1.439856
1.439856
1.323228
1.356791
1.442107
1.521609
1.625487
1.746616
1.81918
1.89287
1.928684
1.886683
1.886683
1.826681
1.697864
1.607112
1.507359
1.440794
1.39148
1.32379
1.40648
1.436856
1.436856
1.523859
1.618174
1.749803
1.820493
1.889308
1.933184
1.956435
1.89437
1.834743
1.834743
1.734615
1.603736
1.518234
1.448107
1.387355
1.351354
1.373854
1.426731
1.426731
1.493483
1.606174
1.721865
1.807368
1.887808
1.895495
1.928871
1.883307
1.841306
1.841306
1.688302
1.628675
1.520484
1.412293
1.390167
1.358854
1.351166
1.382855
1.490296
1.490296
1.606549
1.694302
1.812993
1.854244
1.907121
1.919121
1.894745
1.822743
1.714365
1.714365
1.619674
1.523484
1.454669
1.392605
1.332228
1.356229
1.405168
1.487295
1.544672
1.544672
1.681926
1.780179
1.870557
1.933934
1.903183
1.878245
1.817868
1.709677
1.617987
1.617987
1.515984
1.433669
1.377792
1.369542
1.374417
1.339916
1.478858
1.57036
1.57036
1.664488
1.772304
1.842244
1.902433
1.924559
1.885745
1.846369
1.701614
1.600549
1.600549
1.517484
1.419981
1.388292
1.307102
1.359604
1.396168
1.449232
1.55311
1.638988
1.638988
1.740053
1.808868
1.869244
1.884433
1.88537
1.774742
1.703302
1.644988
1.510546
1.510546
1.427669
1.362979
1.342728
1.369542
1.362042
1.46292
1.552172
1.648175
1.777554
1.777554
1.861557
1.891558
1.909746
1.88987
1.905058
1.731428
1.651925
1.54411
1.54411
1.47867
1.40423
1.395793
1.422606
1.388292
1.441356
1.577298
1.677239
1.776804
1.776804
1.856869
1.932809
1.947434
1.931871
1.876182
1.774742
1.676864
