3.0
1.699364
1.677801
1.672739
1.682301
1.696927
1.718302
1.718302
1.725803
1.740616
1.753366
1.752616
1.732553
1.699739
1.658301
1.615174
1.554422
1.554422
1.559298
1.535859
1.520109
1.525359
1.53961
1.557797
1.590236
1.619862
1.643675
1.643675
1.660363
1.673676
1.668988
1.652863
1.6328
1.588361
1.54561
1.515984
1.515984
1.490296
1.47342
1.469482
1.47867
1.494983
1.518984
1.549922
1.584986
1.601299
1.601299
1.62905
1.634862
1.637675
1.632425
1.605986
1.573548
1.539047
1.502296
1.474732
1.474732
1.468545
1.467045
1.46817
1.486545
1.510171
1.542235
1.569798
1.604111
1.6238
1.6238
1.6388
1.643113
1.609924
1.600361
1.561735
1.518421
1.478483
1.461607
1.448294
1.448294
1.448107
1.461795
1.469857
1.494421
1.529109
1.557235
1.584423
1.603924
1.603924
1.626612
1.618362
1.604299
1.581798
1.545797
1.505483
1.471732
1.446419
1.433294
1.433294
1.430106
1.438169
1.449794
1.47492
1.511296
1.54186
1.56361
1.585923
1.600924
1.600924
1.600924
1.587048
1.557985
1.519921
1.487295
1.453169
1.427856
1.412293
1.409293
1.409293
1.413981
1.435356
1.452232
1.48617
1.517671
1.536234
1.555547
1.572048
1.572423
1.572423
1.556672
1.537359
1.496108
1.453169
1.422043
1.392792
1.38023
1.369167
1.369167
1.370667
1.38623
1.412481
1.429919
1.472107
1.479233
1.497608
1.507546
1.505108
1.505108
1.488795
1.467045
1.432356
1.396543
1.364292
1.325478
1.315915
1.30729
1.307102
1.307102
1.313853
1.326603
1.349104
1.373104
1.396918
1.413606
1.422418
1.424668
1.394105
1.394105
1.376667
1.334291
1.300915
1.280102
1.270914
1.268101
1.265664
1.266789
1.268289
1.268289
1.270914
1.279727
1.291914
1.305227
1.322853
1.335228
1.337853
1.324165
1.307477
1.307477
1.286852
1.273726
1.266039
1.262664
1.260976
1.260413
1.260226
1.261539
1.261539
1.263039
1.268476
1.277851
1.291164
1.308977
1.331666
1.334666
1.335978
1.306915
1.306915
1.289852
1.277289
1.269789
1.265664
1.263601
1.263976
1.266039
1.270164
1.278789
1.278789
1.290602
1.31704
1.350791
1.413981
1.424856
1.432731
1.423543
1.401043
1.369917
1.347416
1.347416
1.334291
1.329416
1.338416
1.352666
1.37948
1.407605
1.447544
1.491796
1.534172
1.534172
1.567923
1.597549
1.613674
1.609174
1.591174
1.567548
1.532672
1.502671
1.484483
1.484483
1.478483
1.483733
1.489545
1.509233
1.540359
1.575798
1.619862
1.646488
1.646488
1.690177
1.710427
1.717927
1.714365
1.692239
1.663176
1.624362
1.596611
1.579548
1.579548
1.566423
1.566798
1.57261
1.585361
1.608049
1.642175
1.676864
1.706302
1.729365
1.729365
1.754491
1.763866
1.758804
1.737428
1.70874
1.671614
1.636175
1.609737
1.598486
1.598486
1.582548
1.585361
1.604111
1.6223
1.650238
1.686614
1.719427
1.746053
1.764241
1.764241
1.765554
1.756554
1.739116
1.694489
1.658301
1.614799
1.585361
1.568673
1.568673
1.565298
1.56811
1.582548
1.596986
1.632612
1.667113
1.692239
1.71624
1.737428
1.737428
1.741741
1.734428
1.71399
1.683426
1.637675
1.604299
1.572048
1.553672
1.54336
1.54336
1.547297
1.55761
1.576548
1.602986
1.638613
1.673676
1.693177
1.711927
1.718865
1.718865
1.717177
1.695052
1.661863
1.624549
1.587423
1.555735
1.538484
1.527984
1.528172
1.528172
1.540922
1.55761
1.584048
1.619487
1.657176
1.686051
1.695614
1.704239
1.704239
1.701239
1.680239
1.640675
1.614237
1.568298
1.536984
1.513921
1.509233
1.508109
1.508109
1.532109
1.554798
1.581236
1.611987
1.6403
1.666551
1.688489
1.702364
1.701802
1.701802
1.685864
1.655301
1.618924
1.583861
1.555172
1.532297
1.519359
1.524047
1.539797
1.539797
1.558548
1.584423
1.625487
1.656238
1.681926
1.697489
1.71024
1.703864
1.685489
1.685489
1.662051
1.62755
1.587423
1.560798
1.540172
1.528172
1.533797
1.54936
1.54936
1.56511
1.593986
1.623987
1.662238
1.686051
1.705739
1.716427
1.709865
1.693177
1.693177
1.668613
1.630362
1.594549
1.56661
1.546922
1.542985
1.542235
1.559485
1.583673
1.583673
1.602049
1.640112
1.671801
1.701427
1.722053
1.73649
1.731803
1.710427
1.683801
1.683801
1.649488
1.611612
1.577298
1.55986
1.554798
1.539047
1.559485
1.575048
1.598674
1.598674
1.632425
1.663926
1.695052
1.71699
1.726553
1.734615
1.722053
1.692239
1.692239
1.650988
1.610112
1.579361
1.55761
1.545422
1.549922
1.558735
1.573548
1.603362
1.603362
1.6388
1.670676
1.696927
1.715115
1.73049
1.73274
1.713802
1.690739
1.647988
1.647988
1.604674
1.57036
1.545422
1.526484
1.527609
1.539422
1.553672
1.579361
1.608799
1.608799
1.637862
1.659988
1.671051
1.688489
1.692239
1.672551
1.640112
1.601486
1.569235
1.569235
1.53811
1.521046
1.512234
1.509421
1.524609
1.545422
1.575986
1.606924
1.643113
1.643113
1.683051
1.693177
1.709865
1.709302
1.699177
1.678364
1.647988
1.610862
1.610862
1.575986
1.554235
1.540735
1.536797
1.553485
1.578798
1.598299
1.631112
1.660738
1.660738
1.692802
1.71774
1.73349
1.732178
1.72374
1.70724
1.666926
1.627362
1.600361
1.600361
1.571486
1.55086
1.551047
1.557423
1.576923
1.599424
1.636737
1.673489
1.701989
1.701989
1.723928
1.740428
1.742116
1.730303
1.710802
1.672739
1.628112
1.599799
1.573548
1.573548
1.557235
1.556672
1.572986
1.591361
1.606924
1.648363
1.680801
1.709677
1.709677
1.735178
1.751866
1.755429
1.742491
1.72299
1.680051
1.642738
1.605611
1.579548
1.579548
1.566235
1.563423
1.57036
1.588923
1.610674
1.64255
1.684551
1.714552
1.723928
1.723928
1.743241
1.748678
1.730115
1.704239
1.666176
1.632612
1.599986
1.576736
1.563235
1.563235
1.558735
1.579173
1.601299
1.618549
1.652113
1.684176
1.706677
1.709302
1.708177
1.708177
1.712677
1.704615
1.679114
1.652675
1.616299
1.566798
1.527047
1.46442
1.46442
1.420168
1.370292
1.330541
1.306165
1.308227
1.302415
1.294165
1.305415
1.324915
1.324915
1.32304
1.302227
1.31704
1.335416
1.447732
1.623237
1.683051
1.661676
1.603736
1.603736
1.643113
1.725615
1.842431
1.957935
2.148441
2.328259
2.428012
2.503201
2.52664
2.52664
2.479576
2.443012
2.37776
2.287007
2.204692
2.154816
2.101939
2.06125
2.027499
2.027499
2.007249
1.998999
2.003874
2.002186
1.999749
1.993186
1.977623
1.941809
1.886495
1.886495
1.835868
1.781867
1.734241
1.682676
1.630362
1.612362
1.597174
1.593049
1.593049
1.604486
1.620049
1.645175
1.673676
1.699552
1.71999
1.730303
1.726553
1.706677
1.706677
1.676489
1.635987
1.594736
1.553297
1.521421
1.505858
1.497046
1.501171
1.514671
1.514671
1.531922
1.55986
1.596611
1.623987
1.648363
1.663926
1.669926
1.659051
1.637487
1.637487
1.601486
1.561173
1.527609
1.495546
1.479233
1.475483
1.476983
1.492733
1.512609
1.512609
1.542797
1.578048
1.604299
1.625487
1.6448
1.649675
1.646113
1.614987
1.614987
1.586298
1.551047
1.517296
1.492358
1.47492
1.466482
1.468357
1.48242
1.502483
1.502483
1.534734
1.567923
1.602986
1.630362
1.653613
1.647238
1.637112
1.615549
1.590611
1.590611
1.555735
1.510171
1.487295
1.467982
1.461045
1.462732
1.482045
1.494983
1.526672
1.526672
1.563048
1.588361
1.614049
1.63505
1.638238
1.630737
1.609924
1.579548
1.536422
1.536422
1.498546
1.473982
1.458045
1.451107
1.451669
1.464045
1.48317
1.510921
1.544297
1.544297
1.577673
1.602237
1.624925
1.628675
1.623237
1.596049
1.56211
1.519546
1.519546
1.484483
1.458045
1.439669
1.428981
1.429169
1.443232
1.463107
1.487108
1.523859
1.523859
1.55161
1.571673
1.587236
1.590611
1.580486
1.562298
1.525359
1.48392
1.440981
1.440981
1.409293
1.387355
1.377417
1.374979
1.386042
1.39898
1.427481
1.459169
1.48392
1.48392
1.504358
1.520109
1.523672
1.517484
1.491796
1.454107
1.409668
1.362604
1.327728
1.327728
1.310477
1.30129
1.296977
1.300727
1.311228
1.329228
1.355666
1.376292
1.376292
1.398418
1.415106
1.416231
1.404418
1.383042
1.352854
1.31554
1.288539
1.275601
1.275601
1.269414
1.268101
1.267726
1.269976
1.273539
1.280289
1.293977
1.311603
1.329978
1.329978
1.345916
1.354729
1.353604
1.336728
1.312915
1.291164
1.276351
1.268289
1.265664
1.265664
1.264726
1.265289
1.268289
1.270726
1.278977
1.293789
1.31479
1.335978
1.358104
1.358104
1.373667
1.375542
1.362042
1.341791
1.315728
1.29604
1.283477
1.278789
1.278789
1.278977
1.281227
1.292289
1.30804
1.337666
1.38023
1.425043
1.457669
1.487483
1.487483
1.511671
1.524234
1.502858
1.490483
1.45992
1.438544
1.416793
1.401605
1.40273
1.40273
1.409855
1.430481
1.455419
1.491796
1.529109
1.574111
1.607112
1.626987
1.6463
1.6463
1.646863
1.642738
1.621362
1.585173
1.555172
1.527047
1.509046
1.500796
1.502108
1.502108
1.518984
1.539984
1.56736
1.601861
1.641988
1.669176
1.689989
1.704239
1.704239
1.705364
1.686239
1.663926
1.628112
1.590986
1.564173
1.541109
1.529672
1.528734
1.528734
1.543172
1.56286
1.589111
1.624737
1.658488
1.686427
1.70499
1.716427
1.71924
1.672176
1.672176
1.63655
1.597361
1.568673
1.548422
1.540172
1.530984
1.540547
1.560985
1.586861
1.586861
1.619862
1.654363
1.684739
1.707615
1.721303
1.715115
1.697489
1.669176
1.669176
1.63355
1.596236
1.558548
1.54261
1.517671
1.527047
1.543172
1.566985
1.589486
1.589486
1.623612
1.656801
1.681926
1.707052
1.722615
1.725615
1.707615
1.680239
1.63805
1.63805
1.602424
1.57261
1.547485
1.533797
1.531922
1.538297
1.55536
1.583111
1.612174
1.612174
1.643863
1.674051
1.695427
1.708177
1.712865
1.699552
1.672739
1.6343
1.599424
1.599424
1.564548
1.539235
1.525921
1.523109
1.535859
1.54636
1.564923
1.597736
1.597736
1.631112
1.656613
1.687739
1.697677
1.698052
1.678551
1.658301
1.624925
1.588923
1.588923
1.559673
1.536234
1.521984
1.517109
1.523109
1.541297
1.563985
1.599236
1.634862
1.634862
1.663551
1.684926
1.705927
1.703677
1.689052
1.664676
1.629237
1.595299
1.56361
1.56361
1.522171
1.517296
1.517859
1.530234
1.544485
1.564548
1.601111
1.63205
1.658113
1.658113
1.680801
1.701052
1.707615
1.690552
1.665801
1.628112
1.590049
1.555172
1.531547
1.531547
1.521796
1.521609
1.525921
1.540922
1.560235
1.590049
1.628862
1.659988
1.659988
1.686427
1.701614
1.700677
1.692802
1.673676
1.640112
1.600174
1.566423
1.542422
1.542422
1.527797
1.521234
1.524421
1.54486
1.56436
1.598861
1.634487
1.666176
1.683426
1.683426
1.715115
1.712302
1.692802
1.679489
1.647238
1.606549
1.567923
1.539235
1.531172
1.531172
1.526297
1.532484
1.545985
1.567735
1.598486
1.6283
1.654738
1.678176
1.689427
1.689427
1.693177
1.680239
1.65305
1.616299
1.577111
1.536609
1.505296
1.492358
1.492358
1.482795
1.47717
1.493671
1.517484
1.549547
1.587986
1.618924
1.643488
1.662801
1.662801
1.669926
1.664301
1.64705
1.614612
1.580486
1.550297
1.527609
1.512796
1.512046
1.512046
1.515609
1.530422
1.55011
1.587986
1.622675
1.656988
1.680801
1.696927
1.699177
1.699177
1.690739
1.672926
1.643113
1.604299
1.572048
1.554985
1.532484
1.523859
1.532484
1.532484
1.55011
1.573548
1.604861
1.638613
1.665613
1.687364
1.708365
1.713802
1.713802
1.705552
1.686802
1.655676
1.619674
1.588923
1.557797
1.541297
1.531172
1.537547
1.537547
1.55461
1.578048
1.610112
1.645175
1.678176
1.705177
1.71849
1.723928
1.721303
1.721303
1.698239
1.669363
1.634862
1.600549
1.57261
1.554422
1.549547
1.555923
1.571486
1.571486
1.591736
1.620612
1.649863
1.678926
1.70499
1.724678
1.729365
1.723928
1.707802
1.707802
1.677614
1.637862
1.603174
1.573735
1.557047
1.546547
1.542422
1.558548
1.558548
1.577673
1.608424
1.63955
1.675739
1.699364
1.71849
1.728803
1.735553
1.711552
1.711552
1.674426
1.640675
1.611612
1.585361
1.566048
1.55161
1.535672
1.537172
1.548985
1.548985
1.580486
1.623237
1.657551
1.684926
1.699739
1.691864
1.662988
1.618174
1.548985
1.548985
1.452794
1.360729
1.294915
1.277664
1.268101
1.260413
1.260601
1.261163
1.266601
1.266601
1.271664
1.285727
1.350604
1.555547
1.783554
1.836994
1.801555
1.711365
1.691489
1.691489
1.724115
1.813555
1.87712
2.051312
2.227943
2.30632
2.344009
2.37401
2.37401
2.393323
2.406261
2.412261
2.403261
2.36651
2.324883
2.263194
2.188942
2.11844
2.11844
2.042125
1.967498
1.923809
1.892683
1.853119
1.834743
1.81768
1.80268
1.801367
1.801367
1.806055
1.793305
1.808118
1.808493
1.788617
1.753928
1.71624
1.673676
1.62905
1.62905
1.588548
1.56061
1.54561
1.538297
1.547485
1.554235
1.567923
1.595861
1.62905
1.62905
1.651363
1.671239
1.673864
1.666176
1.647238
1.618924
1.584423
1.548797
1.548797
1.513734
1.490671
1.480545
1.480733
1.497608
1.507171
1.527422
1.559485
1.586861
1.586861
1.617049
1.6418
1.64855
1.644238
1.639175
1.599986
1.55986
1.523859
1.490671
1.490671
1.469107
1.451857
1.452232
1.458607
1.477357
1.503421
1.533609
1.569423
1.598861
1.598861
1.620799
1.633175
1.638988
1.615362
1.590236
1.556298
1.498171
1.463295
1.440606
1.440606
1.435169
1.433294
1.449232
1.468732
1.502108
1.534172
1.561735
1.593611
1.593611
1.614987
1.628862
1.6313
1.608049
1.582923
1.543735
1.504921
1.473045
1.451669
1.451669
1.436294
1.430294
1.440606
1.456919
1.482233
1.522359
1.554047
1.580861
1.602424
1.602424
1.613112
1.613674
1.597924
1.567173
1.531734
1.492358
1.456357
1.430856
1.419793
1.419793
1.418293
1.427856
1.442669
1.468732
1.503796
1.531359
1.55611
1.580486
1.581423
1.581423
1.583298
1.566423
1.534547
1.501358
1.459732
1.420356
1.39598
1.380605
1.377417
1.377417
1.387917
1.408543
1.433669
1.464607
1.493671
1.514671
1.530234
1.540547
1.540547
1.540359
1.523484
1.491608
1.446607
1.404418
1.371229
1.339728
1.326416
1.320415
1.320415
1.323978
1.334666
1.353604
1.378917
1.402918
1.421106
1.436106
1.445669
1.440044
1.440044
1.420918
1.387542
1.355291
1.309165
1.285164
1.273914
1.270164
1.269039
1.269414
1.269414
1.271476
1.274664
1.284414
1.297352
1.315165
1.323603
1.331666
1.332791
1.320228
1.320228
1.299977
1.280852
1.268476
1.262101
1.259663
1.258726
1.259101
1.260413
1.260413
1.262289
1.263789
1.269039
1.275789
1.289289
1.302227
1.31329
1.317603
1.311603
1.311603
1.297727
1.281977
1.270351
1.264726
1.260601
1.260226
1.260226
1.261726
1.264914
1.264914
1.269226
1.278977
1.296414
1.324915
1.352666
1.382292
1.379292
1.384917
1.369167
1.369167
1.345166
1.325665
1.30729
1.296227
1.29454
1.302227
1.311978
1.331853
1.355291
1.355291
1.399168
1.439856
1.476045
1.516921
1.55011
1.55986
1.556298
1.548235
1.548235
1.519171
1.485608
1.46142
1.442107
1.433669
1.443794
1.458045
1.483358
1.512234
1.512234
1.547485
1.587986
1.620237
1.644425
1.666176
1.677989
1.678364
1.65305
1.617049
1.617049
1.584986
1.552735
1.531172
1.521609
1.522171
1.529297
1.540922
1.567548
1.601299
1.601299
1.640112
1.673489
1.698052
1.716802
1.722428
1.710427
1.691302
1.657738
1.620049
1.620049
1.586673
1.56136
1.547485
1.543172
1.546172
1.563798
1.579736
1.617799
1.6508
1.6508
1.674801
1.698427
1.715677
1.715115
1.707052
1.685676
1.657363
1.620612
1.620612
1.580486
1.560423
1.545797
1.537547
1.554422
1.568298
1.584611
1.624362
1.660926
1.660926
1.686802
1.712865
1.726365
1.733865
1.724865
1.711552
1.659801
1.624362
1.590049
1.590049
1.562298
1.550485
1.536797
1.542047
1.559298
1.576361
1.605799
1.64105
1.670488
1.670488
1.693177
1.71099
1.715865
1.704802
1.680426
1.647988
1.611049
1.574111
1.555547
1.555547
1.541109
1.530047
1.524047
1.535297
1.556298
1.587048
1.6223
1.658301
1.658301
1.679676
1.699364
1.704615
1.699739
1.680239
1.651175
1.605799
1.577673
1.54486
1.54486
1.528172
1.527234
1.522734
1.540172
1.56136
1.589861
1.618549
1.650425
1.682301
1.682301
1.698614
1.713802
1.691114
1.678739
1.643113
1.603924
1.54186
1.523672
1.517296
1.518046
1.518046
1.539422
1.554235
1.585923
1.615362
1.6478
1.676489
1.696177
1.701239
1.695989
1.695989
1.673489
1.646863
1.611237
1.56961
1.544297
1.523109
1.518234
1.521984
1.536422
1.536422
1.560235
1.586111
1.620799
1.657363
1.683426
1.701239
1.70874
1.696739
1.696739
1.683614
1.65005
1.614799
1.577673
1.54711
1.525734
1.520109
1.524421
1.537922
1.537922
1.555923
1.582923
1.620237
1.665238
1.671988
1.695052
1.703864
1.701239
1.684176
1.684176
1.660176
1.625487
1.590799
1.558923
1.537172
1.517109
1.521984
1.535859
1.543172
1.543172
1.570173
1.605986
1.637112
1.658676
1.679114
1.680426
1.673489
1.64105
1.616487
1.616487
1.582361
1.539047
1.508859
1.492171
1.48317
1.480358
1.493671
1.516359
1.516359
1.54261
1.585173
1.6298
1.65155
1.666176
1.685301
1.692614
1.671614
1.642925
1.642925
1.606549
1.573735
1.54711
1.532297
1.523484
1.518421
1.529672
1.54636
1.570923
1.570923
1.622862
1.642738
1.670488
1.696364
1.71324
1.71249
1.692614
1.669926
1.630737
1.630737
1.592299
1.567173
1.54936
1.533234
1.536984
1.554798
1.568673
1.594736
1.6343
1.6343
1.665801
1.695802
1.707802
1.721115
1.726178
1.704052
1.675739
1.635612
1.635612
1.599049
1.575423
1.554047
1.545422
1.543922
1.561548
1.574673
1.604299
1.64405
1.64405
1.671239
1.695239
1.716427
1.727303
1.728428
1.71324
1.685489
1.652863
1.616112
1.616112
1.580486
1.549922
1.543735
1.542235
1.562485
1.578986
1.602799
1.63055
1.670676
1.670676
1.701802
1.71999
1.727115
1.739866
1.709677
1.682676
1.64555
1.607299
1.579923
1.579923
1.557797
1.548422
1.539422
1.559485
1.578798
1.599799
1.63655
1.671426
1.671426
1.702552
1.725803
1.741928
1.742116
1.71924
1.682114
1.629237
1.580861
1.552547
1.552547
1.532297
1.521609
1.531734
1.536422
1.539235
1.539235
1.541672
1.528172
1.495171
1.495171
1.46217
1.448857
1.420543
1.372167
1.305602
1.277101
1.265289
1.264539
1.259101
1.259101
1.261351
1.275789
1.461982
1.644988
1.703677
1.688114
1.689614
1.730865
1.862119
1.862119
1.977998
2.094064
2.280632
2.398386
2.405324
2.37851
2.336134
2.305008
2.305008
2.257756
2.247256
2.215943
2.184817
2.172441
2.164379
2.153691
2.150503
2.128565
2.128565
2.108315
2.084689
2.042687
1.981561
1.912371
1.844494
1.769116
1.705739
1.655676
1.655676
1.640863
1.635237
1.63805
1.647988
1.671239
1.695989
1.716427
1.73124
1.745678
1.745678
1.735178
1.71249
1.684926
1.647613
1.602986
1.555547
1.526109
1.504733
1.497421
1.497421
1.492546
1.506796
1.526672
1.56061
1.596424
1.620049
1.639363
1.658676
1.658676
1.657551
1.63955
1.619112
1.585923
1.554235
1.510546
1.485045
1.46817
1.46517
1.46517
1.469295
1.481295
1.503046
1.539797
1.571486
1.595674
1.620612
1.637862
1.63655
1.63655
1.624175
1.606737
1.565298
1.530609
1.49292
1.466107
1.450357
1.443982
1.451482
1.451482
1.467795
1.492733
1.522359
1.552547
1.586861
1.607112
1.628487
1.6298
1.612362
1.612362
1.588361
1.548235
1.519921
1.48467
1.457107
1.440231
1.437044
1.445669
1.46517
1.46517
1.491233
1.516921
1.551422
1.576736
1.601486
1.614987
1.621924
1.611049
1.611049
1.587986
1.55386
1.514296
1.478858
1.45617
1.443982
1.423731
1.435356
1.448857
1.448857
1.470795
1.499108
1.533797
1.561173
1.583673
1.605424
1.608987
1.587986
1.56511
1.56511
1.533422
1.494608
1.454857
1.424856
1.418106
1.403293
1.39748
1.409668
1.424293
1.424293
1.448482
1.492358
1.521046
1.549172
1.566423
1.56211
1.550297
1.530609
1.500046
1.500046
1.455607
1.415293
1.384355
1.364854
1.358292
1.358104
1.367479
1.382855
1.382855
1.408355
1.439669
1.468357
1.48092
1.496483
1.498921
1.483733
1.458982
1.418481
1.418481
1.375542
1.331291
1.307102
1.292289
1.286477
1.286477
1.290039
1.298665
1.314978
1.314978
1.333166
1.356791
1.370292
1.381167
1.384167
1.372729
1.333728
1.304477
1.282164
1.282164
1.269601
1.263789
1.262289
1.261726
1.261913
1.262664
1.264351
1.269601
1.276726
1.276726
1.287789
1.299602
1.309727
1.313102
1.311978
1.298477
1.279539
1.269789
1.269789
1.263414
1.260601
1.258351
1.258538
1.258538
1.260226
1.261351
1.266226
1.272789
1.272789
1.282727
1.296977
1.313665
1.320415
1.316665
1.305602
1.289102
1.275226
1.268289
1.268289
1.264726
1.262851
1.264351
1.266414
1.272976
1.283289
1.306165
1.331478
1.371417
1.371417
1.406293
1.442669
1.46367
1.461982
1.46292
1.433481
1.411356
1.389417
1.367292
1.367292
1.362979
1.365229
1.371417
1.38998
1.415293
1.454294
1.512234
1.548985
1.548985
1.582548
1.609737
1.626425
1.626612
1.617424
1.596049
1.563798
1.530797
1.503983
1.503983
1.490671
1.487858
1.494983
1.514109
1.536234
1.568485
1.609174
1.643488
1.669551
1.669551
1.693552
1.701239
1.698052
1.681364
1.654926
1.624925
1.588361
1.557423
1.546547
1.546547
1.537922
1.539047
1.552547
1.577111
1.605236
1.642175
1.666551
1.698614
1.720927
1.720927
1.730865
1.727115
1.71249
1.687364
1.641613
1.605236
1.580111
1.558923
1.558923
1.545047
1.54936
1.558548
1.572986
1.600174
1.640863
1.665426
1.690177
1.71249
1.71249
1.723365
1.726178
1.71849
1.689052
1.64705
1.607112
1.572235
1.552735
1.54561
1.54561
1.546922
1.56661
1.578236
1.592674
1.636925
1.663176
1.689052
1.705927
1.717177
1.717177
1.718302
1.698989
1.665426
1.623612
1.589111
1.579736
1.533047
1.529859
1.528734
1.528734
1.536234
1.557423
1.580111
1.613674
1.639175
1.678926
1.700864
1.714552
1.702927
1.702927
1.692052
1.668988
1.629237
1.587611
1.551985
1.531734
1.517859
1.513921
1.513921
1.527797
1.549735
1.574111
1.600924
1.634112
1.674614
1.689614
1.698989
1.700114
1.700114
1.681739
1.659238
1.616674
1.582173
1.548422
1.534547
1.507733
1.509796
1.516171
1.516171
1.535859
1.561735
1.589111
1.62605
1.654551
1.681551
1.695239
1.703115
1.676489
1.676489
1.650988
1.617237
1.581611
1.55761
1.528172
1.526109
1.520671
1.532297
1.545235
1.545235
1.56436
1.602611
1.636737
1.673489
1.685489
1.698427
1.699739
1.665426
1.665426
1.672739
1.635237
1.590424
1.55761
1.535859
1.521796
1.523484
1.529297
1.545235
1.545235
1.575986
1.610487
1.6403
1.666738
1.695802
1.711927
1.708552
1.687739
1.669176
1.669176
1.631675
1.592674
1.55761
1.539047
1.527422
1.518609
1.536984
1.537734
1.567735
1.567735
1.606737
1.641425
1.663551
1.689427
1.712302
1.714552
1.694677
1.678926
1.638238
1.638238
1.596799
1.561173
1.537359
1.525921
1.523109
1.535484
1.539235
1.575798
1.575798
1.606924
1.6388
1.65305
1.679676
1.683239
1.682114
1.674801
1.65155
1.610112
1.610112
1.56511
1.533609
1.497608
1.465545
1.482233
1.492546
1.503608
1.521421
1.554798
1.554798
1.606924
1.6328
1.637112
1.668051
1.674051
1.663176
1.647425
1.6268
1.574298
1.574298
1.545235
1.520109
1.505858
1.511296
1.535109
1.56961
1.600174
1.6328
1.666363
1.666363
1.682676
1.706302
1.703115
1.690364
1.669551
1.638238
1.599049
1.575611
1.547297
1.547297
1.531172
1.527047
1.546735
1.554798
1.586486
1.612924
1.645738
1.672364
1.697302
1.697302
1.71774
1.719052
1.70724
1.685864
1.655113
1.613299
1.581236
1.561923
1.542235
1.542235
1.542422
1.542235
1.56061
1.587048
1.617987
1.65305
1.690177
1.712115
1.731428
1.731428
1.73124
1.722803
1.698427
1.665613
1.631487
1.593424
1.560423
1.543922
1.543922
1.545422
1.550485
1.567735
1.590611
1.623612
1.659426
1.688302
1.710427
1.728428
1.728428
1.72824
1.720927
1.705177
1.671614
1.6313
1.591174
1.558548
1.544485
1.54411
1.54411
1.552735
1.574298
1.593611
1.624925
1.658488
1.686614
1.709677
1.72749
1.732365
1.732365
1.728615
1.712865
1.680989
1.633175
1.600549
1.56661
1.542235
1.521234
1.520859
1.520859
1.540359
1.56361
1.592861
1.633175
1.654738
1.653613
1.647988
1.625112
1.625112
1.558173
1.482608
1.390918
1.327353
1.286477
1.267351
1.259476
1.257788
1.258538
1.258538
1.263414
1.261539
1.278039
1.397293
1.685864
1.830618
1.869057
1.809805
1.776054
1.776054
1.784492
1.881057
1.927934
2.041375
2.221005
2.305383
2.318508
2.339696
2.333884
2.333884
2.345884
2.334071
2.363135
2.349072
2.326196
2.306133
2.269944
2.21838
2.164379
2.164379
2.088439
2.018312
1.958872
1.899621
1.842619
1.802868
1.762366
1.740803
1.740803
1.715677
1.721678
1.749241
1.760491
1.770617
1.753179
1.769866
1.758991
1.728803
1.728803
1.690739
1.647238
1.604674
1.577486
1.54636
1.526859
1.528359
1.530984
1.542422
1.542422
1.566798
1.599424
1.628675
1.6448
1.664676
1.667863
1.659988
1.634487
1.604861
1.604861
1.567548
1.520484
1.502108
1.480358
1.473607
1.463107
1.479795
1.500608
1.531734
1.531734
1.563235
1.600549
1.607674
1.630362
1.646863
1.637675
1.612362
1.582361
1.582361
1.543922
1.496858
1.47642
1.458795
1.449232
1.454857
1.469107
1.47642
1.508109
1.508109
1.54186
1.574486
1.602237
1.624925
1.63205
1.628487
1.606737
1.572235
1.533234
1.533234
1.493858
1.464982
1.450732
1.441169
1.449794
1.456544
1.466857
1.498921
1.535484
1.535484
1.567548
1.591361
1.612737
1.618362
1.611799
1.596799
1.56661
1.525359
1.484858
1.484858
1.451107
1.434981
1.426544
1.434981
1.445669
1.46142
1.487295
1.517484
1.517484
1.55311
1.575611
1.600361
1.611049
1.609549
1.590049
1.555923
1.521609
1.47417
1.47417
1.443419
1.425606
1.405918
1.405918
1.419231
1.433106
1.462545
1.490671
1.529484
1.529484
1.547485
1.560985
1.574861
1.568485
1.552172
1.523296
1.473982
1.431981
1.401793
1.401793
1.387167
1.372354
1.368042
1.370104
1.402168
1.418668
1.447919
1.467607
1.495546
1.495546
1.508296
1.513171
1.506234
1.491421
1.446419
1.405355
1.360916
1.329041
1.329041
1.312353
1.303727
1.29904
1.310665
1.304477
1.319103
1.346666
1.363354
1.38548
1.38548
1.40048
1.405168
1.399355
1.37873
1.345729
1.302602
1.281039
1.269789
1.265851
1.265851
1.264164
1.261913
1.263976
1.266789
1.268851
1.275601
1.283289
1.294165
1.29979
1.29979
1.315353
1.318353
1.297915
1.286102
1.272601
1.264539
1.260038
1.258351
1.258163
1.258163
1.258163
1.259288
1.259851
1.262101
1.268101
1.274664
1.284602
1.30129
1.31029
1.31029
1.30954
1.299602
1.289289
1.276914
1.265101
1.261726
1.260976
1.259851
1.259851
1.260976
1.262851
1.266414
1.271664
1.284977
1.307102
1.334291
1.368417
1.401605
1.401605
1.402355
1.405543
1.392792
1.373479
1.343666
1.324728
1.31704
1.31254
1.328665
1.328665
1.331853
1.368229
1.407793
1.444357
1.485045
1.520671
1.550297
1.576361
1.590799
1.590799
1.584423
1.56586
1.537359
1.504733
1.491796
1.464607
1.446419
1.475483
1.483733
1.483733
1.500983
1.538484
1.579548
1.612924
1.651175
1.685114
1.691114
1.694489
1.694489
1.690177
1.672364
1.63055
1.600361
1.563048
1.542235
1.532672
1.534547
1.539984
1.539984
1.56136
1.590799
1.616487
1.656988
1.686802
1.702364
1.718115
1.730303
1.721115
1.721115
1.701239
1.666363
1.623612
1.596236
1.56811
1.558548
1.553297
1.566235
1.581423
1.581423
1.590799
1.63655
1.666363
1.689614
1.719052
1.734428
1.739678
1.705927
1.701614
1.701614
1.672739
1.632237
1.593986
1.569985
1.558173
1.54561
1.550297
1.567735
1.567735
1.595299
1.621924
1.655488
1.688302
1.70874
1.723178
1.72299
1.711927
1.691864
1.691864
1.643488
1.632425
1.590236
1.54786
1.534734
1.520859
1.524984
1.541672
1.564173
1.564173
1.594736
1.63505
1.676864
1.699927
1.714365
1.720552
1.707427
1.686802
1.647988
1.647988
1.611237
1.574111
1.545235
1.533984
1.529109
1.530609
1.549735
1.567735
1.591361
1.591361
1.644238
1.675926
1.687739
1.703115
1.702177
1.691864
1.673489
1.631112
1.631112
1.597549
1.566048
1.53811
1.521421
1.514484
1.524984
1.542797
1.561173
1.590986
1.590986
1.629237
1.655488
1.681364
1.696927
1.701614
1.692239
1.672739
1.6313
1.589111
1.589111
1.554235
1.528922
1.515046
1.506796
1.518234
1.539797
1.564735
1.595674
1.632425
1.632425
1.658676
1.678364
1.702364
1.718302
1.702552
1.677426
1.648363
1.609737
1.570173
1.570173
1.540735
1.536047
1.525734
1.522359
1.55536
1.578611
1.612737
1.635612
1.659801
1.659801
1.693364
1.706115
1.70874
1.704239
1.685301
1.64555
1.617612
1.586673
1.586673
1.554798
1.538297
1.526859
1.534172
1.551047
1.570735
1.601111
1.63355
1.661113
1.661113
1.689614
1.704802
1.708552
1.699552
1.682301
1.65305
1.606362
1.580861
1.55086
1.55086
1.53961
1.537359
1.537359
1.554798
1.574861
1.603924
1.6343
1.661863
1.685676
1.685676
1.711365
1.72374
1.724678
1.710427
1.682676
1.626237
1.586486
1.551985
1.535297
1.535297
1.540172
1.537172
1.551422
1.572986
1.600549
1.636175
1.678739
1.688302
1.688302
1.707615
1.715677
1.71174
1.690364
1.657363
1.616299
1.570735
1.541484
1.522359
1.522359
1.500983
1.506796
1.521421
1.534922
1.558735
1.591549
1.617987
1.6373
1.653988
1.653988
1.660551
1.659988
1.647613
1.619112
1.583486
1.547672
1.515421
1.500233
1.499296
1.499296
1.503983
1.519359
1.540547
1.577111
1.612737
1.649863
1.668426
1.689801
1.699927
1.699927
1.699364
1.689614
1.665613
1.624362
1.590611
1.551797
1.534172
1.525921
1.529109
1.529109
1.541297
1.561548
1.594361
1.629612
1.665988
1.692802
1.714177
1.719427
1.719427
1.720927
1.699552
1.674801
1.632425
1.594361
1.56586
1.545797
1.542235
1.549172
1.549172
1.547485
1.56061
1.593236
1.634487
1.667113
1.695239
1.712677
1.72374
1.719427
1.719427
1.700302
1.670864
1.643113
1.613487
1.590236
1.573548
1.557235
1.551047
1.56211
1.56211
1.590611
1.618549
1.650988
1.680051
1.708927
1.72674
1.744928
1.737803
1.720178
1.720178
1.691489
1.648175
1.611424
1.579361
1.560798
1.551235
1.551422
1.564548
1.564548
1.615174
1.645175
1.678551
1.700864
1.728428
1.746991
1.71549
1.726928
1.700114
1.65155
1.65155
1.611237
1.575798
1.55536
1.551797
1.55161
1.571298
1.589486
1.609362
1.646863
1.646863
1.661863
1.679301
1.683051
1.696927
1.708177
1.686239
1.666551
1.6328
1.571298
1.571298
1.527047
1.47867
1.423731
1.368417
1.331103
1.306727
1.310103
1.311415
1.297352
1.297352
1.303165
1.314603
1.346666
1.319665
1.322665
1.359604
1.528359
1.673489
1.699927
1.699927
1.639738
1.576923
1.597361
1.701989
1.837181
1.971998
2.210317
2.406449
2.406449
2.492326
2.530952
2.54539
2.524015
2.478638
2.426136
2.342696
2.246694
2.186129
2.186129
2.118252
2.060688
2.023749
1.98006
1.960935
1.958685
1.969373
1.964122
1.95531
1.95531
1.945747
1.930559
1.88237
1.830431
1.795367
1.751303
1.695802
1.649113
1.613862
1.613862
1.594174
1.582173
1.583486
1.594736
1.614612
1.6463
1.676301
1.699364
1.711365
1.711365
1.71699
1.698427
1.692614
1.656051
1.617987
1.570923
1.536797
1.505483
1.505483
1.495358
1.486733
1.495546
1.510359
1.536797
1.562485
1.597924
1.623425
1.645925
1.645925
1.660738
1.657551
1.6403
1.616299
1.583111
1.541484
1.505671
1.475108
1.473795
1.473795
1.467982
1.46967
1.47492
1.523859
1.54861
1.579923
1.609549
1.623612
1.641237
1.641237
1.645738
1.627925
1.607862
1.574486
1.536422
1.498171
1.467795
1.456357
1.452607
1.452607
1.459732
1.479233
1.506984
1.539797
1.56961
1.598674
1.617424
1.635612
1.635612
1.635612
1.619487
1.590424
1.558735
1.535297
1.48842
1.455982
1.445107
1.443607
1.443607
1.450544
1.462545
1.486358
1.518234
1.549735
1.585923
1.605611
1.6238
1.615924
1.615924
1.610487
1.590424
1.55536
1.510171
1.47567
1.443232
1.426919
1.429356
1.414918
1.414918
1.440981
1.464982
1.492546
1.528547
1.55386
1.581798
1.590611
1.593611
1.580673
1.580673
1.55761
1.519921
1.481108
1.440231
1.410231
1.394668
1.38623
1.393167
1.393167
1.405168
1.421106
1.447544
1.478483
1.509046
1.526672
1.537734
1.538859
1.522922
1.522922
1.495921
1.454857
1.410418
1.371792
1.344416
1.329228
1.318915
1.320978
1.325665
1.325665
1.338978
1.365229
1.39148
1.415106
1.433669
1.441169
1.443982
1.426544
1.395793
1.395793
1.359416
1.31554
1.289289
1.276164
1.270914
1.267351
1.269039
1.270351
1.272976
1.272976
1.279164
1.291914
1.306915
1.318915
1.328103
1.325478
1.320415
1.295477
1.280102
1.280102
1.270351
1.263226
1.260038
1.258163
1.258538
1.257976
1.258726
1.260226
1.260226
1.262851
1.266601
1.274851
1.282164
1.291539
1.298665
1.293039
1.282352
1.272039
1.272039
1.265289
1.260601
1.258351
1.258163
1.257976
1.258913
1.259101
1.260226
1.267164
1.267164
1.273726
1.287977
1.302415
1.319103
1.327353
1.323603
1.31404
1.300915
1.285914
1.285914
1.277289
1.273164
1.272039
1.273914
1.279352
1.289289
1.307852
1.344791
1.388105
1.388105
1.436669
1.466295
1.497046
1.512984
1.523484
1.508859
1.492358
1.461045
1.461045
1.432919
1.408543
1.399355
1.401043
1.423356
1.438169
1.464232
1.509421
1.553485
1.553485
1.599799
1.626987
1.654738
1.669551
1.668801
1.650988
1.6238
1.592674
1.563235
1.563235
1.533609
1.528172
1.518234
1.528172
1.54786
1.56361
1.597736
1.638425
1.671988
1.671988
1.703115
1.71924
1.731615
1.728803
1.71324
1.679114
1.648175
1.608049
1.578611
1.578611
1.573735
1.554422
1.554798
1.576361
1.589111
1.633737
1.662988
1.694114
1.694114
1.723365
1.742491
1.748116
1.746616
1.718865
1.698052
1.650988
1.615362
1.585173
1.585173
1.561173
1.551235
1.551985
1.572423
1.590799
1.6283
1.656988
1.692052
1.71249
1.71249
1.729178
1.741178
1.73649
1.712677
1.686989
1.648175
1.603362
1.582548
1.559485
1.559485
1.548985
1.555547
1.566048
1.582173
1.608799
1.64405
1.671988
1.698614
1.717177
1.717177
1.73124
1.722428
1.697114
1.662051
1.643113
1.607674
1.567173
1.541672
1.541672
1.535672
1.536984
1.550672
1.572423
1.600361
1.633362
1.661863
1.686989
1.707615
1.707615
1.716615
1.725615
1.695802
1.672926
1.6313
1.595861
1.56511
1.54411
1.529297
1.529297
1.543735
1.55161
1.568673
1.598111
1.631862
1.661301
1.677239
1.708927
1.722428
1.722428
1.712677
1.70499
1.674614
1.633362
1.591924
1.570735
1.530422
1.541297
1.540359
1.540359
1.546172
1.566798
1.588923
1.631862
1.655488
1.673676
1.702552
1.719052
1.722053
1.722053
1.702739
1.672364
1.6373
1.595861
1.56661
1.543922
1.540735
1.539797
1.539797
1.55161
1.572798
1.602799
1.637862
1.669926
1.699552
1.71699
1.72674
1.730115
1.730115
1.71399
1.679864
1.648363
1.608237
1.57336
1.55461
1.540172
1.544485
1.56211
1.56211
1.56811
1.598299
1.635612
1.665426
1.697677
1.71549
1.725053
1.727115
1.713615
1.713615
1.685301
1.647988
1.605986
1.579548
1.557047
1.552547
1.55686
1.556298
1.57261
1.57261
1.601674
1.63655
1.665426
1.693177
1.72449
1.732178
1.731053
1.714927
1.714927
1.695052
1.656613
1.623612
1.580298
1.559485
1.55161
1.550672
1.564735
1.578798
1.578798
1.609924
1.643675
1.676489
1.688864
1.727303
1.73199
1.73049
1.696739
1.696739
1.696739
1.655488
1.617237
1.578798
1.56061
1.539235
1.531172
1.543172
1.56961
1.595299
1.595299
1.631112
1.656426
1.691677
1.712115
1.728803
1.717927
1.702927
1.674051
1.627362
1.627362
1.590049
1.552922
1.505296
1.497046
1.490858
1.511671
1.531359
1.555172
1.555172
1.583111
1.616862
1.651363
1.671988
1.689989
1.690739
1.677989
1.656051
1.631112
1.631112
1.594924
1.559673
1.542797
1.526672
1.528922
1.538672
1.55911
1.587236
1.620612
1.620612
1.658113
1.676489
1.697677
1.717927
1.71699
1.707615
1.688114
1.656426
1.621362
1.621362
1.591924
1.57036
1.55611
1.554422
1.560985
1.579923
1.608049
1.6418
1.674801
1.674801
1.707802
1.731053
1.737803
1.741553
1.730303
1.709115
1.675926
1.631862
1.597361
1.597361
1.577673
1.563048
1.55236
1.575048
1.592674
1.612549
1.648175
1.677989
1.677989
1.71399
1.716802
1.762366
1.753928
1.72299
1.72749
1.684551
1.643863
1.606737
1.606737
1.588173
1.56961
1.559485
1.56736
1.587611
1.610112
1.636175
1.674426
1.704615
1.704615
1.729928
1.752803
1.756366
1.741928
1.721115
1.681551
1.641613
1.610299
1.588173
1.588173
1.574861
1.575798
1.573735
1.587048
1.612924
1.646675
1.683426
1.71774
1.734241
1.734241
1.750366
1.751491
1.747178
1.726365
1.699927
1.662238
1.62755
1.594924
1.594924
1.563048
1.553672
1.56586
1.587236
1.600924
1.646863
1.681176
1.697302
1.697489
1.697489
1.696739
1.656988
1.595861
1.526109
1.446607
1.364667
1.326791
1.290602
1.268664
1.268664
1.266039
1.263039
1.268101
1.30279
1.359979
1.608237
1.866994
1.982123
1.911996
1.911996
1.858369
1.832493
1.827618
1.918371
2.022812
2.20113
2.320758
2.410198
2.410573
2.410573
2.375698
2.325258
2.313258
2.337821
2.342134
2.365572
2.327134
2.256256
2.207505
2.207505
2.145253
2.070063
1.997686
1.923621
1.867557
1.824618
1.774742
1.745678
1.713427
1.713427
1.700302
1.717177
1.738178
1.754866
1.756741
1.775117
1.774554
1.757491
1.73574
1.73574
1.693552
1.6418
1.605611
1.57261
1.56211
1.542422
1.535297
1.54636
1.54636
1.55986
1.582923
1.614799
1.634675
1.653988
1.671801
1.656613
1.687551
1.658676
1.658676
1.625487
1.576923
1.538672
1.503983
1.489545
1.47492
1.46892
1.497983
1.519359
1.519359
1.53961
1.579173
1.607299
1.628487
1.641988
1.654176
1.64705
1.623237
1.602237
1.602237
1.561548
1.508296
1.491045
1.470982
1.465357
1.46142
1.47492
1.494233
1.528547
1.528547
1.562673
1.597736
1.601674
1.654176
1.662426
1.6343
1.621174
1.585548
1.585548
1.547297
1.509609
1.475295
1.46067
1.449232
1.448107
1.46367
1.489545
1.511484
1.511484
1.544672
1.576923
1.590611
1.618924
1.631675
1.62155
1.592486
1.56211
1.538297
1.538297
1.501921
1.472107
1.451857
1.449982
1.434044
1.454482
1.47717
1.507733
1.530422
1.530422
1.559673
1.588548
1.612549
1.627362
1.604299
1.587611
1.554235
1.516546
1.469857
1.469857
1.450357
1.427669
1.422606
1.425231
1.431231
1.443232
1.47192
1.49292
1.537547
1.537547
1.561548
1.57186
1.576173
1.573548
1.549735
1.516359
1.473045
1.432544
1.432544
1.401793
1.380792
1.371417
1.369167
1.375917
1.394105
1.411356
1.444357
1.474358
1.474358
1.502483
1.519359
1.515421
1.511296
1.486733
1.454107
1.407418
1.371417
1.326228
1.326228
1.304477
1.298852
1.292289
1.300727
1.306352
1.31779
1.344979
1.371792
1.383042
1.383042
1.394293
1.40198
1.39748
1.362979
1.338228
1.299415
1.278039
1.269039
1.264164
1.264164
1.263039
1.261913
1.262851
1.265476
1.265476
1.277664
1.287789
1.295665
1.295665
1.306352
1.319103
1.31179
1.293039
1.280102
1.270539
1.263601
1.260038
1.258163
1.258163
1.258351
1.257976
1.258726
1.260413
1.263601
1.267726
1.273351
1.283852
1.294915
1.294915
1.309165
1.309915
1.299977
1.290414
1.272789
1.269414
1.262101
1.260788
1.261163
1.261163
1.261163
1.263976
1.266226
1.272039
1.287602
1.313102
1.343291
1.376292
1.39898
1.39898
1.404793
1.401793
1.38998
1.356041
1.338603
1.323978
1.31179
1.316103
1.316103
1.321915
1.345729
1.370479
1.405918
1.454669
1.499296
1.534359
1.57036
1.598111
1.598111
1.596049
1.587986
1.573923
1.542797
1.510921
1.491796
1.473607
1.468732
1.475483
1.475483
1.504546
1.521796
1.547297
1.589298
1.630175
1.661676
1.692614
1.717177
1.721115
1.721115
1.708927
1.682114
1.647613
1.617049
1.598674
1.574486
1.56361
1.55986
1.577486
1.577486
1.593236
1.609362
1.646675
1.670488
1.718302
1.737053
1.755241
1.762366
1.752428
1.752428
1.732928
1.697677
1.659051
1.622487
1.605424
1.571298
1.598299
1.604674
1.604674
1.613487
1.6343
1.665238
1.697864
1.724678
1.756929
1.752616
1.760679
1.748116
1.748116
1.723365
1.685489
1.649488
1.616862
1.583673
1.56736
1.56286
1.578611
1.596236
1.596236
1.615362
1.654363
1.680614
1.707427
1.73349
1.746616
1.738928
1.73574
1.698989
1.698989
1.651925
1.62155
1.582923
1.561923
1.549547
1.536797
1.549172
1.563985
1.588736
1.588736
1.624549
1.641425
1.698239
1.71549
1.724678
1.726553
1.721678
1.691302
1.691302
1.64555
1.612549
1.581798
1.55386
1.537922
1.538859
1.543172
1.56361
1.582173
1.582173
1.606924
1.645175
1.677051
1.694864
1.715677
1.716615
1.696739
1.678176
1.638425
1.638425
1.600174
1.564173
1.539797
1.531734
1.520296
1.522171
1.544297
1.566423
1.596236
1.596236
1.634487
1.667301
1.689239
1.700677
1.703115
1.678926
1.664676
1.63355
1.609737
1.609737
1.583111
1.550672
1.545422
1.533797
1.538297
1.563235
1.578798
1.608987
1.608987
1.642738
1.684364
1.678176
1.732178
1.730678
1.715115
1.698802
1.665613
1.619299
1.619299
1.593799
1.561735
1.545797
1.546922
1.548235
1.563798
1.588361
1.614987
1.655301
1.655301
1.689052
1.705739
1.718115
1.724678
1.724678
1.71174
1.671801
1.6358
1.599799
1.599799
1.567735
1.555172
1.540735
1.548797
1.57186
1.593236
1.625112
1.662238
1.691302
1.691302
1.71924
1.743616
1.743616
1.72824
1.710427
1.682489
1.637112
1.605049
1.605049
1.580861
1.55461
1.56811
1.565485
1.572986
1.597174
1.626425
1.641237
1.701052
1.701052
1.719052
1.73799
1.746241
1.737803
1.715115
1.679864
1.6478
1.611987
1.578048
1.578048
1.580486
1.56661
1.576361
1.584423
1.610112
1.6403
1.673489
1.699739
1.72299
1.72299
1.741741
1.758429
1.740991
1.728053
1.690739
1.653238
1.617612
1.586111
1.570923
1.570923
1.567173
1.550672
1.572235
1.592861
1.601486
1.668426
1.706865
1.71999
1.744178
1.744178
1.743803
1.747741
1.732553
1.709865
1.671614
1.635425
1.593799
1.575611
1.575611
1.56886
1.572048
1.591924
1.597549
1.636925
1.672551
1.702927
1.72674
1.740991
1.740991
1.752991
1.759929
1.72599
1.704802
1.660363
1.623612
1.598674
1.57111
1.561173
1.561173
1.57036
1.588361
1.601861
1.632425
1.672176
1.711177
1.732365
1.749616
1.751866
1.751866
1.73799
1.70724
1.677426
1.630175
1.588361
1.560423
1.540172
1.513921
1.518234
1.518234
1.535859
1.555547
1.583111
1.615174
1.671239
1.683426
1.695239
1.704427
1.704427
1.702927
1.674239
1.639925
1.605236
1.570173
1.547297
1.533422
1.527234
1.528359
1.528359
1.549922
1.568298
1.597549
1.647613
1.661488
1.693177
1.70499
1.734615
1.73574
1.73574
1.70949
1.693364
1.647238
1.606737
1.587423
1.560423
1.557047
1.556298
1.567548
1.567548
1.584986
1.621924
1.659801
1.691677
1.720552
1.73724
1.748116
1.738741
1.721115
1.721115
1.691677
1.658113
1.611987
1.576173
1.576548
1.558923
1.562298
1.579923
1.579923
1.595486
1.6343
1.668613
1.695239
1.726178
1.749053
1.759929
1.767241
1.735553
1.735553
1.708365
1.676301
1.631487
1.595111
1.584236
1.575986
1.586298
1.595111
1.605799
1.605799
1.628112
1.671051
1.704427
1.726553
1.756741
1.764616
1.755991
1.747928
1.720365
1.720365
1.676489
1.642363
1.607299
1.587423
1.581048
1.567735
1.584423
1.593986
1.616487
1.616487
1.658863
1.697489
1.734991
1.767241
1.753553
1.757866
1.734803
1.701427
1.689052
1.689052
1.634112
1.605424
1.591549
1.575611
1.579173
1.590049
1.594924
1.607862
1.607862
1.634487
1.671051
1.692802
1.718678
1.742303
1.731053
1.689239
1.634675
1.564923
1.564923
1.463107
1.384542
1.316478
1.289852
1.284227
1.274101
1.266789
1.268664
1.275226
1.275226
1.303165
1.314415
1.356041
1.520109
1.79368
1.888933
1.833993
1.741178
1.682489
1.682489
1.650238
1.789742
1.859307
2.015874
2.238818
2.374197
2.412824
2.443762
2.436825
2.436825
2.448637
2.439262
2.426324
2.401761
2.347572
2.266944
2.176566
2.101002
2.101002
2.032562
1.972185
1.911621
1.894933
1.875995
1.858557
1.845244
1.847306
1.845619
1.845619
1.829681
1.835118
1.828368
1.792555
1.756741
1.715115
1.667676
1.620987
1.601299
1.584423
1.584423
1.574673
1.592299
1.597549
1.617237
1.642925
1.669738
1.694864
1.698239
1.712302
1.712302
1.718865
1.687927
1.664113
1.616674
1.572798
1.541672
1.527047
1.496671
1.487295
1.487295
1.503608
1.521609
1.551422
1.578986
1.614424
1.644988
1.667301
1.680426
1.668426
1.668426
1.653425
1.63505
1.594361
1.55611
1.533422
1.497421
1.476045
1.481108
1.481108
1.493483
1.503796
1.513359
1.557985
1.585361
1.627737
1.653988
1.666926
1.674426
1.674426
1.65155
1.623425
1.594361
1.545422
1.530422
1.486733
1.466295
1.48242
1.476233
1.476233
1.510359
1.508859
1.536422
1.595299
1.6223
1.631487
1.64705
1.645363
1.642925
1.642925
1.610487
1.56886
1.55236
1.490671
1.485795
1.47192
1.471732
1.474732
1.484295
1.484295
1.515984
1.547297
1.568298
1.599986
1.6313
1.641613
1.649675
1.651925
1.651925
1.589486
1.578423
1.526109
1.507733
1.451294
1.461982
1.454107
1.444357
1.474545
1.474545
1.486733
1.514859
1.552922
1.583486
1.607299
1.636925
1.617424
1.603549
1.574298
1.574298
1.55461
1.499858
1.467045
1.445107
1.424856
1.407418
1.417918
1.440794
1.448669
1.448669
1.470795
1.508484
1.545797
1.55611
1.583486
1.57111
1.555547
1.542235
1.495733
1.495733
1.455607
1.397855
1.384355
1.372354
1.356041
1.344791
1.369542
1.386605
1.386605
1.40573
1.437419
1.452419
1.48842
1.493858
1.491608
1.469857
1.434231
1.414543
1.414543
1.363729
1.32079
1.300727
1.282727
1.279164
1.286664
1.288539
1.295852
1.311228
1.311228
1.337291
1.355104
1.372729
1.392792
1.384917
1.379105
1.348166
1.31779
1.293414
1.293414
1.277101
1.269414
1.265476
1.264726
1.264539
1.266789
1.270726
1.281039
1.294352
1.294352
1.31554
1.336728
1.349104
1.346854
1.342728
1.324915
1.302602
1.283852
1.283852
1.272226
1.270351
1.265101
1.263789
1.264351
1.267539
1.275226
1.286664
1.306915
1.306915
1.348916
1.352666
1.370479
1.396918
1.39223
1.387917
1.363729
1.31629
1.31554
1.31554
1.301102
1.292289
1.293414
1.301852
1.32004
1.343853
1.393543
1.437231
1.481108
1.481108
1.516171
1.543172
1.560798
1.55686
1.548797
1.517859
1.506608
1.47267
1.449232
1.449232
1.439669
1.446794
1.455794
1.47492
1.510359
1.54861
1.579173
1.627175
1.650988
1.650988
1.667301
1.694489
1.684176
1.675364
1.65005
1.607487
1.577673
1.557423
1.557423
1.54786
1.533234
1.529859
1.556298
1.586861
1.6313
1.652675
1.702552
1.730678
1.730678
1.749616
1.745116
1.756179
1.728803
1.704427
1.664488
1.625675
1.592486
1.579923
1.579923
1.57336
1.57261
1.594174
1.612174
1.643675
1.671614
1.700489
1.743053
1.767054
1.767054
1.772304
1.769491
1.756929
1.71624
1.677239
1.643113
1.608237
1.590049
1.566235
1.566235
1.576923
1.597924
1.605799
1.632237
1.670864
1.696552
1.723553
1.740053
1.740053
1.756741
1.755991
1.730115
1.711552
1.678739
1.6268
1.594549
1.576923
1.566985
1.566985
1.565673
1.583298
1.602611
1.6313
1.659051
1.696552
1.710802
1.738178
1.744741
1.744741
1.742866
1.720178
1.694489
1.657926
1.619487
1.589111
1.570548
1.554235
1.556485
1.556485
1.570173
1.583486
1.607487
1.648738
1.679676
1.70349
1.729365
1.741553
1.735178
1.735178
1.707802
1.684926
1.650613
1.614237
1.583861
1.558173
1.553297
1.54561
1.54561
1.557235
1.571298
1.609737
1.644425
1.666926
1.694302
1.699739
1.73799
1.731053
1.731053
1.710052
1.675176
1.643113
1.616299
1.581611
1.554985
1.540359
1.54261
1.557797
1.557797
1.575798
1.596799
1.641425
1.668426
1.693552
1.723553
1.729553
1.731803
1.722428
1.722428
1.694489
1.649675
1.610112
1.580861
1.559298
1.551235
1.551985
1.563048
1.579736
1.579736
1.605986
1.643863
1.678739
1.712865
1.73724
1.752053
1.741928
1.726365
1.726365
1.693177
1.658863
1.631112
1.592299
1.565673
1.56436
1.557235
1.57336
1.592674
1.592674
1.612549
1.650613
1.680051
1.708365
1.737053
1.757679
1.72674
1.73049
1.699364
1.699364
1.669926
1.6313
1.587423
1.573735
1.572423
1.561735
1.573548
1.594549
1.607487
1.607487
1.642738
1.678926
1.703677
1.737803
1.750928
1.752991
1.738366
1.704239
1.660926
1.660926
1.641988
1.612549
1.584236
1.566423
1.560798
1.575986
1.604861
1.615549
1.656426
1.656426
1.689427
1.70949
1.742116
1.753366
1.761991
1.731053
1.719802
1.688114
1.688114
1.635612
1.609362
1.583486
1.564735
1.56661
1.575048
1.579361
1.615174
1.659801
1.659801
1.687551
1.701802
1.73649
1.755429
1.755241
1.742116
1.721303
1.679301
1.629612
1.629612
1.611799
1.582173
1.578986
1.568298
1.581423
1.591174
1.618737
1.652113
1.683239
1.683239
1.713427
1.737803
1.770429
1.752053
1.738553
1.714365
1.676676
1.63505
1.605799
1.605799
1.577673
1.570735
1.565298
1.56586
1.614987
1.619674
1.652863
1.681739
1.681739
1.718865
1.746616
1.751678
1.752616
1.744366
1.706302
1.684739
1.649675
1.611237
1.611237
1.587236
1.575611
1.554422
1.57336
1.599611
1.618924
1.651925
1.681926
1.707802
1.707802
1.746616
1.763304
1.761429
1.753179
1.73124
1.686614
1.650425
1.617049
1.578423
1.578423
1.56211
1.555923
1.534359
1.563048
1.588361
1.611799
1.633175
1.667863
1.690927
1.690927
1.710052
1.730678
1.689614
1.663551
1.6328
1.596049
1.563048
1.536047
1.536047
1.529109
1.524609
1.523296
1.54861
1.572423
1.604486
1.636362
1.675364
1.690739
1.690739
1.700677
1.738366
1.718678
1.692614
1.654738
1.616112
1.586111
1.564548
1.547297
1.547297
1.550672
1.558923
1.584423
1.605799
1.630925
1.667301
1.704615
1.73049
1.752053
1.752053
1.748116
1.740053
1.712865
1.686802
1.649113
1.618924
1.585173
1.562298
1.563235
1.563235
1.569985
1.582736
1.610674
1.63955
1.676676
1.705364
1.73274
1.750178
1.752991
1.752991
1.752053
1.734053
1.699739
1.663551
1.622862
1.596799
1.578798
1.571486
1.571486
1.572986
1.594549
1.614987
1.64105
1.678364
1.715115
1.73574
1.754491
1.763679
1.763679
1.751491
1.737803
1.70799
1.660363
1.6298
1.584798
1.596236
1.588173
1.593986
1.593986
1.606737
1.629987
1.654926
1.685301
1.721678
1.740241
1.763866
1.765929
1.757491
1.757491
1.737428
1.700489
1.657738
1.624362
1.593986
1.573548
1.579923
1.577673
1.603362
1.603362
1.617987
1.646488
1.674801
1.699927
1.70949
1.715302
1.71099
1.709115
1.709115
1.690364
1.656613
1.623237
1.57111
1.521984
1.465732
1.406293
1.344979
1.312728
1.312728
1.289852
1.290977
1.286102
1.281039
1.292102
1.311228
1.329041
1.309915
1.30129
1.30129
1.325478
1.397668
1.603736
1.692427
1.683989
1.601674
1.632237
1.708177
1.857244
1.857244
1.980998
2.179004
2.39501
2.521389
2.581579
2.593579
2.591892
2.543328
2.475075
2.475075
2.377948
2.275194
2.204317
2.144315
2.089939
2.060126
2.027312
2.014374
2.014374
2.011561
2.015499
2.024312
2.014561
2.000124
1.967498
1.918371
1.868682
1.812805
1.713615
1.713615
1.666551
1.6373
1.615362
1.610862
1.614799
1.627175
1.650238
1.680239
1.713615
1.713615
1.727115
1.734241
1.739491
1.72299
1.701614
1.663926
1.619487
1.576736
1.576736
1.540359
1.519734
1.509984
1.507733
1.527984
1.547485
1.566423
1.604861
1.6298
1.6298
1.650988
1.670676
1.680051
1.674989
1.664113
1.620424
1.581798
1.545797
1.512984
1.512984
1.489545
1.479795
1.477357
1.491233
1.510734
1.537172
1.572423
1.604111
1.6313
1.6313
1.650613
1.659238
1.658113
1.6388
1.609737
1.581236
1.530609
1.503046
1.479233
1.479233
1.467607
1.468545
1.487295
1.494983
1.528172
1.558735
1.593424
1.626425
1.626425
1.646113
1.651738
1.653425
1.6343
1.607112
1.573548
1.535672
1.499108
1.470232
1.470232
1.463295
1.46517
1.479233
1.492358
1.519546
1.55536
1.588736
1.617237
1.63805
1.63805
1.65005
1.64405
1.620987
1.595299
1.554798
1.514109
1.479983
1.457107
1.444919
1.444919
1.446419
1.458982
1.474545
1.505671
1.539797
1.57036
1.591174
1.606924
1.624362
1.624362
1.616862
1.592674
1.562485
1.533047
1.494983
1.455982
1.433669
1.420356
1.420356
1.419043
1.430669
1.438544
1.460857
1.500233
1.528547
1.54186
1.560235
1.574861
1.574861
1.570923
1.54936
1.523859
1.483358
1.434044
1.396918
1.384167
1.360354
1.351166
1.351166
1.361292
1.377042
1.39598
1.415106
1.446232
1.476795
1.481858
1.470232
1.491045
1.491045
1.471545
1.441919
1.396918
1.348166
1.317978
1.296602
1.287977
1.283852
1.284789
1.284789
1.291352
1.297352
1.321165
1.339166
1.353604
1.378355
1.383605
1.379292
1.357541
1.357541
1.333166
1.300165
1.276726
1.269039
1.264539
1.262476
1.262664
1.264351
1.264351
1.264539
1.266789
1.275976
1.287414
1.30204
1.314603
1.322665
1.322665
1.308415
1.308415
1.295852
1.281789
1.272789
1.265664
1.261539
1.260788
1.260976
1.262289
1.264164
1.264164
1.268101
1.275976
1.290789
1.307477
1.321353
1.342916
1.355291
1.348354
1.328665
1.328665
1.303352
1.289102
1.276351
1.271476
1.272601
1.273539
1.280664
1.288914
1.316853
1.316853
1.354729
1.38923
1.431231
1.463857
1.492358
1.505671
1.499858
1.490483
1.490483
1.470795
1.444169
1.419981
1.406668
1.401605
1.413418
1.432544
1.449044
1.484108
1.484108
1.523859
1.582173
1.603549
1.628675
1.652113
1.670676
1.655488
1.639363
1.605611
1.605611
1.580486
1.550672
1.530047
1.526109
1.526859
1.523672
1.551422
1.581048
1.610299
1.610299
1.652113
1.679489
1.70649
1.726178
1.729553
1.71174
1.696364
1.663176
1.633737
1.633737
1.598299
1.56886
1.55686
1.54861
1.563798
1.578423
1.602611
1.640488
1.640488
1.672739
1.704052
1.72824
1.745491
1.745866
1.736678
1.720178
1.682301
1.645363
1.645363
1.611799
1.580673
1.569048
1.560423
1.569423
1.584048
1.607862
1.638238
1.674614
1.674614
1.702927
1.735928
1.750928
1.747928
1.732928
1.712115
1.680801
1.64555
1.601861
1.601861
1.585736
1.569985
1.565298
1.570548
1.589111
1.612362
1.64105
1.678551
1.705364
1.705364
1.727303
1.742866
1.749241
1.739303
1.726928
1.683801
1.645363
1.612549
1.586111
1.586111
1.563235
1.563235
1.574486
1.584048
1.597174
1.641237
1.676676
1.698427
1.698427
1.726178
1.746991
1.752803
1.753741
1.733865
1.686239
1.64705
1.617799
1.584986
1.584986
1.558173
1.557797
1.557797
1.581611
1.605236
1.6298
1.663176
1.692989
1.722615
1.722615
1.737803
1.742866
1.733303
1.722803
1.679114
1.6373
1.603174
1.574298
1.556298
1.556298
1.554798
1.557423
1.575611
1.592674
1.628487
1.658676
1.695989
1.718678
1.735553
1.735553
1.73724
1.732365
1.707615
1.677051
1.644238
1.608424
1.574861
1.564735
1.564735
1.556672
1.557047
1.578236
1.596424
1.619862
1.656988
1.684551
1.72374
1.734053
1.734053
1.739116
1.734053
1.712865
1.676489
1.636925
1.603174
1.576736
1.56436
1.553672
1.553672
1.552922
1.572423
1.590236
1.619862
1.658863
1.681739
1.715865
1.737615
1.743053
1.743053
1.732365
1.716052
1.689614
1.641237
1.607112
1.579173
1.55386
1.548797
1.554798
1.554798
1.570923
1.591924
1.628862
1.659426
1.691489
1.71474
1.737428
1.748116
1.743241
1.743241
1.716427
1.684364
1.647425
1.617799
1.586673
1.567923
1.55461
1.56436
1.56436
1.577486
1.601674
1.628112
1.658488
1.696552
1.723365
1.741366
1.747178
1.740053
1.740053
1.722615
1.693364
1.655676
1.612737
1.586486
1.575236
1.55686
1.560235
1.570173
1.570173
1.581048
1.612924
1.654926
1.691864
1.72149
1.737803
1.749428
1.742678
1.730303
1.730303
1.690927
1.648925
1.611987
1.579173
1.564923
1.55386
1.563048
1.585736
1.596611
1.596611
1.6328
1.662238
1.690739
1.714365
1.742866
1.743616
1.727865
1.706115
1.706115
1.687551
1.642738
1.597549
1.57336
1.536609
1.524234
1.514859
1.534359
1.548422
1.548422
1.561548
1.607862
1.631675
1.653988
1.687176
1.697302
1.694677
1.679114
1.65005
1.65005
1.612924
1.574298
1.551235
1.536047
1.524421
1.528359
1.549922
1.560235
1.590611
1.590611
1.635987
1.665988
1.695427
1.713615
1.728803
1.732365
1.71624
1.684739
1.65305
1.65305
1.608237
1.582548
1.569985
1.555547
1.55386
1.57336
1.587986
1.619674
1.619674
1.652863
1.686051
1.71699
1.738553
1.747178
1.744553
1.727303
1.708365
1.673676
1.673676
1.6268
1.597174
1.578986
1.561923
1.568673
1.581986
1.597924
1.622112
1.656238
1.656238
1.688489
1.727678
1.742678
1.756179
1.758241
1.738178
1.709302
1.680051
1.638238
1.638238
1.610674
1.587048
1.576736
1.576548
1.585736
1.605049
1.6298
1.661488
1.700677
1.700677
1.723178
1.743241
1.755616
1.753928
1.748491
1.717365
1.679864
1.630175
1.630175
1.608049
1.584423
1.574673
1.569798
1.586111
1.603924
1.62155
1.657926
1.691114
1.691114
1.72449
1.747741
1.759554
1.761991
1.739116
1.724303
1.685301
1.636925
1.611424
1.611424
1.591924
1.585361
1.582548
1.588923
1.597924
1.609737
1.645175
1.682114
1.71774
1.71774
1.735178
1.755429
1.753553
1.72749
1.680239
1.630175
1.56361
1.48917
1.420731
1.420731
1.365417
1.321728
1.326978
1.332416
1.320603
1.32004
1.345541
1.360541
1.434981
1.434981
1.528359
1.71774
1.902996
1.975935
1.896995
1.778117
1.719615
1.683801
1.683801
1.746616
1.821806
2.004061
2.183317
2.296757
2.365385
2.386198
2.346634
2.321696
2.321696
2.309883
2.301258
2.268632
2.236943
2.185192
2.103439
2.020562
1.953997
1.899621
1.899621
1.859119
1.853494
1.835868
1.841306
1.856119
1.852182
1.833243
1.823681
1.832493
1.832493
1.818993
1.78618
1.745678
1.697489
1.657176
1.620799
1.593611
1.579361
1.571673
1.571673
1.57186
1.588736
1.610112
1.6283
1.654926
1.676114
1.687176
1.706115
1.706115
1.708552
1.682114
1.661488
1.614987
1.57261
1.546547
1.514296
1.498358
1.494608
1.494608
1.508296
1.517859
1.533984
1.572423
1.604111
1.6343
1.652675
1.671051
1.672364
1.672364
1.657363
1.635612
1.605799
1.560798
1.520671
1.492358
1.471357
1.478108
1.495733
1.507546
1.507546
1.542797
1.577861
1.616487
1.629237
1.654551
1.655113
1.640863
1.617612
1.581798
1.581798
1.549547
1.507171
1.481108
1.462545
1.46217
1.470795
1.483358
1.494608
1.494608
1.534922
1.56436
1.597361
1.623237
1.645925
1.642363
1.6283
1.608424
1.571486
1.571486
1.529297
1.501733
1.476233
1.460857
1.458795
1.45992
1.46517
1.488608
1.520671
1.520671
1.55386
1.589298
1.609924
1.629425
1.632987
1.619112
1.590799
1.553297
1.524609
1.524609
1.484108
1.454482
1.431794
1.424293
1.431606
1.444544
1.46892
1.496858
1.525547
1.525547
1.554798
1.581986
1.607487
1.598111
1.588923
1.570923
1.533609
1.491045
1.458607
1.458607
1.422793
1.408168
1.398605
1.401418
1.417356
1.427106
1.459545
1.490108
1.490108
1.519359
1.539235
1.548797
1.549922
1.535297
1.511671
1.472295
1.433481
1.386042
1.386042
1.362792
1.345916
1.334291
1.331853
1.341228
1.349854
1.373667
1.408918
1.431606
1.431606
1.444544
1.455982
1.45992
1.444732
1.425981
1.37873
1.338978
1.30504
1.283289
1.283289
1.277476
1.274289
1.272601
1.274664
1.277289
1.283289
1.30204
1.31929
1.334103
1.334103
1.349666
1.353416
1.342916
1.321165
1.295665
1.276726
1.266226
1.262289
1.262289
1.260413
1.260038
1.260976
1.262101
1.263789
1.267914
1.273539
1.282352
1.300727
1.300727
1.311603
1.312728
1.308415
1.298477
1.283289
1.271101
1.264351
1.261351
1.261351
1.261351
1.259851
1.260038
1.262476
1.265476
1.271664
1.284039
1.30954
1.327916
1.355479
1.355479
1.370292
1.369917
1.360916
1.339916
1.321728
1.301665
1.290227
1.287039
1.291352
1.291352
1.293602
1.309915
1.336728
1.371417
1.416606
1.457107
1.496671
1.532484
1.532484
1.549547
1.557985
1.540922
1.517484
1.497046
1.46442
1.442107
1.438169
1.441356
1.441356
1.446419
1.469857
1.495733
1.526109
1.574298
1.618924
1.647425
1.674989
1.686239
1.686239
1.685489
1.681176
1.651925
1.620424
1.587236
1.557047
1.54486
1.535297
1.539984
1.539984
1.555923
1.577861
1.606174
1.652675
1.687364
1.71324
1.732178
1.741553
1.742491
1.742491
1.72749
1.699927
1.662801
1.625487
1.604111
1.584611
1.568673
1.576736
1.576736
1.600736
1.611612
1.641237
1.680801
1.71324
1.73574
1.751303
1.756554
1.763491
1.763491
1.743053
1.715865
1.684551
1.63805
1.605799
1.587611
1.575236
1.576736
1.593236
1.593236
1.605611
1.6358
1.667676
1.698614
1.723178
1.746053
1.758991
1.755991
1.736303
1.736303
1.704052
1.666926
1.625862
1.593424
1.576736
1.56061
1.559298
1.576173
1.594361
1.594361
1.618174
1.658113
1.687551
1.713427
1.733303
1.740053
1.73799
1.718115
1.688302
1.688302
1.6478
1.611987
1.578423
1.549735
1.538297
1.533422
1.548985
1.563235
1.563235
1.584986
1.620987
1.656238
1.682301
1.706677
1.724303
1.721115
1.701239
1.675551
1.675551
1.639925
1.595299
1.566235
1.535297
1.520109
1.521984
1.541672
1.54636
1.577673
1.577673
1.609924
1.6418
1.668238
1.690739
1.706302
1.707052
1.687364
1.666176
1.6268
1.6268
1.583111
1.548797
1.525734
1.515234
1.515796
1.524609
1.539797
1.565673
1.604861
1.604861
1.645363
1.670114
1.692614
1.701052
1.705177
1.689427
1.663176
1.623425
1.623425
1.589861
1.561923
1.538297
1.527047
1.527609
1.536609
1.548797
1.570548
1.615549
1.615549
1.646863
1.680989
1.691864
1.711365
1.705927
1.690364
1.675551
1.637675
1.600361
1.600361
1.56136
1.538859
1.530234
1.529859
1.535109
1.562298
1.577298
1.620987
1.656801
1.656801
1.682676
1.704239
1.72149
1.727115
1.708177
1.687551
1.650613
1.612174
1.573735
1.573735
1.545985
1.531172
1.531734
1.537922
1.55386
1.577111
1.611612
1.656613
1.689239
1.689239
1.704052
1.726178
1.727115
1.706115
1.684176
1.642363
1.605799
1.573923
1.573923
1.55161
1.53961
1.536047
1.545047
1.55986
1.582923
1.615549
1.653425
1.688114
1.688114
1.703864
1.715115
1.713427
1.692989
1.674614
1.633925
1.597361
1.560798
1.534922
1.534922
1.515796
1.513359
1.519171
1.524796
1.543172
1.568298
1.608612
1.636925
1.660551
1.660551
1.677426
1.681739
1.668051
1.643863
1.608799
1.567735
1.536047
1.518796
1.505858
1.505858
1.508484
1.514859
1.536234
1.562298
1.598299
1.6283
1.662238
1.687927
1.687927
1.71174
1.71699
1.705364
1.683426
1.647988
1.611612
1.575423
1.551422
1.538484
1.538484
1.534547
1.543547
1.565485
1.594174
1.62905
1.665238
1.692052
1.711177
1.728053
1.728053
1.739116
1.724678
1.704427
1.664676
1.626237
1.594736
1.569235
1.554985
1.553297
1.553297
1.555923
1.577298
1.595299
1.6313
1.669551
1.694864
1.721303
1.733865
1.738366
1.738366
1.726365
1.70649
1.675926
1.636737
1.605236
1.576173
1.561923
1.55986
1.55986
1.564923
1.583111
1.601299
1.632987
1.670301
1.704802
1.725428
1.746616
1.750554
1.750554
1.739678
1.712865
1.677426
1.635425
1.599236
1.574111
1.552735
1.551422
1.562298
1.562298
1.576361
1.597361
1.629425
1.662801
1.689427
1.72674
1.742866
1.741366
1.737615
1.737615
1.716802
1.679114
1.643488
1.611049
1.583111
1.569798
1.56886
1.575048
1.596986
1.596986
1.616112
1.650238
1.675551
1.690927
1.71849
1.734991
1.742116
1.73724
1.724303
1.724303
1.682489
1.62605
1.577486
1.530422
1.458795
1.39748
1.346666
1.326041
1.326041
1.318353
1.32229
1.31254
1.313102
1.315915
1.333541
1.344979
1.375729
1.469857
1.469857
1.694489
1.808118
1.762929
1.669926
1.619112
1.596986
1.659238
1.750366
1.910871
1.910871
2.126878
2.29807
2.363322
2.370447
2.337446
2.29807
2.285695
2.258694
2.206192
2.206192
2.164566
2.107752
2.027499
1.969748
1.938622
1.903371
1.88912
1.878807
1.88162
1.88162
1.898308
1.912371
1.898308
1.884807
1.852369
1.823493
1.790492
1.744178
1.744178
1.683426
1.637862
1.606362
1.590424
1.575986
1.576361
1.585361
1.596986
1.617987
1.617987
1.647425
1.675739
1.695052
1.711552
1.711552
1.697302
1.670864
1.6418
1.589674
1.589674
1.552735
1.526109
1.510359
1.503608
1.501733
1.507171
1.527609
1.552735
1.585923
1.585923
1.62605
1.640675
1.662426
1.670676
1.662238
1.6373
1.608049
1.565298
1.530234
1.530234
1.506234
1.487295
1.464045
1.463482
1.487295
1.503796
1.525547
1.563798
1.563798
1.591924
1.620424
1.640863
1.65005
1.64405
1.630362
1.595111
1.55236
1.519546
1.519546
1.48542
1.46667
1.458982
1.463482
1.477357
1.496108
1.526484
1.55986
1.590236
1.590236
1.616674
1.635612
1.637487
1.640675
1.623425
1.590236
1.547672
1.509609
1.478295
1.478295
1.462545
1.452419
1.452982
1.46667
1.481858
1.507546
1.543172
1.576923
1.594736
1.594736
1.616299
1.6268
1.6298
1.607862
1.580486
1.540735
1.499296
1.470232
1.470232
1.451857
1.442669
1.439669
1.457107
1.476233
1.495546
1.525921
1.560048
1.586861
1.586861
1.605049
1.620987
1.618924
1.583673
1.557235
1.524047
1.485608
1.449044
1.427669
1.427669
1.414731
1.413793
1.439669
1.459169
1.495358
1.527609
1.550485
1.568298
1.578611
1.578611
1.575986
1.55536
1.521421
1.483358
1.442669
1.411731
1.39148
1.377229
1.370854
1.370854
1.379292
1.38998
1.410418
1.445482
1.469295
1.490108
1.503796
1.508671
1.500233
1.500233
1.475483
1.448857
1.404793
1.359604
1.326791
1.306165
1.292102
1.291539
1.293789
1.293789
1.299977
1.315915
1.342916
1.355854
1.389792
1.400668
1.406855
1.39973
1.380417
1.380417
1.354541
1.320228
1.290977
1.273539
1.267914
1.264914
1.264164
1.266601
1.269789
1.269789
1.274476
1.286477
1.30279
1.322853
1.345541
1.356979
1.357166
1.342541
1.342541
1.321728
1.293977
1.280477
1.269226
1.265101
1.264914
1.264539
1.266226
1.269601
1.269601
1.275601
1.290227
1.307665
1.331666
1.354541
1.375729
1.375729
1.368042
1.357541
1.357541
1.334103
1.312165
1.29529
1.284227
1.288539
1.289102
1.306352
1.318915
1.350791
1.350791
1.396543
1.439481
1.473795
1.505671
1.533797
1.55536
1.539235
1.523296
1.501358
1.501358
1.46967
1.445857
1.428981
1.425981
1.428794
1.446044
1.471732
1.500608
1.500608
1.541672
1.578236
1.615549
1.644988
1.667488
1.683426
1.670301
1.6418
1.607487
1.607487
1.574111
1.54486
1.527047
1.513921
1.516359
1.530234
1.542422
1.578236
1.619487
1.619487
1.661676
1.676676
1.702552
1.716052
1.72749
1.720178
1.700302
1.658301
1.617237
1.617237
1.589674
1.567173
1.551235
1.543547
1.573173
1.580861
1.609174
1.646113
1.678176
1.678176
1.705739
1.728053
1.743053
1.746241
1.736678
1.710802
1.679114
1.639925
1.639925
1.606362
1.579548
1.56811
1.567548
1.56736
1.582736
1.610299
1.645363
1.686614
1.686614
1.709302
1.724303
1.746428
1.752428
1.735178
1.706677
1.674614
1.635425
1.595674
1.595674
1.583861
1.567923
1.568673
1.564735
1.575236
1.597174
1.632425
1.674051
1.700489
1.700489
1.719615
1.734053
1.743053
1.731428
1.702552
1.667113
1.625112
1.584798
1.556298
1.556298
1.54261
1.533797
1.542047
1.55911
1.576361
1.605986
1.645363
1.681551
1.681551
1.697677
1.717365
1.72224
1.71474
1.693739
1.658676
1.62155
1.571298
1.54561
1.54561
1.535297
1.533797
1.529672
1.550297
1.566423
1.606924
1.63205
1.665426
1.689614
1.689614
1.711552
1.710427
1.703302
1.675926
1.639175
1.599049
1.560048
1.535484
1.518234
1.518234
1.526484
1.515984
1.538297
1.557797
1.590799
1.62755
1.662613
1.684739
1.701239
1.701239
1.709677
1.700489
1.680051
1.64405
1.608424
1.574861
1.54786
1.533797
1.533797
1.525172
1.527797
1.539235
1.561173
1.592299
1.626612
1.665801
1.686989
1.71024
1.71024
1.725615
1.711365
1.680989
1.649863
1.620237
1.587611
1.56661
1.534547
1.521234
1.521234
1.536422
1.55386
1.574111
1.608049
1.645925
1.679676
1.700864
1.718678
1.727865
1.727865
1.723365
1.702364
1.665988
1.629237
1.597361
1.552172
1.548985
1.542985
1.543922
1.543922
1.563048
1.579923
1.610299
1.6493
1.681739
1.697864
1.725428
1.73049
1.73049
1.724303
1.706302
1.666926
1.6328
1.594361
1.566985
1.54561
1.542422
1.549172
1.549172
1.563423
1.575986
1.607862
1.6418
1.670488
1.701052
1.724865
1.73574
1.729553
1.729553
1.709865
1.679301
1.634862
1.599986
1.56961
1.56136
1.55086
1.55011
1.570735
1.570735
1.584798
1.612362
1.649863
1.683426
1.713802
1.726365
1.737053
1.73124
1.71099
1.71099
1.678739
1.641425
1.605424
1.57261
1.561173
1.548422
1.548985
1.56811
1.589674
1.589674
1.610299
1.651925
1.687176
1.703864
1.725428
1.739678
1.731053
1.705364
1.705364
1.680801
1.645738
1.608237
1.575798
1.559298
1.548422
1.553485
1.564548
1.581423
1.581423
1.593986
1.620424
1.662426
1.685676
1.703302
1.701239
1.701427
1.680426
1.647425
1.647425
1.602799
1.56136
1.533234
1.513171
1.506608
1.503983
1.523109
1.545047
1.569985
1.569985
1.599611
1.632612
1.662613
1.691302
1.703302
1.701989
1.684176
1.656801
1.614612
1.614612
1.579361
1.559673
1.536234
1.529859
1.537359
1.55461
1.578423
1.597924
1.597924
1.638613
1.675926
1.700489
1.725803
1.743428
1.728053
1.706677
1.681176
1.649488
1.649488
1.617049
1.583111
1.569048
1.557985
1.551985
1.56736
1.584048
1.609549
1.656988
1.656988
1.689239
1.709865
1.73574
1.748303
1.751491
1.730678
1.70349
1.664488
1.62905
1.62905
1.594924
1.576548
1.565485
1.565298
1.573173
1.596611
1.613299
1.662051
1.701614
1.701614
1.73124
1.747553
1.761991
1.759929
1.738366
1.70499
1.677614
1.637112
1.600924
1.600924
1.581423
1.57036
1.581986
1.584236
1.602799
1.623987
1.664863
1.704427
1.704427
1.717177
1.742116
1.757491
1.757491
1.73799
1.709115
1.669363
1.634675
1.597174
1.597174
1.579361
1.553672
1.578611
1.589674
1.602237
1.623987
1.654176
1.683239
1.720927
1.720927
1.753366
1.763304
1.763304
1.762741
1.740053
1.688489
1.618924
1.591549
1.566423
1.566423
1.542797
1.554798
1.578986
1.606924
1.605236
1.610112
1.618362
1.585923
1.528172
1.528172
1.45617
1.441544
1.384542
1.319665
1.269414
1.259663
1.256663
1.257413
1.257413
1.255726
1.256663
1.264164
1.421293
1.649113
1.741928
1.71849
1.716802
1.718678
1.718678
1.813555
1.922684
1.979123
2.157629
2.303695
2.305008
2.278007
2.252506
2.231506
2.231506
2.193254
2.184442
2.178816
2.155753
2.148253
2.157441
2.145066
2.13644
2.134003
2.134003
2.081688
2.04325
2.016062
1.952684
1.871495
1.80193
1.759741
1.70724
1.671239
1.671239
1.658863
1.672739
1.691489
1.706115
1.741928
1.752991
1.763679
1.783929
1.783929
1.783554
1.758991
1.73724
1.679301
1.655113
1.603174
1.56136
1.533047
1.521796
1.521796
1.53961
1.542422
1.564548
1.598486
1.628112
1.656801
1.671239
1.688302
1.70349
1.70349
1.673676
1.653613
1.617612
1.574673
1.550672
1.521046
1.514484
1.496671
1.508859
1.508859
1.526672
1.543922
1.570548
1.608049
1.6358
1.658863
1.675176
1.672739
1.667113
1.667113
1.641237
1.594549
1.56061
1.538672
1.495733
1.486545
1.47867
1.491421
1.491421
1.511671
1.531922
1.563423
1.599424
1.63205
1.64255
1.657926
1.659988
1.655301
1.655301
1.639175
1.593986
1.55386
1.518421
1.497608
1.473232
1.473795
1.47642
1.501171
1.501171
1.525172
1.563423
1.581611
1.604486
1.631112
1.650238
1.654926
1.65005
1.6268
1.6268
1.591361
1.545235
1.519546
1.494233
1.487858
1.489545
1.470045
1.487108
1.522922
1.522922
1.557797
1.586298
1.611612
1.629987
1.658863
1.656051
1.641237
1.615362
1.587986
1.587986
1.554047
1.504171
1.489733
1.47942
1.454669
1.46667
1.479795
1.499108
1.499108
1.545047
1.56586
1.596799
1.615924
1.6328
1.640675
1.62905
1.589674
1.55461
1.55461
1.524984
1.478858
1.444732
1.428419
1.423168
1.424293
1.438731
1.45617
1.48767
1.48767
1.521984
1.544672
1.566798
1.582361
1.588736
1.576736
1.55461
1.506046
1.465357
1.465357
1.431044
1.391667
1.374417
1.359792
1.361854
1.370104
1.39298
1.413981
1.440794
1.48842
1.48842
1.491983
1.505296
1.485233
1.45992
1.415106
1.365229
1.331291
1.301477
1.290227
1.290227
1.286477
1.283289
1.289852
1.295665
1.306915
1.333541
1.366542
1.378167
1.378167
1.397105
1.40198
1.389042
1.371979
1.328853
1.30054
1.281602
1.272601
1.268476
1.268476
1.268289
1.266789
1.270539
1.274289
1.284414
1.304852
1.326416
1.356229
1.381355
1.381355
1.390355
1.371042
1.349291
1.326791
1.297352
1.281789
1.267914
1.271851
1.270351
1.270351
1.273539
1.278602
1.287227
1.303165
1.342541
1.372917
1.410981
1.448669
1.458607
1.458607
1.471545
1.45617
1.437981
1.397293
1.380605
1.360729
1.353416
1.354166
1.354166
1.359792
1.394105
1.421106
1.462732
1.510359
1.546735
1.576736
1.600924
1.617987
1.617987
1.615737
1.611612
1.598674
1.556485
1.528359
1.507921
1.495733
1.48467
1.501171
1.501171
1.517296
1.540547
1.577298
1.623425
1.659801
1.688676
1.70499
1.725615
1.717927
1.717927
1.701427
1.667863
1.6358
1.601299
1.569798
1.544485
1.540172
1.544672
1.560235
1.560235
1.588173
1.616112
1.654551
1.683614
1.70949
1.736678
1.747366
1.747178
1.747178
1.727115
1.697864
1.659801
1.612737
1.584423
1.571298
1.561173
1.568485
1.596424
1.596424
1.595861
1.629612
1.653425
1.690927
1.72449
1.749991
1.745491
1.754866
1.737615
1.737615
1.695427
1.676864
1.627925
1.594924
1.580486
1.573735
1.575048
1.584048
1.605424
1.605424
1.630175
1.665988
1.701614
1.723178
1.747928
1.759741
1.756366
1.739303
1.70799
1.70799
1.667863
1.629425
1.602986
1.583673
1.569235
1.558173
1.581236
1.593799
1.625675
1.625675
1.658676
1.694677
1.72299
1.743991
1.757116
1.755804
1.72899
1.70349
1.70349
1.669176
1.624925
1.600549
1.56436
1.561735
1.564923
1.572423
1.593799
1.621362
1.621362
1.64855
1.677614
1.713615
1.728428
1.742491
1.746241
1.728053
1.698052
1.651363
1.651363
1.614237
1.582736
1.562485
1.550672
1.554235
1.56361
1.586298
1.609924
1.650613
1.650613
1.685489
1.707615
1.73349
1.750178
1.741928
1.721865
1.701802
1.659426
1.623237
1.623237
1.590236
1.562673
1.550485
1.551047
1.572798
1.579173
1.608799
1.638425
1.638425
1.670301
1.702552
1.726178
1.739116
1.740053
1.722053
1.691677
1.65005
1.613862
1.613862
1.590424
1.571673
1.55386
1.546172
1.564923
1.581423
1.606924
1.6418
1.685301
1.685301
1.693552
1.728803
1.741928
1.746241
1.72449
1.70499
1.664301
1.613862
1.586486
1.586486
1.578236
1.556298
1.552172
1.560235
1.583111
1.605611
1.637487
1.671988
1.701614
1.701614
1.722053
1.740428
1.741741
1.722428
1.70649
1.668426
1.620424
1.597361
1.597361
1.577861
1.563985
1.56136
1.571486
1.587236
1.619862
1.64405
1.679489
1.712115
1.712115
1.734053
1.749991
1.756554
1.728803
1.710802
1.672926
1.633925
1.594736
1.577298
1.577298
1.559485
1.557235
1.564548
1.577861
1.610299
1.6418
1.673301
1.702364
1.725615
1.725615
1.742678
1.746616
1.733678
1.712677
1.682114
1.637862
1.595861
1.57336
1.55761
1.55761
1.556298
1.569048
1.586673
1.614612
1.644425
1.678551
1.709302
1.734803
1.734803
1.745303
1.754304
1.736303
1.709865
1.668801
1.625862
1.599611
1.574861
1.560048
1.560048
1.555735
1.572986
1.579548
1.598861
1.644613
1.678739
1.703864
1.729928
1.746803
1.746803
1.745303
1.729365
1.71174
1.677051
1.632425
1.597549
1.574861
1.561548
1.56211
1.56211
1.57336
1.583111
1.604674
1.642175
1.675551
1.698427
1.737053
1.750554
1.743803
1.743803
1.734615
1.713802
1.676114
1.635612
1.607862
1.580861
1.56136
1.562673
1.566423
1.566423
1.576361
1.602986
1.6403
1.673489
1.702364
1.724303
1.744178
1.748116
1.748116
1.734991
1.711365
1.674801
1.641425
1.602799
1.579736
1.568673
1.56061
1.56436
1.56436
1.579923
1.602237
1.638988
1.674051
1.702552
1.723178
1.743428
1.744553
1.729928
1.729928
1.706115
1.677614
1.6448
1.608612
1.583861
1.566798
1.55986
1.560798
1.585173
1.585173
1.604299
1.638613
1.670864
1.701052
1.724678
1.744553
1.745303
1.737428
1.711177
1.711177
1.680989
1.64255
1.607112
1.576361
1.554047
1.538672
1.540172
1.557985
1.557985
1.575423
1.604486
1.633175
1.660738
1.684739
1.711552
1.707802
1.697864
1.675926
1.675926
1.636737
1.601861
1.56811
1.541297
1.521046
1.517671
1.516921
1.54336
1.55761
1.55761
1.587236
1.624362
1.656988
1.676114
1.705552
1.720927
1.71324
1.693552
1.662238
1.662238
1.618737
1.582361
1.555172
1.550672
1.55011
1.55686
1.569235
1.593611
1.629612
1.629612
1.665051
1.697677
1.71924
1.73274
1.743428
1.735553
1.719427
1.690364
1.690364
1.654551
1.620424
1.590049
1.567173
1.55761
1.560048
1.583486
1.601861
1.631862
1.631862
1.669551
1.697864
1.721115
1.739866
1.749241
1.746991
1.727115
1.695239
1.658113
1.658113
1.624549
1.598111
1.579548
1.575048
1.579548
1.596236
1.612549
1.643488
1.679489
1.679489
1.710615
1.734803
1.756554
1.766117
1.758054
1.741366
1.70799
1.670301
1.63055
1.63055
1.601674
1.581798
1.575611
1.577298
1.591924
1.605986
1.640112
1.675176
1.706865
1.706865
1.735365
1.762179
1.767241
1.758054
1.735365
1.703302
1.664301
1.6298
1.6298
1.599424
1.577486
1.578611
1.576923
1.591924
1.607862
1.639738
1.678551
1.718115
1.718115
1.730115
1.757304
1.750554
1.734241
1.705552
1.668801
1.629612
1.596049
1.569985
1.569985
1.551235
1.537547
1.518796
1.484858
1.447919
1.412481
1.383417
1.352479
1.349104
1.349104
1.317603
1.291727
1.284977
1.283852
1.276351
1.263976
1.260976
1.261726
1.295102
1.295102
1.499296
1.602424
1.621362
1.590611
1.631675
1.716052
1.87037
1.96731
1.96731
2.147128
2.333884
2.431762
2.458387
2.455013
2.385448
2.325071
2.272194
2.206192
2.206192
2.12444
2.086564
2.076438
2.052438
2.057688
2.055438
2.056563
2.069876
2.062001
2.062001
2.045875
2.006686
1.96206
1.904871
1.833618
1.760491
1.704052
1.672364
1.654363
1.654363
1.635987
1.644613
1.6493
1.673489
1.704239
1.735365
1.756929
1.776992
1.777554
1.777554
1.771929
1.742491
1.709677
1.662426
1.618362
1.577673
1.544672
1.536422
1.536422
1.536234
1.53811
1.55611
1.580486
1.616862
1.649488
1.668801
1.690927
1.697677
1.697677
1.698052
1.675551
1.6508
1.614237
1.571673
1.536984
1.509796
1.498546
1.501546
1.501546
1.518046
1.536609
1.556672
1.594361
1.633362
1.661676
1.677239
1.682301
1.686051
1.686051
1.668051
1.643113
1.602611
1.554985
1.528922
1.505858
1.493108
1.492546
1.499108
1.499108
1.515796
1.545985
1.583861
1.614799
1.642363
1.662613
1.680801
1.672176
1.658301
1.658301
1.628112
1.599424
1.558173
1.520296
1.497233
1.48767
1.487858
1.500233
1.500233
1.520859
1.544485
1.579548
1.611237
1.6388
1.658676
1.666738
1.661488
1.654363
1.654363
1.6253
1.581048
1.546172
1.511296
1.486358
1.471357
1.466295
1.480733
1.503796
1.503796
1.522359
1.564173
1.591549
1.622487
1.644425
1.654176
1.6403
1.611424
1.570735
1.570735
1.531172
1.493858
1.472107
1.461045
1.453544
1.468732
1.473982
1.498171
1.530797
1.530797
1.557797
1.585548
1.605986
1.615362
1.616112
1.596424
1.573548
1.534922
1.492733
1.492733
1.452419
1.426919
1.411918
1.40348
1.405543
1.423168
1.445857
1.47867
1.503796
1.503796
1.525359
1.542797
1.551985
1.548047
1.530984
1.490671
1.461795
1.414356
1.372167
1.372167
1.346291
1.327165
1.32004
1.328103
1.336353
1.348916
1.377417
1.407605
1.407605
1.425231
1.439106
1.448294
1.444357
1.425043
1.395605
1.352479
1.310665
1.287977
1.287977
1.278602
1.272976
1.272039
1.272601
1.274289
1.279914
1.289289
1.309352
1.334103
1.334103
1.357729
1.371229
1.369354
1.354354
1.330916
1.29904
1.283477
1.271101
1.265664
1.265664
1.263226
1.263976
1.264726
1.267351
1.270539
1.281602
1.297915
1.316853
1.316853
1.342353
1.352479
1.356229
1.352104
1.334103
1.304477
1.284977
1.273914
1.268664
1.268664
1.268664
1.270351
1.274664
1.281602
1.294915
1.326228
1.364667
1.401793
1.437044
1.437044
1.466295
1.48542
1.47192
1.465357
1.437419
1.408543
1.386042
1.372167
1.365229
1.365229
1.367479
1.387167
1.414168
1.441544
1.490483
1.524047
1.567735
1.596799
1.621737
1.621737
1.640112
1.640488
1.620424
1.591736
1.561923
1.535109
1.515234
1.506046
1.503608
1.503608
1.512609
1.535672
1.563423
1.597174
1.636175
1.674051
1.697489
1.720365
1.720365
1.724678
1.717177
1.697114
1.667113
1.629612
1.594361
1.56511
1.548235
1.546172
1.546172
1.555172
1.572986
1.592861
1.627925
1.666926
1.697489
1.717552
1.743428
1.749428
1.749428
1.744553
1.72074
1.686614
1.649113
1.615737
1.582736
1.567173
1.56061
1.563985
1.563985
1.578986
1.603174
1.638425
1.671239
1.704239
1.72599
1.749241
1.756554
1.749428
1.749428
1.72674
1.688676
1.6478
1.608049
1.586111
1.562298
1.566985
1.57261
1.57261
1.590611
1.612174
1.639363
1.674051
1.707427
1.734428
1.751866
1.752616
1.746053
1.746053
1.732178
1.700677
1.655863
1.618362
1.588548
1.57336
1.566235
1.574673
1.593799
1.593799
1.610299
1.645175
1.681739
1.719615
1.740428
1.760491
1.755616
1.750741
1.729928
1.729928
1.699552
1.657551
1.613112
1.585173
1.577861
1.578423
1.576361
1.595674
1.612737
1.612737
1.632987
1.669176
1.707052
1.725615
1.746616
1.748491
1.742116
1.728803
1.728803
1.703677
1.660176
1.615737
1.592861
1.574861
1.567923
1.566423
1.582361
1.600736
1.600736
1.62605
1.667301
1.696927
1.721865
1.748116
1.746053
1.739303
1.72374
1.698427
1.698427
1.659051
1.616674
1.580861
1.565485
1.563235
1.566048
1.582736
1.588736
1.613299
1.613299
1.653613
1.696739
1.717552
1.738741
1.748116
1.747553
1.728428
1.688302
1.642925
1.642925
1.614237
1.576736
1.560798
1.548797
1.551985
1.55161
1.588173
1.6283
1.6283
1.649863
1.664488
1.730115
1.737615
1.743241
1.742491
1.716615
1.689239
1.660176
1.660176
1.611612
1.579173
1.557985
1.550672
1.545047
1.565485
1.586111
1.612362
1.6508
1.6508
1.683614
1.707615
1.730303
1.749053
1.742678
1.71624
1.686427
1.651363
1.618549
1.618549
1.587986
1.562673
1.548797
1.553672
1.566798
1.592861
1.614424
1.655301
1.695052
1.695052
1.721303
1.736303
1.746991
1.742678
1.723365
1.696927
1.653988
1.616112
1.589298
1.589298
1.56736
1.556672
1.558173
1.568673
1.592111
1.611237
1.659801
1.699364
1.699364
1.711177
1.728803
1.740991
1.740053
1.726178
1.697864
1.656613
1.615924
1.587236
1.587236
1.566798
1.55761
1.557985
1.569048
1.583486
1.617424
1.653238
1.685114
1.698614
1.698614
1.724678
1.743991
1.747928
1.723178
1.694114
1.657738
1.619112
1.590986
1.572986
1.572986
1.554422
1.550672
1.575798
1.585736
1.617049
1.665988
1.686614
1.716615
1.738741
1.738741
1.741366
1.741178
1.734428
1.702927
1.668238
1.620424
1.593799
1.57261
1.57261
1.560423
1.55911
1.567923
1.583111
1.620987
1.660176
1.692614
1.727678
1.727303
1.727303
1.745116
1.741741
1.723553
1.698427
1.658676
1.625862
1.590611
1.56811
1.555923
1.555923
1.556672
1.568485
1.587986
1.617987
1.641613
1.678176
1.70724
1.737803
1.759366
1.759366
1.743428
1.728615
1.692989
1.662801
1.631862
1.596236
1.576923
1.558923
1.55761
1.55761
1.565485
1.581798
1.605236
1.627175
1.660738
1.690739
1.71174
1.72824
1.72824
1.72599
1.706302
1.665988
1.618924
1.593049
1.558173
1.528547
1.510171
1.514296
1.514296
1.525359
1.541297
1.563423
1.599236
1.631862
1.655113
1.677989
1.698802
1.71174
1.71174
1.684551
1.658863
1.625862
1.593236
1.56511
1.537359
1.525172
1.525359
1.536422
1.536422
1.552547
1.582173
1.626612
1.666738
1.700114
1.722615
1.745678
1.741553
1.736303
1.736303
1.706302
1.672551
1.630737
1.593424
1.565673
1.55461
1.562485
1.567173
1.573173
1.573173
1.600361
1.645738
1.678551
1.710052
1.730115
1.731615
1.758429
1.740991
1.740991
1.722053
1.675551
1.650613
1.615362
1.584986
1.574861
1.577673
1.571486
1.583861
1.583861
1.613487
1.656613
1.689801
1.714552
1.738928
1.761054
1.753366
1.742491
1.723365
1.723365
1.699552
1.659426
1.619112
1.591361
1.576736
1.573548
1.578798
1.592111
1.620799
1.620799
1.64855
1.686051
1.715677
1.738741
1.754866
1.753179
1.745303
1.724303
1.683426
1.683426
1.649675
1.616112
1.591924
1.588173
1.57111
1.574673
1.591549
1.62155
1.62155
1.655676
1.691489
1.724865
1.746053
1.759929
1.761804
1.749053
1.729553
1.698802
1.698802
1.663363
1.631862
1.600361
1.566235
1.55686
1.558735
1.576923
1.599049
1.640488
1.640488
1.692239
1.715302
1.709677
1.710615
1.682301
1.616674
1.526484
1.420543
1.360541
1.360541
1.299602
1.271476
1.260226
1.258163
1.258163
1.261351
1.261539
1.272226
1.361854
1.361854
1.665426
1.841306
1.865869
1.811118
1.791992
1.738366
1.797992
1.852369
1.852369
1.924934
2.096689
2.222318
2.238631
2.251194
2.211067
2.217818
2.242568
2.252881
2.252881
2.272194
2.283632
2.254756
2.213505
2.172254
2.125565
2.061063
1.978935
1.915558
1.915558
1.881057
1.836431
1.79818
1.771554
1.764804
1.747553
1.740428
1.756741
1.778304
1.778304
1.781492
1.806618
1.801367
1.771179
1.741366
1.701989
1.676114
1.632237
1.590049
1.590049
1.578798
1.565673
1.556672
1.56886
1.581798
1.598674
1.632612
1.662051
1.679864
1.679864
1.697489
1.700864
1.689614
1.665238
1.641237
1.593986
1.552172
1.530797
1.530797
1.515421
1.516546
1.511859
1.519359
1.544672
1.570173
1.608612
1.63055
1.672364
1.672364
1.677614
1.680801
1.677426
1.657738
1.616487
1.574486
1.535859
1.508671
1.480358
1.480358
1.48317
1.485795
1.501358
1.524609
1.546172
1.599799
1.619299
1.643113
1.654738
1.654738
1.662426
1.659426
1.642175
1.606174
1.573548
1.525172
1.488608
1.479608
1.471357
1.471357
1.478108
1.494608
1.512234
1.545422
1.591174
1.618549
1.641988
1.658676
1.658676
1.659613
1.654926
1.645175
1.546922
1.534547
1.506421
1.494796
1.477357
1.485983
1.500796
1.500796
1.511296
1.539422
1.572235
1.600924
1.624737
1.64705
1.665801
1.652488
1.629237
1.629237
1.601111
1.570548
1.529484
1.500046
1.47792
1.469482
1.47867
1.472482
1.491608
1.491608
1.529109
1.563423
1.590986
1.617987
1.641988
1.645175
1.639925
1.617237
1.596049
1.596049
1.557985
1.515609
1.479608
1.458795
1.456357
1.448294
1.464045
1.481295
1.508109
1.508109
1.545985
1.564923
1.594924
1.611237
1.614799
1.614237
1.608237
1.568485
1.568485
1.522171
1.476233
1.455982
1.426731
1.415856
1.40948
1.419606
1.426356
1.448294
1.448294
1.495733
1.508296
1.530609
1.551047
1.565298
1.553485
1.514859
1.482983
1.438544
1.438544
1.388667
1.349479
1.339353
1.320228
1.322478
1.32079
1.334853
1.352479
1.381542
1.381542
1.409668
1.429919
1.442482
1.453919
1.447169
1.417918
1.38023
1.338416
1.307477
1.307477
1.289664
1.278227
1.274851
1.274851
1.278414
1.284414
1.298102
1.320978
1.320978
1.341041
1.370854
1.387917
1.394668
1.397293
1.378167
1.349291
1.316478
1.296414
1.296414
1.281602
1.276726
1.270726
1.271664
1.276351
1.280852
1.295477
1.327165
1.350041
1.350041
1.383792
1.411356
1.434606
1.444169
1.425981
1.415293
1.382292
1.356416
1.341228
1.341228
1.326041
1.325665
1.332041
1.353416
1.38623
1.40948
1.455794
1.503233
1.544485
1.544485
1.569048
1.590799
1.594174
1.599049
1.577111
1.54561
1.516734
1.495733
1.495733
1.48167
1.479045
1.470607
1.493296
1.523484
1.548797
1.584236
1.622487
1.662238
1.662238
1.690927
1.701239
1.713615
1.700302
1.673489
1.647425
1.610487
1.581236
1.565298
1.565298
1.53811
1.541109
1.558173
1.581048
1.605236
1.639925
1.682301
1.71024
1.739303
1.739303
1.750366
1.744178
1.738741
1.71399
1.683614
1.6388
1.615549
1.589298
1.577861
1.577861
1.578048
1.579548
1.605236
1.624175
1.669176
1.697864
1.731615
1.758429
1.758429
1.770804
1.772867
1.762179
1.731428
1.695239
1.654738
1.6283
1.597924
1.595674
1.595674
1.580861
1.596611
1.612174
1.63505
1.668426
1.699552
1.73049
1.767991
1.790305
1.790305
1.778679
1.763491
1.741178
1.697489
1.658301
1.62155
1.604674
1.592486
1.577486
1.577486
1.578986
1.608049
1.642925
1.680801
1.693177
1.738741
1.760679
1.763116
1.759554
1.759554
1.753179
1.736678
1.694864
1.657551
1.616299
1.588923
1.564735
1.569985
1.569985
1.591736
1.605799
1.606549
1.634675
1.703115
1.713615
1.744741
1.761616
1.758991
1.758991
1.750928
1.718115
1.680989
1.642925
1.624925
1.584048
1.558173
1.56586
1.579736
1.579736
1.57336
1.608237
1.654926
1.666363
1.705927
1.731053
1.749616
1.757491
1.739116
1.739116
1.713615
1.674801
1.645175
1.601861
1.579173
1.557985
1.55386
1.556672
1.584236
1.584236
1.605611
1.6388
1.675551
1.705927
1.722053
1.743428
1.755429
1.744928
1.720178
1.720178
1.680989
1.638613
1.607299
1.576923
1.572235
1.569235
1.573548
1.588736
1.588736
1.604674
1.643488
1.679114
1.707427
1.720552
1.741366
1.739678
1.742303
1.730115
1.730115
1.676489
1.632987
1.588736
1.607299
1.574673
1.57261
1.584798
1.587799
1.616299
1.616299
1.638425
1.680051
1.709677
1.720927
1.73649
1.756366
1.744741
1.725615
1.691114
1.691114
1.653238
1.6268
1.599424
1.575611
1.560235
1.586298
1.591549
1.606924
1.655863
1.655863
1.683051
1.72074
1.746991
1.767617
1.766866
1.736303
1.725428
1.70799
1.70799
1.661676
1.625675
1.599611
1.581048
1.558923
1.574673
1.582736
1.620987
1.656801
1.656801
1.676114
1.714927
1.744928
1.756554
1.772117
1.769491
1.741741
1.70949
1.662613
1.662613
1.62755
1.586111
1.574298
1.579736
1.585173
1.596611
1.634112
1.655488
1.671051
1.671051
1.708552
1.73049
1.758616
1.771742
1.753553
1.746053
1.709302
1.669926
1.641237
1.641237
1.611424
1.581423
1.581798
1.581048
1.592299
1.615174
1.647238
1.678926
1.678926
1.707615
1.747366
1.761804
1.771554
1.766866
1.758616
1.710802
1.668801
1.6448
1.6448
1.606362
1.600361
1.582736
1.583861
1.589111
1.617612
1.635987
1.669738
1.687927
1.687927
1.755054
1.767991
1.763866
1.761804
1.751116
1.720365
1.693177
1.654363
1.604111
1.604111
1.583861
1.577486
1.576548
1.585361
1.597174
1.6253
1.671239
1.692052
1.706677
1.706677
1.722428
1.746428
1.746428
1.740616
1.703302
1.666551
1.619299
1.603736
1.571673
1.571673
1.574111
1.579923
1.574111
1.594174
1.611049
1.642175
1.694114
1.723553
1.723553
1.751678
1.773242
1.759554
1.738741
1.704427
1.676864
1.637862
1.603924
1.592674
1.592674
1.591736
1.581236
1.602611
1.611799
1.645363
1.689052
1.704427
1.737615
1.761054
1.761054
1.763679
1.765366
1.737053
1.705552
1.668238
1.638238
1.594736
1.584986
1.549922
1.549922
1.569985
1.584798
1.601486
1.633925
1.668613
1.709677
1.745866
1.761991
1.772304
1.772304
1.779992
1.758804
1.740616
1.693552
1.646488
1.605799
1.582923
1.582548
1.582548
1.538297
1.56511
1.614987
1.637862
1.691489
1.70874
1.730865
1.732928
1.759179
1.759179
1.769679
1.759179
1.736678
1.695614
1.625487
1.589111
1.588548
1.571486
1.569048
1.569048
1.552172
1.570548
1.602237
1.649675
1.674989
1.723365
1.739116
1.747741
1.748116
1.748116
1.725803
1.689239
1.647238
1.620987
1.588736
1.563235
1.545235
1.546735
1.549922
1.549922
1.567923
1.603174
1.616112
1.653238
1.700114
1.73199
1.731803
1.750554
1.750554
1.720178
1.701239
1.668051
1.621362
1.586111
1.577111
1.55911
1.577861
1.595111
1.595111
1.621362
1.658301
1.697864
1.715677
1.761804
1.769116
1.768366
1.767804
1.745491
1.745491
1.723553
1.695052
1.660926
1.6388
1.602611
1.589674
1.597736
1.584423
1.595486
1.595486
1.62905
1.672176
1.711365
1.738178
1.752616
1.779242
1.789367
1.777179
1.758991
1.758991
1.718678
1.680801
1.6463
1.622675
1.610862
1.604299
1.611799
1.605611
1.634487
1.634487
1.681739
1.706302
1.73649
1.762179
1.782242
1.79143
1.758991
1.746428
1.746428
1.710427
1.671426
1.647238
1.628487
1.596611
1.591924
1.620799
1.629237
1.655113
1.655113
1.715677
1.710052
1.739116
1.764241
1.771929
1.775867
1.757679
1.760866
1.742116
1.742116
1.699927
1.660551
1.622487
1.593611
1.594549
1.600924
1.636925
1.646488
1.680801
1.680801
1.711927
1.747741
1.774929
1.781117
1.778867
1.756366
1.717552
1.681176
1.656426
1.656426
1.618924
1.603924
1.600549
1.604299
1.594549
1.590424
1.555923
1.528547
1.528547
1.507546
1.439856
1.383605
1.335791
1.292852
1.271664
1.260788
1.257788
1.255351
1.255351
1.254038
1.254413
1.256101
1.282914
1.465732
1.610862
1.621924
1.637487
1.705552
1.705552
1.80943
1.964872
2.011749
2.135503
2.310258
2.402886
2.461013
2.424636
2.347947
2.347947
2.332384
2.275194
2.229818
2.188942
2.20113
2.173004
2.180317
2.156691
2.157629
2.157629
2.150316
2.135878
2.101377
2.071938
2.012499
1.951184
1.89287
1.803992
1.728053
1.728053
1.721115
1.710615
1.708552
1.714552
1.725428
1.744553
1.780929
1.79593
1.797617
1.797617
1.812805
1.792555
1.770054
1.727865
1.671051
1.636362
1.601674
1.582548
1.575423
1.575423
1.594549
1.591361
1.602049
1.64105
1.682676
1.708365
1.702927
1.71324
1.71324
1.720178
1.707427
1.689427
1.668613
1.617612
1.548797
1.530984
1.517484
1.524421
1.524421
1.521046
1.555547
1.588173
1.603549
1.639175
1.658113
1.681551
1.71549
1.726365
1.726365
1.71399
1.687364
1.657363
1.629612
1.590986
1.544672
1.536984
1.530984
1.524609
1.524609
1.540735
1.545797
1.593799
1.629425
1.671614
1.695427
1.708177
1.729178
1.714365
1.714365
1.668988
1.639925
1.596611
1.557985
1.544485
1.519359
1.515609
1.525359
1.525359
1.548047
1.564173
1.588923
1.619862
1.645363
1.679676
1.71324
1.721865
1.693177
1.693177
1.679489
1.645738
1.608612
1.56286
1.551797
1.535859
1.526109
1.528172
1.540735
1.540735
1.57111
1.601861
1.634487
1.663363
1.685864
1.706865
1.700489
1.695989
1.681551
1.681551
1.642738
1.608799
1.575423
1.540735
1.527984
1.517484
1.515421
1.542235
1.564735
1.564735
1.592674
1.639925
1.664301
1.688489
1.709865
1.72524
1.702177
1.648925
1.599049
1.599049
1.581611
1.572423
1.534922
1.525172
1.509796
1.513359
1.525921
1.552735
1.552735
1.572798
1.594924
1.626425
1.655488
1.681176
1.682301
1.666926
1.652863
1.611799
1.611799
1.561923
1.534922
1.488608
1.468545
1.47642
1.461982
1.480545
1.513546
1.522922
1.522922
1.54786
1.578986
1.617799
1.623987
1.639175
1.6448
1.612549
1.556672
1.472295
1.472295
1.448857
1.416231
1.412106
1.39523
1.378917
1.375917
1.388667
1.423543
1.470795
1.470795
1.495921
1.527984
1.54261
1.548797
1.54186
1.522922
1.495546
1.449607
1.449607
1.407043
1.388667
1.356229
1.341416
1.336728
1.347791
1.339166
1.358292
1.418293
1.418293
1.463857
1.475857
1.458045
1.496858
1.517296
1.483545
1.443232
1.408543
1.368042
1.368042
1.335978
1.310665
1.307852
1.311228
1.326603
1.343104
1.363917
1.392605
1.441919
1.441919
1.488233
1.533047
1.53961
1.548797
1.516171
1.504171
1.465732
1.439856
1.412106
1.412106
1.386417
1.379855
1.40498
1.437231
1.451857
1.492358
1.549922
1.587611
1.587611
1.639925
1.645738
1.655113
1.667113
1.645738
1.608424
1.585736
1.56136
1.542047
1.542047
1.538859
1.524609
1.515796
1.538859
1.569798
1.611612
1.650238
1.682676
1.713052
1.713052
1.750928
1.756366
1.758804
1.751866
1.71024
1.668988
1.640675
1.608237
1.580861
1.580861
1.578986
1.581048
1.608424
1.626987
1.655676
1.689239
1.70349
1.71324
1.756741
1.756741
1.765554
1.777929
1.756366
1.722803
1.698614
1.667676
1.630362
1.602237
1.57036
1.57036
1.596049
1.616862
1.642738
1.64855
1.683801
1.735928
1.744928
1.780367
1.780367
1.79143
1.790117
1.766491
1.71774
1.695052
1.655301
1.629987
1.609924
1.589861
1.589861
1.592674
1.618549
1.624549
1.6343
1.679489
1.72374
1.753366
1.775117
1.806993
1.806993
1.782054
1.779054
1.775867
1.709302
1.677989
1.653425
1.618549
1.599986
1.600174
1.600174
1.622862
1.639175
1.678551
1.711177
1.729553
1.747553
1.779429
1.804555
1.784492
1.784492
1.756179
1.756929
1.699552
1.637487
1.636925
1.635987
1.615924
1.620799
1.620799
1.624925
1.642738
1.662238
1.685489
1.712302
1.741178
1.758991
1.780742
1.794242
1.794242
1.785992
1.743241
1.674239
1.64855
1.659988
1.62605
1.605049
1.596799
1.598486
1.598486
1.616487
1.675926
1.718678
1.726178
1.758991
1.766679
1.803243
1.770054
1.757679
1.757679
1.740428
1.71924
1.680426
1.637112
1.610112
1.590986
1.579548
1.575611
1.601299
1.601299
1.649675
1.685676
1.724115
1.762366
1.778679
1.770992
1.776992
1.758429
1.735178
1.735178
1.696552
1.668988
1.630362
1.594174
1.574298
1.561923
1.569985
1.595674
1.595674
1.616487
1.660738
1.693364
1.737053
1.753366
1.771367
1.774554
1.770429
1.740803
1.740803
1.700864
1.640112
1.625675
1.607487
1.579548
1.571486
1.569048
1.594361
1.625487
1.625487
1.673489
1.71399
1.734428
1.743053
1.785054
1.777554
1.752616
1.73799
1.70949
1.70949
1.671426
1.63805
1.620237
1.602611
1.599049
1.545047
1.584611
1.635425
1.659801
1.659801
1.717552
1.750928
1.791617
1.80493
1.856119
1.81543
1.782617
1.799867
1.799867
1.690177
1.654738
1.570923
1.557047
1.56211
1.56436
1.584798
1.622487
1.661301
1.661301
1.685676
1.713802
1.757116
1.789367
1.778679
1.784117
1.755054
1.620049
1.655113
1.655113
1.6418
1.585736
1.597549
1.609549
1.601861
1.605986
1.637112
1.710615
1.720552
1.720552
1.722428
1.72074
1.764616
1.776992
1.777742
1.777179
1.700489
1.675926
1.6493
1.6493
1.646863
1.641988
1.6298
1.669363
1.692239
1.688114
1.682864
1.724303
1.724303
1.72749
1.784492
1.79143
1.771742
1.759554
1.731428
1.691302
1.665051
1.627737
1.627737
1.609737
1.597924
1.577486
1.578236
1.596986
1.613674
1.62155
1.666926
1.714365
1.714365
1.727115
1.751303
1.759366
1.744928
1.737428
1.699552
1.660738
1.636737
1.621362
1.621362
1.585361
1.577111
1.593049
1.573923
1.579923
1.635237
1.697302
1.686239
1.722053
1.722053
1.753366
1.759929
1.722803
1.692802
1.680801
1.661488
1.632612
1.563985
1.56736
1.56736
1.55761
1.520671
1.536047
1.585736
1.638425
1.665426
1.674051
1.693177
1.693177
1.710052
1.709302
1.766117
1.767429
1.716052
1.676676
1.659426
1.622112
1.598299
1.598299
1.572423
1.584048
1.626425
1.643488
1.612737
1.673114
1.671051
1.726928
1.72149
1.72149
1.721678
1.702739
1.689052
1.6448
1.599236
1.550485
1.533984
1.530047
1.521234
1.521234
1.540172
1.558548
1.582923
1.598111
1.638425
1.669176
1.679301
1.712865
1.733303
1.733303
1.746991
1.724678
1.695052
1.705177
1.590799
1.554047
1.501733
1.546922
1.546922
1.535109
1.540922
1.543547
1.562673
1.617237
1.653988
1.685864
1.703677
1.711365
1.711365
1.737428
1.72749
1.687927
1.638238
1.581611
1.583673
1.537359
1.514859
1.518421
1.518421
1.545422
1.552735
1.54636
1.596986
1.610487
1.642175
1.64255
1.648175
1.663551
1.663551
1.6538
1.6298
1.596049
1.549922
1.525547
1.523484
1.494421
1.472857
1.477733
1.477733
1.476795
1.513359
1.596424
1.617237
1.62605
1.684739
1.698239
1.692239
1.692239
1.673114
1.636175
1.594361
1.56211
1.537922
1.525172
1.521984
1.507359
1.529672
1.529672
1.537547
1.557797
1.589298
1.614424
1.664676
1.701989
1.696552
1.672176
1.712677
1.712677
1.687551
1.586298
1.603736
1.56211
1.537359
1.537359
1.540172
1.527234
1.578423
1.578423
1.593611
1.596049
1.658488
1.691114
1.745678
1.762554
1.697114
1.672739
1.671614
1.671614
1.626237
1.594736
1.562485
1.579548
1.598486
1.533234
1.533422
1.574673
1.574673
1.601674
1.63055
1.673489
1.713427
1.727115
1.726365
1.72524
1.71849
1.672551
1.672551
1.651925
1.567548
1.560985
1.496858
1.563798
1.554798
1.53961
1.593799
1.614424
1.668613
1.668613
1.695239
1.725803
1.73349
1.71549
1.670114
1.676114
1.619487
1.574111
1.566985
1.566985
1.554235
1.528547
1.524234
1.535297
1.570173
1.590049
1.6538
1.680614
1.695989
1.695989
1.712677
1.781867
1.733115
1.726178
1.72599
1.700489
1.653238
1.604111
1.565673
1.565673
1.572048
1.545047
1.476045
1.46292
1.422981
1.442669
1.427669
1.431419
1.39598
1.39598
1.354354
1.30054
1.281414
1.302227
1.291727
1.39523
1.584986
1.6463
1.6463
1.6223
1.561735
1.534922
1.520296
1.609737
1.70649
1.899995
2.089751
2.205442
2.205442
2.237881
2.230193
2.165879
2.101189
2.040437
2.017187
2.001811
2.005936
1.977248
1.977248
1.924559
1.893995
1.909746
1.917434
1.888558
1.899621
1.920434
1.915934
1.929621
1.929621
1.903183
1.857807
1.80193
1.764054
1.716802
1.666176
1.629425
1.605611
1.593424
1.593424
1.588361
1.623987
1.615549
1.6538
1.668801
1.703864
1.710615
1.722428
1.722428
1.705364
1.682864
1.680801
1.631487
1.599986
1.56886
1.559485
1.521421
1.518421
1.518421
1.521421
1.526672
1.533797
1.571298
1.616674
1.638425
1.6508
1.659426
1.678926
1.678926
1.656426
1.661863
1.625112
1.565298
1.535484
1.534359
1.483358
1.501546
1.496858
1.496858
1.515234
1.547672
1.57261
1.601299
1.640488
1.652863
1.679864
1.713615
1.657738
1.657738
1.660551
1.610674
1.574861
1.536609
1.534547
1.523484
1.48542
1.501171
1.501171
1.510546
1.526859
1.55536
1.586673
1.635612
1.626425
1.650613
1.661676
1.656988
1.656988
1.630925
1.604486
1.55836
1.487858
1.47417
1.467232
1.490858
1.476795
1.479608
1.479608
1.506234
1.525734
1.560985
1.597361
1.624175
1.648925
1.653425
1.646113
1.636362
1.636362
1.611799
1.562485
1.497233
1.47717
1.47192
1.454482
1.470795
1.491796
1.509984
1.509984
1.512046
1.582173
1.618924
1.638425
1.669363
1.652113
1.677801
1.665988
1.580673
1.580673
1.55761
1.532484
1.491983
1.461795
1.447357
1.449982
1.474358
1.501358
1.501358
1.527047
1.566235
1.582173
1.619487
1.664676
1.659801
1.651738
1.633737
1.576361
1.576361
1.524796
1.48467
1.453732
1.448857
1.442107
1.441356
1.454669
1.47492
1.500608
1.500608
1.538672
1.551985
1.581423
1.603549
1.600736
1.600549
1.573548
1.523672
1.48842
1.48842
1.458607
1.418668
1.399168
1.389042
1.387542
1.399355
1.383042
1.426169
1.464232
1.464232
1.47567
1.503983
1.508671
1.517859
1.506984
1.486733
1.454669
1.394855
1.394855
1.375167
1.346666
1.321165
1.310103
1.308415
1.31179
1.32079
1.357541
1.388292
1.388292
1.398043
1.416793
1.441731
1.452044
1.451857
1.430294
1.399168
1.362792
1.344229
1.344229
1.326978
1.302602
1.285539
1.295665
1.297165
1.300727
1.321165
1.356041
1.392792
1.392792
1.410231
1.411168
1.435544
1.436106
1.432356
1.399168
1.362417
1.346291
1.298102
1.298102
1.299415
1.29904
1.312165
1.325478
1.31854
1.350791
1.381355
1.423543
1.423543
1.472107
1.503046
1.524796
1.531359
1.521046
1.493296
1.480733
1.439481
1.420543
1.420543
1.423356
1.430106
1.438169
1.450919
1.479795
1.523109
1.553485
1.568485
1.63955
1.63955
1.639925
1.666363
1.672176
1.641988
1.619299
1.594736
1.576173
1.543735
1.540735
1.540735
1.541672
1.525172
1.559485
1.564548
1.602237
1.6313
1.644613
1.675364
1.721115
1.721115
1.734803
1.725428
1.706115
1.678739
1.653988
1.627737
1.605236
1.583861
1.583861
1.585548
1.582173
1.583298
1.606549
1.652488
1.685864
1.707427
1.733678
1.747928
1.747928
1.759554
1.761804
1.72974
1.707052
1.665988
1.646863
1.607299
1.593611
1.602049
1.602049
1.586861
1.601299
1.6283
1.653238
1.671801
1.703115
1.730303
1.743616
1.766866
1.766866
1.757679
1.742866
1.714552
1.705739
1.653988
1.617424
1.596611
1.591924
1.609174
1.609174
1.629425
1.638425
1.661113
1.691114
1.701989
1.715115
1.750178
1.767241
1.761991
1.761991
1.743803
1.70799
1.679114
1.659238
1.657738
1.617987
1.595299
1.589861
1.589861
1.638613
1.609549
1.627737
1.674989
1.693927
1.709302
1.726928
1.746241
1.745678
1.745678
1.729365
1.70649
1.677614
1.643488
1.618174
1.612549
1.597924
1.582361
1.580111
1.580111
1.583673
1.609737
1.649488
1.674426
1.692614
1.70949
1.739116
1.740428
1.715115
1.715115
1.691489
1.653613
1.609549
1.588173
1.572048
1.552172
1.547672
1.57111
1.583486
1.583486
1.596986
1.631487
1.662238
1.684364
1.712677
1.714552
1.701989
1.695802
1.695802
1.677989
1.634487
1.607862
1.586673
1.55686
1.556485
1.555172
1.562485
1.575423
1.575423
1.603924
1.6478
1.659426
1.689614
1.710615
1.72224
1.722803
1.710802
1.678364
1.678364
1.653238
1.6223
1.599236
1.575423
1.574486
1.576923
1.576548
1.590049
1.612549
1.612549
1.648925
1.688864
1.697677
1.714552
1.726365
1.729178
1.731428
1.710052
1.668426
1.668426
1.626987
1.598861
1.580486
1.572798
1.56961
1.574298
1.599986
1.628862
1.651363
1.651363
1.675176
1.692802
1.704802
1.727865
1.729178
1.708177
1.698239
1.669926
1.669926
1.620799
1.592111
1.564173
1.56361
1.572235
1.594736
1.601674
1.617612
1.645363
1.645363
1.678176
1.703677
1.72674
1.739303
1.73649
1.730865
1.723365
1.680426
1.650425
1.650425
1.621362
1.602611
1.586298
1.578611
1.587986
1.605424
1.638988
1.671801
1.698614
1.698614
1.742303
1.754491
1.762366
1.761054
1.730303
1.707427
1.677614
1.633362
1.612924
1.612924
1.599424
1.573923
1.576548
1.585548
1.599611
1.613674
1.654551
1.680051
1.680051
1.709865
1.73199
1.755804
1.752991
1.747178
1.730678
1.684176
1.651738
1.616112
1.616112
1.593049
1.586673
1.579361
1.590049
1.607487
1.6283
1.651175
1.684551
1.714552
1.714552
1.723553
1.734053
1.740803
1.727115
1.710052
1.687551
1.664113
1.636175
1.612362
1.612362
1.605611
1.594174
1.600924
1.618549
1.62755
1.654738
1.698614
1.71624
1.744178
1.744178
1.752241
1.756366
1.756366
1.729178
1.687176
1.645175
1.623612
1.601111
1.601111
1.584048
1.584611
1.576923
1.593986
1.606924
1.615549
1.637112
1.667113
1.689427
1.689427
1.701614
1.703864
1.695052
1.675551
1.646675
1.605986
1.574673
1.565673
1.552922
1.552922
1.549922
1.558735
1.567923
1.580861
1.606737
1.6493
1.679301
1.705927
1.72524
1.72524
1.727303
1.72599
1.726928
1.696177
1.657363
1.638613
1.626987
1.591174
1.591924
1.591924
1.587799
1.601111
1.62605
1.639175
1.674426
1.701427
1.743991
1.746991
1.739116
1.739116
1.73199
1.715865
1.695989
1.659426
1.625862
1.596799
1.595299
1.591736
1.591736
1.598674
1.606549
1.620049
1.656238
1.686802
1.713802
1.740053
1.763491
1.766679
1.766679
1.754491
1.732365
1.71174
1.680989
1.647613
1.621737
1.601111
1.598486
1.603174
1.603174
1.611237
1.63205
1.659988
1.691302
1.727678
1.739116
1.763679
1.777929
1.774367
1.774367
1.753741
1.723365
1.695614
1.665426
1.62905
1.606174
1.617799
1.608799
1.603362
1.603362
1.625487
1.689427
1.712865
1.73649
1.764054
1.768929
1.771554
1.740991
1.718302
1.718302
1.691677
1.663363
1.634862
1.615174
1.610112
1.617424
1.636362
1.6538
1.677051
1.677051
1.695427
1.716427
1.736115
1.772304
1.776804
1.780367
1.770804
1.742866
1.71099
1.71099
1.6538
1.602049
1.530984
1.460107
1.40348
1.361292
1.350229
1.323603
1.29904
1.29904
1.300352
1.291352
1.297915
1.305977
1.30429
1.332041
1.497421
1.714365
1.714365
1.736866
1.674614
1.612174
1.594549
1.62755
1.731053
1.799867
1.990373
2.181442
2.181442
2.264319
2.29132
2.297508
2.307445
2.298445
2.266757
2.22138
2.162879
2.089376
2.089376
2.04025
2.019437
1.990936
1.956622
1.914246
1.903558
1.915934
1.927746
1.917996
1.917996
1.922309
1.911058
1.897745
1.870932
1.840369
1.800992
1.744928
1.71249
1.672364
1.672364
1.657551
1.6373
1.635612
1.646488
1.650988
1.676489
1.705177
1.72749
1.72749
1.742678
1.750554
1.755804
1.755616
1.738178
1.71324
1.665801
1.626237
1.600174
1.600174
1.579736
1.56661
1.557423
1.56586
1.575798
1.613112
1.638238
1.662801
1.683239
1.683239
1.703115
1.71699
1.726928
1.704427
1.673864
1.63505
1.611049
1.577486
1.554985
1.554985
1.543172
1.549735
1.556485
1.575798
1.597549
1.614424
1.650988
1.676114
1.689427
1.689427
1.705739
1.706302
1.683989
1.654551
1.6238
1.585173
1.574861
1.538859
1.538859
1.532484
1.544672
1.545047
1.557423
1.577111
1.599799
1.636925
1.659613
1.684176
1.684176
1.699177
1.699552
1.686051
1.669551
1.629237
1.595674
1.569423
1.553297
1.54411
1.54411
1.539797
1.54261
1.560423
1.583486
1.610299
1.6478
1.673114
1.684739
1.697114
1.697114
1.714365
1.685114
1.668801
1.6448
1.603924
1.562298
1.55236
1.534922
1.531734
1.531734
1.540922
1.548985
1.574111
1.601674
1.6268
1.655676
1.682301
1.701239
1.701239
1.689239
1.695802
1.674426
1.63355
1.590611
1.56511
1.55386
1.536797
1.524984
1.524984
1.539235
1.542797
1.566423
1.600924
1.63655
1.657551
1.654738
1.694489
1.684739
1.684739
1.656426
1.642363
1.618362
1.581611
1.546735
1.522734
1.504921
1.501921
1.506796
1.506796
1.525734
1.531172
1.549735
1.579923
1.610112
1.636925
1.648175
1.642175
1.626237
1.626237
1.601674
1.554985
1.515609
1.48767
1.463107
1.440794
1.425043
1.437419
1.442857
1.442857
1.453919
1.476233
1.507921
1.537359
1.54936
1.56061
1.550485
1.543922
1.543922
1.521046
1.472857
1.439294
1.40123
1.369729
1.346291
1.334103
1.344041
1.355666
1.355666
1.368417
1.38773
1.428794
1.453169
1.466295
1.48167
1.48092
1.472482
1.446044
1.446044
1.40648
1.384542
1.349479
1.321165
1.308415
1.311228
1.324353
1.330166
1.326791
1.326791
1.360916
1.386792
1.417543
1.439856
1.464232
1.472482
1.461045
1.451669
1.423168
1.423168
1.38698
1.366542
1.345166
1.338416
1.344791
1.348916
1.370292
1.40348
1.40348
1.434231
1.47192
1.509421
1.542422
1.556672
1.562298
1.580673
1.575423
1.550297
1.550297
1.515421
1.490671
1.472107
1.477545
1.482608
1.48692
1.501171
1.529109
1.561548
1.561548
1.605236
1.643113
1.680051
1.711177
1.712115
1.701802
1.696927
1.672551
1.627925
1.627925
1.593424
1.574861
1.54861
1.554798
1.569423
1.575798
1.614049
1.641613
1.670301
1.670301
1.70349
1.725428
1.756554
1.769679
1.765554
1.739116
1.709302
1.668988
1.636362
1.636362
1.606174
1.602237
1.602799
1.604111
1.6223
1.631675
1.655676
1.689989
1.689989
1.726928
1.745866
1.751678
1.773429
1.767991
1.752616
1.724115
1.685864
1.652675
1.652675
1.627737
1.608987
1.614237
1.622862
1.6418
1.651738
1.668238
1.707427
1.738741
1.738741
1.759741
1.778867
1.79143
1.766304
1.756366
1.725615
1.690927
1.666738
1.645175
1.645175
1.6343
1.621174
1.666926
1.697489
1.699177
1.705739
1.724115
1.730115
1.737615
1.737615
1.761429
1.768179
1.754491
1.759554
1.743241
1.71024
1.673301
1.62605
1.62605
1.610299
1.619299
1.631112
1.63805
1.644613
1.650613
1.667113
1.694302
1.721865
1.721865
1.742303
1.755429
1.748866
1.733865
1.708365
1.689614
1.659051
1.632612
1.608612
1.608612
1.608612
1.6298
1.640675
1.6298
1.651925
1.661676
1.679114
1.700864
1.719802
1.719802
1.720178
1.71924
1.714365
1.699927
1.668051
1.643488
1.619112
1.599799
1.586861
1.586861
1.596799
1.611987
1.617612
1.632425
1.651363
1.670488
1.702552
1.70724
1.70724
1.71024
1.716427
1.723365
1.722803
1.701802
1.671239
1.62905
1.604299
1.589298
1.589298
1.577486
1.568485
1.577486
1.598111
1.628112
1.647988
1.686051
1.700114
1.71249
1.71249
1.71999
1.71624
1.697114
1.662988
1.640488
1.611237
1.598486
1.589298
1.595486
1.595486
1.605236
1.599424
1.614049
1.631862
1.656801
1.683426
1.705177
1.721303
1.726365
1.726365
1.716427
1.696927
1.678739
1.64705
1.622112
1.599611
1.591924
1.580486
1.608424
1.608424
1.617049
1.619487
1.643863
1.682301
1.714552
1.73724
1.737803
1.739116
1.739116
1.724865
1.702364
1.679864
1.6403
1.620049
1.591174
1.585736
1.588173
1.585173
1.585173
1.610299
1.612362
1.649113
1.676489
1.696552
1.710802
1.710427
1.713615
1.712115
1.712115
1.691302
1.685301
1.669926
1.650988
1.629425
1.598861
1.603549
1.613862
1.613487
1.613487
1.597736
1.62305
1.672364
1.705552
1.702927
1.726178
1.729928
1.723178
1.695989
1.695989
1.668988
1.639925
1.613299
1.607112
1.598674
1.591924
1.595299
1.612174
1.612174
1.617799
1.635987
1.652113
1.680614
1.70649
1.726928
1.725053
1.722428
1.704427
1.704427
1.674239
1.661676
1.638613
1.618924
1.606737
1.610112
1.616487
1.590424
1.609924
1.609924
1.6253
1.64405
1.695239
1.701427
1.725615
1.721115
1.720927
1.717927
1.694302
1.694302
1.664676
1.640675
1.624925
1.584423
1.595111
1.599049
1.606924
1.614612
1.62755
1.62755
1.657738
1.685489
1.711177
1.72674
1.72749
1.711177
1.700489
1.675364
1.675364
1.652488
1.625862
1.607674
1.594736
1.583298
1.584236
1.587423
1.609924
1.635425
1.635425
1.662426
1.696177
1.70649
1.719427
1.72449
1.733865
1.711365
1.700489
1.679864
1.679864
1.644613
1.619487
1.603174
1.598111
1.607299
1.617237
1.611049
1.613487
1.6433
1.6433
1.677801
1.691302
1.705739
1.71399
1.706677
1.695239
1.654926
1.6253
1.599986
1.599986
1.575611
1.563423
1.560798
1.539422
1.55686
1.570735
1.589674
1.614612
1.646488
1.646488
1.659801
1.665801
1.683614
1.675176
1.663551
1.645363
1.624549
1.595111
1.595111
1.585736
1.570548
1.55686
1.543172
1.560798
1.580111
1.592111
1.599424
1.634112
1.634112
1.668613
1.704615
1.711927
1.703677
1.700114
1.693927
1.657176
1.625112
1.618737
1.618737
1.592674
1.586111
1.587423
1.601486
1.604674
1.616862
1.647988
1.672739
1.691864
1.691864
1.711365
1.723553
1.717552
1.700114
1.678551
1.663551
1.62905
1.614237
1.596424
1.596424
1.590236
1.592299
1.605049
1.608799
1.631487
1.657926
1.690739
1.710052
1.731053
1.736115
1.736115
1.720927
1.696552
1.665426
1.632237
1.606174
1.602424
1.602237
1.595299
1.595299
1.593424
1.607299
1.634487
1.656426
1.686051
1.710427
1.728428
1.749241
1.728615
1.728615
1.706865
1.683614
1.671614
1.647988
1.619112
1.597174
1.593424
1.591361
1.596986
1.596986
1.603736
1.622675
1.641425
1.671988
1.694302
1.71999
1.730115
1.735365
1.726553
1.726553
1.703677
1.688302
1.666926
1.6223
1.593424
1.572423
1.560798
1.575798
1.586298
1.586298
1.609362
1.653425
1.679489
1.675364
1.673489
1.644425
1.569985
1.494233
1.494233
1.403293
1.339916
1.284789
1.264726
1.258351
1.256663
1.256476
1.256851
1.254976
1.254976
1.257788
1.275789
1.502108
1.710615
1.771367
1.748303
1.715865
1.720927
1.810368
1.810368
1.858932
1.935809
2.080189
2.175816
2.206005
2.229818
2.230568
2.22513
2.235818
2.235818
2.234881
2.20413
2.179754
2.179754
2.159878
2.12369
2.083938
2.030687
1.977248
1.977248
1.931309
1.887433
1.834931
1.804743
1.782804
1.766491
1.722053
1.722803
1.722803
1.742116
1.750928
1.761241
1.775492
1.782804
1.783929
1.752053
1.711365
1.674614
1.674614
1.652863
1.618549
1.600736
1.592111
1.578986
1.576361
1.572798
1.599799
1.614612
1.614612
1.6358
1.656801
1.677989
1.685114
1.681926
1.665238
1.653988
1.624925
1.591361
1.591361
1.565485
1.552735
1.543172
1.545797
1.541297
1.552735
1.56361
1.580486
1.603362
1.603362
1.627925
1.650988
1.657926
1.660926
1.648738
1.63055
1.611612
1.578236
1.578236
1.554798
1.530984
1.522547
1.515421
1.522547
1.536797
1.546547
1.584236
1.591736
1.591736
1.618924
1.651363
1.655113
1.653425
1.642925
1.63655
1.609174
1.56961
1.54636
1.54636
1.517859
1.515421
1.521609
1.518796
1.525734
1.540922
1.565485
1.590611
1.617612
1.617612
1.63955
1.661301
1.658676
1.644613
1.62905
1.594736
1.576736
1.555547
1.529297
1.529297
1.518046
1.492546
1.512609
1.524984
1.549172
1.56661
1.587236
1.609924
1.630737
1.630737
1.647425
1.635425
1.624737
1.618362
1.610487
1.561548
1.539235
1.515234
1.515234
1.517859
1.521796
1.525921
1.525547
1.534922
1.554047
1.571673
1.609549
1.632237
1.632237
1.651363
1.654363
1.637862
1.617612
1.592299
1.563235
1.530234
1.514296
1.496858
1.496858
1.486545
1.490296
1.504921
1.518609
1.539984
1.56136
1.582923
1.602611
1.617799
1.617799
1.605424
1.594924
1.579736
1.563048
1.539984
1.510734
1.491608
1.475857
1.46067
1.46067
1.452232
1.446232
1.453919
1.479795
1.501921
1.528922
1.556298
1.57036
1.57036
1.567923
1.548047
1.521796
1.486358
1.440606
1.411918
1.389792
1.373854
1.369917
1.369917
1.361479
1.366167
1.369354
1.374417
1.395793
1.417543
1.436106
1.444169
1.445107
1.445107
1.446044
1.428981
1.397855
1.362042
1.332978
1.317228
1.309165
1.29829
1.313478
1.313478
1.305415
1.312915
1.332791
1.351729
1.371979
1.391105
1.428044
1.445482
1.404793
1.404793
1.374042
1.364479
1.358292
1.338603
1.313853
1.30129
1.330353
1.306915
1.306915
1.300165
1.306915
1.323978
1.332603
1.374792
1.408355
1.447919
1.479045
1.437419
1.437419
1.432169
1.40948
1.39298
1.366729
1.351166
1.343666
1.375355
1.38098
1.380417
1.380417
1.393355
1.431419
1.466107
1.497421
1.541672
1.56211
1.602611
1.57111
1.548047
1.548047
1.530047
1.516921
1.502671
1.489358
1.489733
1.497046
1.506421
1.49292
1.519171
1.519171
1.544297
1.577861
1.609737
1.637487
1.669926
1.70949
1.670301
1.654926
1.654926
1.636175
1.614424
1.589861
1.573923
1.548985
1.57186
1.576736
1.573173
1.598861
1.598861
1.622862
1.63205
1.640488
1.671051
1.71249
1.758054
1.718302
1.698989
1.684926
1.684926
1.672364
1.642925
1.608799
1.589674
1.600549
1.599424
1.597361
1.612362
1.628675
1.628675
1.63955
1.666926
1.695802
1.72224
1.762179
1.739866
1.716052
1.698989
1.671239
1.671239
1.646488
1.615174
1.589861
1.592486
1.602049
1.577111
1.589674
1.616674
1.647988
1.647988
1.677239
1.704427
1.730865
1.760866
1.73124
1.698614
1.685676
1.665238
1.665238
1.638988
1.611799
1.599611
1.616487
1.618549
1.603174
1.607487
1.619112
1.638238
1.638238
1.670114
1.700677
1.723553
1.743991
1.735928
1.705364
1.687739
1.673301
1.645175
1.645175
1.619862
1.597174
1.597174
1.607112
1.605236
1.615737
1.6223
1.652113
1.684176
1.684176
1.707052
1.72149
1.755054
1.73724
1.700302
1.684551
1.667113
1.63805
1.609924
1.609924
1.586673
1.596236
1.608612
1.575236
1.591174
1.611799
1.637862
1.661113
1.661113
1.692802
1.72449
1.753553
1.742303
1.711552
1.681926
1.646488
1.622675
1.596799
1.596799
1.583111
1.580111
1.602611
1.578986
1.587423
1.613299
1.626425
1.647613
1.665988
1.665988
1.678364
1.714365
1.705552
1.684739
1.669363
1.654176
1.626425
1.603362
1.578236
1.578236
1.577673
1.595111
1.575423
1.588361
1.598111
1.616112
1.629425
1.655676
1.693552
1.693552
1.727303
1.715677
1.686427
1.675551
1.659988
1.627737
1.593611
1.579736
1.579736
1.581048
1.600549
1.579361
1.579173
1.605236
1.615549
1.650425
1.682676
1.690177
1.690177
1.721115
1.736303
1.689989
1.671426
1.646488
1.625675
1.601861
1.580111
1.579923
1.579923
1.607112
1.576736
1.580861
1.583298
1.615924
1.653238
1.687551
1.70874
1.73349
1.73349
1.738741
1.708177
1.685864
1.661863
1.626237
1.592674
1.565298
1.575048
1.601299
1.601299
1.583298
1.575048
1.596049
1.63205
1.662051
1.691864
1.710427
1.72974
1.726553
1.726553
1.674801
1.662238
1.6538
1.631487
1.608799
1.590236
1.576548
1.599236
1.599236
1.582736
1.589111
1.611987
1.634112
1.656988
1.684551
1.697864
1.731428
1.733115
1.733115
1.692989
1.686614
1.666551
1.649488
1.615174
1.591549
1.582361
1.604674
1.597736
1.597736
1.585736
1.599799
1.631112
1.659426
1.685114
1.700114
1.734053
1.744553
1.70649
1.70649
1.694489
1.675926
1.653238
1.614987
1.589861
1.581048
1.605049
1.605986
1.605986
1.603362
1.606737
1.633175
1.657551
1.681926
1.699177
1.715677
1.734615
1.698427
1.698427
1.680426
1.642738
1.629987
1.607299
1.587048
1.592299
1.611799
1.593799
1.594361
1.594361
1.586673
1.613487
1.637675
1.669551
1.693177
1.72374
1.731053
1.695614
1.691302
1.691302
1.666176
1.653613
1.62755
1.590049
1.569048
1.597924
1.590049
1.592486
1.613674
1.613674
1.62155
1.64405
1.686239
1.704802
1.739491
1.752428
1.721115
1.697114
1.678176
1.678176
1.650988
1.602799
1.583298
1.568673
1.601111
1.591361
1.591361
1.585173
1.585173
1.596986
1.626425
1.653238
1.667301
1.678551
1.686239
1.638613
1.623425
1.602424
1.602424
1.580111
1.556485
1.530797
1.511109
1.548235
1.542235
1.542985
1.548047
1.578986
1.578986
1.609362
1.651738
1.666926
1.668988
1.693364
1.674239
1.667113
1.644238
1.630175
1.630175
1.601299
1.586298
1.575423
1.597549
1.587423
1.568485
1.585361
1.610674
1.638238
1.638238
1.670114
1.690552
1.708927
1.730303
1.689614
1.668613
1.645738
1.621362
1.588548
1.588548
1.57036
1.596986
1.591174
1.576173
1.595486
1.608987
1.644613
1.668051
1.690552
1.690552
1.728428
1.749241
1.72149
1.699552
1.682864
1.669363
1.6298
1.608237
1.593424
1.593424
1.600361
1.601861
1.599799
1.610299
1.637862
1.658113
1.674989
1.70499
1.735553
1.735553
1.767429
1.722803
1.697864
1.678176
1.661863
1.618924
1.591549
1.580486
1.599236
1.599236
1.614612
1.593424
1.608987
1.624737
1.6478
1.678739
1.699552
1.72749
1.72749
1.760116
1.735365
1.705927
1.688489
1.64705
1.620424
1.593424
1.588173
1.596049
1.596049
1.618174
1.598486
1.607487
1.630737
1.6538
1.669926
1.682301
1.706302
1.749803
1.749803
1.719802
1.714552
1.694489
1.671051
1.620987
1.562673
1.540922
1.500046
1.467795
1.467795
1.397293
1.366729
1.343853
1.345166
1.320415
1.30879
1.312728
1.332978
1.316103
1.316103
1.327353
1.392792
1.650425
1.795742
1.777367
1.711365
1.65155
1.672176
1.672176
1.687364
1.757491
1.873557
2.084314
2.241443
2.318696
2.318133
2.29432
2.238631
2.238631
2.218755
2.183129
2.115627
2.098939
2.070063
2.006686
1.985311
1.964872
1.910496
1.910496
1.89737
1.88087
1.868495
1.88312
1.898308
1.874307
1.884807
1.849931
1.796305
1.796305
1.767991
1.745116
1.700864
1.646863
1.607487
1.602424
1.636362
1.608987
1.620987
1.620987
1.622862
1.63955
1.662988
1.683614
1.684551
1.718678
1.70949
1.670676
1.646675
1.646675
1.632425
1.602986
1.565485
1.539422
1.537922
1.568673
1.551422
1.553672
1.553672
1.564173
1.598674
1.62305
1.658488
1.672739
1.668613
1.656238
1.638238
1.619862
1.619862
1.595674
1.570173
1.549547
1.524234
1.529484
1.547485
1.523296
1.535109
1.545422
1.545422
1.566048
1.596799
1.621174
1.6493
1.666363
1.659426
1.636362
1.618549
1.598486
1.598486
1.557797
1.540547
1.517296
1.516359
1.544672
1.502671
1.507733
1.541297
1.557985
1.557985
1.580673
1.617612
1.627925
1.6403
1.647613
1.626237
1.608612
1.587986
1.587986
1.552547
1.519734
1.505108
1.504358
1.515234
1.509233
1.502858
1.517671
1.540359
1.540359
1.563048
1.583111
1.605799
1.63955
1.643863
1.614612
1.600924
1.585548
1.551797
1.551797
1.516921
1.497233
1.485983
1.514859
1.507733
1.498733
1.495733
1.519171
1.542422
1.542422
1.578236
1.612737
1.624175
1.638613
1.599986
1.590611
1.573735
1.537359
1.507921
1.507921
1.485608
1.488045
1.488983
1.478483
1.491233
1.490671
1.509609
1.549547
1.549547
1.563048
1.577861
1.604111
1.624362
1.596611
1.572048
1.540547
1.490108
1.479608
1.479608
1.448294
1.436106
1.453357
1.447544
1.438169
1.448669
1.467045
1.487108
1.521046
1.521046
1.541672
1.560423
1.574673
1.539984
1.505296
1.467045
1.428044
1.398043
1.37648
1.37648
1.367104
1.392792
1.373292
1.355479
1.366167
1.374417
1.38548
1.412668
1.420543
1.420543
1.447169
1.475295
1.428419
1.39598
1.369354
1.344791
1.316478
1.298665
1.292289
1.292289
1.304852
1.298852
1.292477
1.291164
1.302227
1.31704
1.342353
1.354729
1.354729
1.372542
1.397293
1.364854
1.346666
1.326416
1.30879
1.289664
1.280102
1.278227
1.278227
1.288727
1.283852
1.277851
1.285352
1.296977
1.309727
1.342541
1.363917
1.385855
1.385855
1.406106
1.368604
1.352854
1.334666
1.320603
1.302602
1.296602
1.292289
1.312915
1.312915
1.311415
1.31479
1.331666
1.360916
1.380417
1.417356
1.456544
1.490108
1.520109
1.520109
1.499671
1.500421
1.485045
1.455232
1.439856
1.426731
1.410606
1.433481
1.433481
1.447169
1.46067
1.485795
1.504171
1.528359
1.57261
1.595111
1.617799
1.656238
1.656238
1.612924
1.584798
1.583673
1.573923
1.561173
1.54561
1.528172
1.549922
1.566423
1.566423
1.564735
1.576361
1.589861
1.624549
1.656801
1.669738
1.702739
1.73799
1.699739
1.699739
1.685489
1.681364
1.641237
1.623612
1.591174
1.573923
1.596424
1.589861
1.591174
1.591174
1.607112
1.626612
1.648363
1.677989
1.687364
1.721865
1.763116
1.728428
1.728428
1.720365
1.700302
1.669738
1.633925
1.602986
1.599986
1.604299
1.637112
1.611799
1.611799
1.610674
1.622487
1.653238
1.693177
1.709865
1.739491
1.762554
1.743803
1.71249
1.71249
1.698427
1.680989
1.655676
1.619299
1.593236
1.596611
1.605424
1.594736
1.604486
1.604486
1.622487
1.6358
1.666176
1.694114
1.721115
1.753179
1.728053
1.703302
1.687364
1.687364
1.681176
1.647613
1.604861
1.584986
1.606549
1.609549
1.601299
1.590799
1.608237
1.608237
1.63355
1.663926
1.683989
1.699552
1.737053
1.713052
1.684176
1.683614
1.683614
1.658301
1.620237
1.579923
1.571298
1.580486
1.585548
1.571486
1.571486
1.582548
1.582548
1.609362
1.644988
1.670301
1.689052
1.71024
1.700489
1.672551
1.657738
1.6343
1.6343
1.608424
1.588361
1.55236
1.552547
1.568673
1.566423
1.575423
1.586673
1.606549
1.606549
1.6253
1.651925
1.682864
1.72224
1.705364
1.671239
1.646675
1.6223
1.599986
1.599986
1.574861
1.552922
1.536422
1.562298
1.555735
1.555735
1.567735
1.598674
1.598674
1.625862
1.655488
1.682301
1.701989
1.70799
1.678551
1.669738
1.645175
1.614049
1.614049
1.578236
1.556298
1.54186
1.574298
1.567735
1.573923
1.586298
1.602424
1.613299
1.613299
1.6523
1.674051
1.711552
1.705927
1.672551
1.656613
1.643488
1.620612
1.591736
1.591736
1.563423
1.55836
1.563423
1.55161
1.579548
1.579923
1.617799
1.641237
1.678739
1.678739
1.683051
1.707427
1.72074
1.686989
1.664301
1.634487
1.615549
1.578048
1.578048
1.56511
1.55536
1.578423
1.565673
1.574486
1.577111
1.608049
1.632612
1.662238
1.662238
1.686614
1.703302
1.720927
1.689052
1.671988
1.642925
1.603549
1.594361
1.574111
1.574111
1.566985
1.590424
1.574673
1.588173
1.595861
1.627175
1.63655
1.646113
1.683989
1.683989
1.698239
1.701614
1.683989
1.663176
1.631675
1.612737
1.591924
1.581611
1.575236
1.575236
1.604861
1.590611
1.582736
1.581798
1.602237
1.62305
1.654926
1.674801
1.703302
1.703302
1.705177
1.691864
1.680614
1.659426
1.622675
1.593424
1.582361
1.566985
1.566985
1.606174
1.595486
1.573173
1.594924
1.603174
1.618549
1.647988
1.656051
1.689989
1.689989
1.701614
1.656051
1.639175
1.613862
1.586298
1.55461
1.526484
1.515046
1.540547
1.540547
1.526859
1.526484
1.537734
1.557797
1.596236
1.619299
1.618549
1.659801
1.677801
1.677801
1.644988
1.630362
1.600924
1.580486
1.562673
1.541672
1.533234
1.56286
1.560048
1.560048
1.56061
1.573548
1.600174
1.619674
1.641425
1.658863
1.685301
1.707615
1.707615
1.677989
1.665426
1.64855
1.625487
1.597174
1.569048
1.560985
1.591924
1.576361
1.576361
1.567548
1.593611
1.601111
1.634675
1.666738
1.678926
1.695614
1.71474
1.680426
1.680426
1.677989
1.650613
1.62305
1.596236
1.583673
1.567173
1.590424
1.577298
1.572423
1.572423
1.587986
1.607299
1.622675
1.659426
1.692239
1.720927
1.726928
1.682114
1.683989
1.683989
1.616862
1.616862
1.582923
1.56886
1.589298
1.589111
1.574486
1.588923
1.590611
1.616674
1.616674
1.656988
1.679676
1.704615
1.73049
1.696364
1.685864
1.671614
1.635987
1.600174
1.600174
1.582736
1.573735
1.593986
1.588173
1.580861
1.592486
1.608237
1.631675
1.631675
1.663551
1.685114
1.703115
1.731615
1.712865
1.697864
1.683426
1.667676
1.630737
1.630737
1.608049
1.578048
1.586861
1.587611
1.590799
1.603174
1.636175
1.664863
1.673114
1.673114
1.667488
1.681926
1.662801
1.582361
1.513734
1.439669
1.380042
1.352479
1.290789
1.290789
1.266414
1.265664
1.263789
1.260226
1.266414
1.31779
1.569423
1.792367
1.836056
1.836056
1.79668
1.778679
1.753179
1.752241
1.79218
1.865682
2.030499
2.127815
2.127815
2.168879
2.164941
2.114689
2.0425
2.031625
2.054875
2.062563
2.089939
2.12594
2.12594
2.110564
2.109814
2.06425
2.005561
1.944622
1.902058
1.850307
1.806993
1.778492
1.778492
1.761616
1.73649
1.682676
1.669926
1.683614
1.692052
1.703302
1.714365
1.723178
1.723178
1.745866
1.71999
1.70499
1.681364
1.654926
1.609362
1.589861
1.574673
1.568673
1.568673
1.574486
1.551047
1.555735
1.559673
1.590424
1.607487
1.616487
1.633175
1.664488
1.664488
1.662988
1.635425
1.597549
1.57186
1.54486
1.522359
1.512796
1.514109
1.514109
1.522359
1.511671
1.533047
1.544485
1.563235
1.591736
1.598486
1.611424
1.643488
1.643488
1.637862
1.610674
1.579736
1.561173
1.524421
1.506984
1.488608
1.488795
1.492171
1.492171
1.480358
1.48992
1.502483
1.526297
1.55911
1.589298
1.606924
1.638613
1.624175
1.624175
1.585923
1.575048
1.554422
1.521796
1.494421
1.470795
1.464982
1.494233
1.479795
1.479795
1.481858
1.497608
1.531359
1.55686
1.578986
1.599799
1.615737
1.613112
1.613112
1.587236
1.567923
1.548797
1.516546
1.490483
1.478858
1.468357
1.497421
1.479233
1.479233
1.471732
1.489733
1.499108
1.528922
1.559298
1.577298
1.603924
1.599424
1.572798
1.572798
1.557047
1.535859
1.515046
1.489545
1.464607
1.449232
1.477733
1.454857
1.448669
1.448669
1.464795
1.487483
1.516546
1.547485
1.554985
1.584423
1.594549
1.55536
1.538672
1.538672
1.519921
1.500046
1.467982
1.439294
1.431231
1.455982
1.436106
1.439856
1.439856
1.449044
1.472482
1.49292
1.522547
1.53811
1.57186
1.56286
1.524047
1.504546
1.504546
1.48542
1.456919
1.426169
1.39673
1.393355
1.415481
1.393917
1.398605
