0.54839
2.322821
2.069501
1.752428
1.329228
1.259288
1.254226
1.254601
1.254788
1.254788
1.257413
1.349291
1.620237
2.019812
2.394635
2.618142
2.560203
2.552515
2.555328
2.555328
2.353572
2.080189
1.825556
1.356229
1.264726
1.254038
1.254601
1.254601
1.257788
1.257788
1.355104
1.596236
1.988873
2.395386
2.558891
2.593204
2.54764
2.551578
2.358259
2.358259
2.074188
1.831181
1.373479
1.258913
1.254038
1.254601
1.254601
1.257038
1.257038
1.359792
1.597924
1.996186
2.392198
2.499826
2.638206
2.559453
2.557203
2.398761
2.398761
2.097626
1.849369
1.433856
1.257226
1.254226
1.254413
1.254788
1.257976
1.349854
1.349854
1.600361
1.98456
2.393698
2.502451
2.565641
2.622455
2.551015
2.422011
2.091439
2.091439
1.822931
1.463857
1.261913
1.254226
1.254601
1.254413
1.254413
1.318353
1.826868
1.826868
2.378323
2.468888
2.55289
2.54089
2.529452
2.565828
2.085626
1.768742
1.432919
1.432919
1.283852
1.256288
1.254788
1.254413
1.273164
1.400668
1.610299
2.04175
2.425386
2.425386
2.484826
2.590017
2.584391
2.565078
2.535452
2.395761
1.951935
1.508859
1.306352
1.306352
1.266039
1.254601
1.254413
1.276726
1.377417
1.602611
1.901308
2.366885
2.366885
2.482201
2.53489
2.558141
2.542765
2.483138
2.330321
1.916871
1.411731
1.291352
1.291352
1.257413
1.254788
1.254601
1.263789
1.353416
1.531734
1.829306
2.283632
2.479763
2.479763
2.502076
2.541453
2.538077
2.469075
2.247444
2.001998
1.444732
1.284789
1.261351
1.261351
1.254601
1.254413
1.263789
1.358479
1.526859
1.899995
2.267132
2.478638
2.503201
2.503201
2.547078
2.529827
2.475075
2.281945
2.027312
1.54186
1.268664
1.261351
1.254601
1.254601
1.254788
1.256476
1.353229
1.507921
1.882557
2.292633
2.476763
2.505826
2.505826
2.564891
2.53789
2.485013
2.311383
2.021499
1.592861
1.281789
1.259663
1.254601
1.254601
1.254413
1.254226
1.318353
1.48167
1.80268
2.338196
2.455575
2.500389
2.562641
2.562641
2.541078
2.475263
2.293008
2.016437
1.584798
1.299602
1.254413
1.254788
1.254788
1.254788
1.254413
1.269414
1.452232
1.743428
2.205442
2.534328
2.503201
2.560016
2.551765
2.551765
2.492326
2.306133
2.038937
1.609549
1.295852
1.255538
1.254601
1.254413
1.254413
1.254413
1.264539
1.416418
1.71924
2.137378
2.571266
2.510327
2.558703
2.551578
2.551578
2.515952
2.290007
2.028812
1.644425
1.293227
1.256101
1.254601
1.254788
1.254413
1.254413
1.262851
1.370667
1.668801
2.087689
2.478826
2.596017
2.558516
2.548015
2.524765
2.524765
2.281945
2.011749
1.662238
1.295477
1.255726
1.254226
1.254601
1.254413
1.261351
1.261351
1.370104
1.649675
2.086189
2.444512
2.580829
2.580079
2.546703
2.532452
2.287195
2.287195
2.023187
1.699364
1.322665
1.256101
1.254226
1.254601
1.254413
1.265851
1.265851
1.379292
1.628487
2.102314
2.444887
2.510139
2.641768
2.556641
2.527015
2.325821
2.325821
2.022624
1.737428
1.374979
1.259288
1.254226
1.254226
1.254601
1.263789
1.38248
1.38248
1.63655
2.061063
2.4492
2.499076
2.573704
2.596579
2.52514
2.318883
2.026937
2.026937
1.705927
1.399168
1.256851
1.254413
1.254601
1.254413
1.256101
1.337291
1.337291
1.597549
2.03125
2.432137
2.497014
2.546515
2.62583
2.53639
2.334446
2.022062
2.022062
1.695989
1.408543
1.268664
1.254226
1.254601
1.254226
1.257038
1.314415
1.575798
1.575798
2.055625
2.414699
2.496264
2.546515
2.548578
2.615892
2.384885
2.05825
1.735553
1.735553
1.419981
1.293227
1.254413
1.254601
1.254413
1.262476
1.298477
1.554235
2.044937
2.044937
2.401011
2.496639
2.554578
2.552515
2.581204
2.494764
2.085814
1.754491
1.423356
1.423356
1.280477
1.256476
1.254601
1.254601
1.262664
1.328665
1.493858
1.97556
1.97556
2.393698
2.474325
2.561141
2.554203
2.531327
2.571078
2.154441
1.761991
1.422606
1.422606
1.284414
1.257226
1.254601
1.254601
1.264539
1.350041
1.521609
1.935247
2.36876
2.36876
2.474138
2.569578
2.55589
2.538827
2.496451
2.284382
1.80793
1.418106
1.290227
1.290227
1.259288
1.254601
1.254601
1.267164
1.353791
1.595299
1.897183
2.352447
2.46795
2.46795
2.530765
2.553828
2.535077
2.46945
2.277257
1.909933
1.393355
1.284977
1.284977
1.257601
1.254601
1.254601
1.263789
1.350791
1.553672
1.900183
2.318508
2.470013
2.470013
2.511639
2.554203
2.537327
2.482013
2.258506
2.003124
1.434044
1.283664
1.258351
1.258351
1.254601
1.254601
1.267914
1.356041
1.568298
1.966935
2.311571
2.471888
2.520264
2.520264
2.547828
2.532265
2.471138
2.288695
2.001061
1.525921
1.260601
1.259288
1.254601
1.254601
1.254788
1.255538
1.338416
1.515984
1.885182
2.327321
2.463638
2.512764
2.565266
2.565266
2.535827
2.468138
2.270507
1.987186
1.552922
1.280102
1.256663
1.254601
1.254601
1.254601
1.254226
1.300727
1.485045
1.799117
2.346071
2.4627
2.505076
2.563766
2.563766
2.541265
2.468513
2.257944
1.972185
1.54186
1.284227
1.254601
1.254788
1.254601
1.254601
1.254413
1.260788
1.432919
1.750928
2.218005
2.551765
2.503389
2.557766
2.549703
2.549703
2.485576
2.253256
2.000499
1.563423
1.288727
1.255913
1.254601
1.254601
1.254226
1.254226
1.265664
1.416606
1.726365
2.164566
2.556453
2.53039
2.565078
2.551015
2.551015
2.514639
2.27857
2.008186
1.600549
1.284977
1.255913
1.254788
1.254788
1.254413
1.254413
1.265289
1.380792
1.697677
2.128002
2.454262
2.615892
2.569953
2.555703
2.52739
2.52739
2.28307
2.025812
1.682676
1.296977
1.258351
1.254226
1.254601
1.254601
1.268664
1.268664
1.422981
1.716427
2.150878
2.476951
2.571266
2.597892
2.556266
2.531327
2.313446
2.313446
2.027312
1.714365
1.321353
1.257226
1.254226
1.254413
1.254413
1.267351
1.267351
1.38923
1.664301
2.121065
2.446575
2.507701
2.640831
2.551015
2.518014
2.29282
2.29282
1.992998
1.668801
1.360916
1.255913
1.254601
1.254413
1.254601
1.261726
1.359041
1.359041
1.644613
2.069313
2.447137
2.509389
2.566953
2.614767
2.521202
2.313071
2.011561
2.011561
1.675176
1.396355
1.258163
1.254413
1.254601
1.254601
1.255351
1.363729
1.652675
1.652675
2.112814
2.448075
2.500201
2.557203
2.611017
2.555328
2.366135
2.041
2.041
1.71624
1.412668
1.278789
1.254413
1.254788
1.254413
1.266976
1.338603
1.620424
1.620424
2.118252
2.430824
2.505076
2.564516
2.556453
2.628268
2.39201
2.053375
1.72074
1.72074
1.391292
1.282352
1.254601
1.254601
1.254601
1.263601
1.309915
1.547297
2.044562
2.044562
2.409636
2.506014
2.558516
2.550828
2.54764
2.499826
2.052625
1.723178
1.397293
1.397293
1.281039
1.256476
1.254788
1.254601
1.267539
1.358479
1.527422
1.997123
2.415824
2.415824
2.479013
2.565266
2.556078
2.514452
2.518764
2.163066
1.737803
1.406855
1.406855
1.274101
1.256476
1.254601
1.254601
1.267539
1.356229
1.54786
1.948184
2.37176
2.37176
2.475263
2.551953
2.55064
2.521577
2.445825
2.235631
1.772867
1.380417
1.287227
1.287227
1.256851
1.254601
1.254601
1.266976
1.361292
1.584986
1.89662
2.349259
2.478826
2.478826
2.513702
2.549328
2.520264
2.4507
2.228506
1.878057
1.351541
1.283102
1.255351
1.255351
1.254601
1.254788
1.269789
1.341603
1.526484
1.896433
2.30332
2.486888
2.486888
2.506576
2.54689
2.517077
2.45895
2.196255
1.927559
1.394293
1.269039
1.255913
1.255913
1.254788
1.254601
1.261726
1.339541
1.504733
1.899058
2.266944
2.476576
2.505639
2.505639
2.544078
2.504326
2.444887
2.20938
1.907496
1.426356
1.255163
1.255726
1.254788
1.254788
1.254413
1.254413
1.322103
1.473232
1.854619
2.332009
2.45595
2.506764
2.556828
2.556828
2.521202
2.451825
2.236006
1.955872
1.493483
1.273351
1.255538
1.254601
1.254601
1.254601
1.254226
1.296227
1.516546
1.850869
2.373822
2.656581
2.569016
2.558891
2.511452
2.511452
2.222693
1.986061
1.581798
1.29679
1.257976
1.254226
1.254601
1.254601
1.292477
1.292477
1.542235
1.842619
2.30707
2.480888
2.561141
2.626955
2.565266
2.51614
2.263569
2.263569
1.986248
1.613487
1.323978
1.255351
1.254601
1.254413
1.254413
1.283477
1.490671
1.490671
1.813555
2.262069
2.492889
2.554765
2.611017
2.581579
2.500952
2.279695
2.279695
1.989811
1.613487
1.376855
1.256476
1.254413
1.254413
1.255726
1.286664
1.597924
1.597924
1.983436
2.372885
2.530202
2.578391
2.591142
2.650393
2.547078
2.394448
2.097814
2.097814
1.696552
1.413418
1.278227
1.254413
1.254601
1.255913
1.279914
1.500046
1.837556
1.837556
2.267507
2.509202
2.557016
2.565266
2.591704
2.589267
2.346822
1.977998
1.608612
1.608612
1.368042
1.276726
1.254413
1.254601
1.254601
1.282352
1.381542
1.707615
1.707615
2.201505
2.4582
2.549515
2.558703
2.550265
2.594892
2.405699
1.969935
1.598299
1.598299
1.373667
1.272976
1.254976
1.254601
1.254601
1.281602
1.398605
1.612174
2.118815
2.118815
2.434199
2.519702
2.551953
2.545203
2.495139
2.497201
1.946684
1.564548
1.359792
1.359792
1.264726
1.255351
1.254601
1.254788
1.273914
1.406668
1.530797
2.029937
2.410761
2.410761
2.483701
2.546703
2.535452
2.488951
2.450512
2.062563
1.551985
1.336916
1.258163
1.258163
1.255163
1.254601
1.254788
1.276539
1.413793
1.584611
1.992998
2.414886
2.414886
2.485763
2.54689
2.549515
2.505264
2.427074
2.179191
1.71549
1.324165
1.276914
1.276914
1.256288
1.254601
1.255163
1.289102
1.462357
1.741366
2.110189
2.445637
2.514827
2.514827
2.556266
2.569766
2.524015
2.457825
2.241818
1.923621
1.363167
1.281789
1.257413
1.257413
1.254601
1.254601
1.291539
1.437794
1.659238
2.12444
2.388448
2.491763
2.549515
2.549515
2.55139
2.504139
2.434574
2.171879
1.840744
1.362417
1.261351
1.255163
1.255163
1.254601
1.254788
1.262851
1.378917
1.57036
2.056938
2.36576
2.482951
2.54689
2.54689
2.556266
2.504701
2.435137
2.188754
1.852744
1.38098
1.261539
1.257226
1.254601
1.254601
1.254413
1.254413
1.341978
1.564548
1.971998
2.44695
2.494951
2.552515
2.554765
2.554765
2.52814
2.428949
2.185192
1.885745
1.399543
1.269039
1.254413
1.254788
1.254601
1.254601
1.254601
1.30579
1.560423
1.919496
2.412074
2.533577
2.545953
2.551015
2.551015
2.55064
2.43945
2.189129
1.934497
1.437044
1.269601
1.254788
1.254601
1.254788
1.254788
1.254601
1.286289
1.512421
1.863432
2.28007
2.606517
2.542015
2.55139
2.548015
2.548015
2.437762
2.135315
1.89062
1.410606
1.262851
1.254413
1.254788
1.254788
1.254413
1.254413
1.272039
1.444919
1.792555
2.200755
2.517077
2.579516
2.545765
2.532827
2.428762
2.428762
2.093502
1.867745
1.430294
1.257976
1.254413
1.254601
1.254788
1.254601
1.254601
1.266414
1.445107
1.786555
2.205442
2.479951
2.632018
2.554765
2.544078
2.4447
2.4447
2.097439
1.872432
1.467045
1.266039
1.254601
1.254413
1.254788
1.254601
1.284414
1.284414
1.521046
1.831556
2.28382
2.496076
2.550828
2.626205
2.555703
2.500952
2.220068
2.220068
1.947247
1.577861
1.31179
1.254976
1.254413
1.254413
1.254413
1.299602
1.55461
1.55461
1.89212
2.346822
2.496076
2.54689
2.613267
2.575579
2.503951
2.251569
2.251569
1.974998
1.590049
1.362042
1.256851
1.254601
1.254226
1.254788
1.270726
1.488045
1.488045
1.840744
2.255881
2.506764
2.545765
2.54764
2.636893
2.504326
2.258319
1.934497
1.934497
1.54936
1.360916
1.259476
1.254788
1.254601
1.254226
1.266039
1.420356
1.745866
1.745866
2.237506
2.492139
2.547265
2.54614
2.567516
2.588517
2.28082
1.903183
1.53811
1.53811
1.354541
1.272039
1.254601
1.254788
1.254601
1.278039
1.37423
1.680051
2.191192
2.191192
2.454825
2.545765
2.544265
2.53864
2.593204
2.391073
1.942184
1.579736
1.579736
1.362604
1.273351
1.254976
1.254788
1.255163
1.285539
1.430481
1.654738
2.164379
2.164379
2.45895
2.53114
2.54464
2.541265
2.506014
2.485763
1.954372
1.57111
1.361104
1.361104
1.267539
1.255351
1.254601
1.255163
1.287789
1.468545
1.619674
2.122002
2.455762
2.455762
2.497764
2.547453
2.550265
2.496451
2.467013
2.099689
1.589298
1.352479
1.269789
1.269789
1.255538
1.254601
1.254976
1.282352
1.442857
1.63505
2.047563
2.411324
2.411324
2.484263
2.537702
2.547453
2.491763
2.412261
2.115627
1.654363
1.311978
1.264726
1.264726
1.255538
1.254788
1.254976
1.279727
1.432919
1.634675
2.035
2.410386
2.488576
2.488576
2.541453
2.553265
2.497389
2.418636
2.115064
1.781304
1.303352
1.266039
1.256288
1.256288
1.254601
1.254601
1.283477
1.417356
1.636175
2.116377
2.396323
2.495326
2.55439
2.55439
2.54014
2.503014
2.416199
2.121627
1.802305
1.354729
1.258726
1.255538
1.255538
1.254413
1.254601
1.262101
1.391292
1.587611
2.089564
2.378697
2.488201
2.550078
2.550078
2.541828
2.497576
2.407573
2.14694
1.824243
1.382667
1.258351
1.254976
1.254601
1.254601
1.254601
1.254413
1.344041
1.605236
1.987186
2.460075
2.485201
2.553453
2.550078
2.550078
2.518577
2.421074
2.155753
1.859869
1.375355
1.266601
1.254413
1.254601
1.254601
1.254601
1.254413
1.29454
1.53811
1.89287
2.379822
2.53339
2.53939
2.539202
2.539202
2.544453
2.426324
2.132315
1.848431
1.377792
1.263039
1.255163
1.254788
1.254413
1.254413
1.254601
1.279352
1.505108
1.848056
2.241631
2.597704
2.535452
2.541453
2.542953
2.542953
2.428199
2.117127
1.883682
1.405543
1.263601
1.254601
1.254601
1.254601
1.254601
1.254601
1.278414
1.494608
1.855744
2.260944
2.531515
2.595642
2.544828
2.541078
2.4552
2.4552
2.123877
1.920434
1.470607
1.266226
1.255538
1.254601
1.254788
1.254788
1.293414
1.293414
1.494608
1.856869
2.28457
2.498326
2.617392
2.559453
2.54989
2.475451
2.475451
2.147128
1.936559
1.516921
1.268289
1.255726
1.254413
1.254601
1.254976
1.293977
1.293977
1.535109
1.87262
2.293195
2.505826
2.552515
2.635955
2.560953
2.496639
2.193254
2.193254
1.948934
1.565673
1.323228
1.256101
1.254413
1.254413
1.254226
1.292289
1.521234
1.521234
1.863057
2.311945
2.485201
2.555328
2.590392
2.588892
2.486888
2.207317
1.922871
1.922871
1.537547
1.347604
1.255726
1.254601
1.254226
1.254976
1.263226
1.438356
1.438356
1.787304
2.228318
2.486701
2.545578
2.535452
2.630518
2.494576
2.185379
1.87787
1.87787
1.504546
1.331103
1.256288
1.254601
1.254601
1.254601
1.267914
1.398793
1.730115
1.730115
2.21013
2.455762
2.538077
2.53114
2.550453
2.591142
2.233006
1.868119
1.515421
1.515421
1.334291
1.260413
1.254601
1.254601
1.254788
1.289102
1.371792
1.690552
2.185004
2.185004
2.450887
2.542953
2.539952
2.541828
2.571453
2.342322
1.869057
1.516921
1.516921
1.326041
1.258726
1.255163
1.254601
1.254976
1.278977
1.416231
1.621924
2.13119
2.13119
2.445825
2.516327
2.656394
2.491951
2.347572
2.016249
1.640112
1.274101
1.259476
1.254413
1.254413
1.254601
1.254413
1.304102
1.443607
1.680051
2.174316
2.424074
2.475451
2.550828
2.550828
2.530202
2.484076
2.334446
2.020374
1.665801
1.301102
1.258913
1.254601
1.254601
1.254601
1.254413
1.274101
1.431044
1.661863
2.189692
2.426699
2.491951
2.561891
2.561891
2.553265
2.502076
2.399511
2.199817
1.851619
1.38998
1.260976
1.255913
1.254601
1.254601
1.254601
1.264539
1.466107
1.746053
2.157066
2.52814
2.501139
2.563578
2.556078
2.556078
2.515202
2.356197
2.102877
1.740803
1.32529
1.256663
1.254601
1.254601
1.254601
1.254601
1.254601
1.31554
1.526672
1.941997
2.414699
2.484076
2.537327
2.526077
2.526077
2.512389
2.28757
1.997873
1.690552
1.30579
1.255913
1.254413
1.254788
1.254413
1.254413
1.254788
1.293227
1.500796
1.901495
2.337071
2.578954
2.54089
2.535827
2.538452
2.538452
2.302945
2.061063
1.757679
1.329228
1.257976
1.254226
1.254788
1.254788
1.256101
1.256101
1.316103
1.54561
1.922496
2.323196
2.560203
2.577079
2.539202
2.549515
2.549515
2.37101
2.067813
1.806618
1.390167
1.257226
1.254226
1.254601
1.254788
1.255538
1.255538
1.318915
1.548985
1.922309
2.332009
2.482763
2.642331
2.556078
2.541265
2.384698
2.384698
2.058625
1.819743
1.417356
1.257788
1.254226
1.254413
1.254413
1.255913
1.317978
1.317978
1.54936
1.905433
2.347009
2.482388
2.578016
2.599767
2.542953
2.437199
2.081688
2.081688
1.845244
1.468357
1.264539
1.254413
1.254413
1.254601
1.254601
1.308227
1.541484
1.541484
1.931684
2.36876
2.488576
2.560016
2.62508
2.560203
2.448075
2.056938
2.056938
1.837931
1.467045
1.30504
1.254413
1.254601
1.254601
1.255163
1.294165
1.506046
1.506046
1.915371
2.323196
2.498139
2.54914
2.54614
2.633705
2.477701
2.084314
1.855182
1.855182
1.46892
1.316103
1.254788
1.254788
1.254601
1.256851
1.292852
1.476795
1.888183
1.888183
2.312883
2.486138
2.557953
2.542765
2.590954
2.545765
2.11094
1.839244
1.478483
1.478483
1.304852
1.258538
1.254788
1.254788
1.255913
1.313478
1.417356
1.784867
1.784867
2.277632
2.453325
2.548203
2.533202
2.535077
2.585329
2.143753
1.809993
1.455794
1.455794
1.299227
1.257788
1.254976
1.254601
1.256476
1.313478
1.395418
1.731428
2.238818
2.238818
2.4567
2.551578
2.536577
2.541265
2.510702
2.306133
1.837181
1.468357
1.30279
1.30279
1.259663
1.254788
1.254601
1.256101
1.315353
1.464982
1.678551
2.199817
2.469826
2.469826
2.512577
2.533765
2.545015
2.478263
2.335009
1.950247
1.459732
1.30729
1.30729
1.258726
1.254601
1.254601
1.255913
1.325853
1.468357
1.718115
2.160816
2.4522
2.4522
2.489513
2.561516
2.55064
2.480701
2.320008
2.043812
1.524421
1.292664
1.257976
1.257976
1.254601
1.254601
1.256288
1.332603
1.461045
1.772304
2.13044
2.446387
2.502076
2.502076
2.531327
2.549703
2.482951
2.352447
2.038562
1.631487
1.270539
1.260601
1.254788
1.254788
1.254601
1.254976
1.31179
1.445107
1.71324
2.199442
2.443387
2.495514
2.495514
2.563578
2.546515
2.479201
2.341572
2.019062
1.672551
1.308227
1.259101
1.254601
1.254601
1.254601
1.254788
1.279164
1.446044
1.672926
2.186317
2.432512
2.499076
2.547265
2.547265
2.537515
2.484451
2.323383
2.05225
1.686802
1.321353
1.254976
1.254601
1.254601
1.254601
1.254601
1.256101
1.40948
1.650238
2.095001
2.503201
2.487826
2.559641
2.545015
2.545015
2.508264
2.322258
2.066875
1.71624
1.325103
1.260601
1.254601
1.254788
1.254788
1.254413
1.256101
1.374792
1.6448
2.023937
2.500389
2.512764
2.552703
2.550828
2.550828
2.547453
2.331821
2.075688
1.770804
1.32529
1.261163
1.254601
1.254601
1.254601
1.254601
1.257413
1.357541
1.639925
2.022999
2.39501
2.614767
2.565266
2.556266
2.552515
2.552515
2.352259
2.083189
1.818618
1.346104
1.264164
1.254226
1.254601
1.254601
1.258538
1.258538
1.368604
1.626237
2.003311
2.402136
2.555328
2.589267
2.558891
2.558516
2.38301
2.38301
2.086001
1.853682
1.381917
1.262289
1.254038
1.254413
1.254601
1.257038
1.257038
1.350791
1.591174
1.999374
2.385073
2.491951
2.646268
2.549515
2.550078
2.375135
2.375135
2.064438
1.826681
1.425606
1.259476
1.254226
1.254601
1.254788
1.257601
1.336353
1.336353
1.598299
1.952684
2.383198
2.493639
2.578204
2.605205
2.55514
2.429512
2.093127
2.093127
1.829681
1.459732
1.267914
1.254601
1.254226
1.254601
1.254976
1.326791
1.584048
1.584048
1.992436
2.39126
2.492514
2.562828
2.61608
2.573891
2.45445
2.105127
2.105127
1.837931
1.460857
1.303352
1.254038
1.254788
1.254226
1.257413
1.30279
1.55161
1.55161
1.964122
2.355259
2.486701
2.563391
2.550828
2.633143
2.474325
2.090689
1.857244
1.857244
1.461045
1.313102
1.255351
1.254601
1.254413
1.259288
1.306165
1.490483
1.914246
1.914246
2.351509
2.497389
2.55139
2.549328
2.571828
2.558328
2.088626
1.81543
1.460107
1.460107
1.308227
1.256101
1.254788
1.254788
1.256476
1.334853
1.409855
1.835118
1.835118
2.322258
2.4612
2.54764
2.53939
2.549328
2.576704
2.148816
1.800055
1.450169
1.450169
1.291352
1.256476
1.254601
1.254601
1.256288
1.331666
1.426356
1.755241
2.257381
2.257381
2.465888
2.542015
2.53939
2.542578
2.484263
2.29432
1.825368
1.443044
1.303165
1.303165
1.256663
1.254788
1.254788
1.257413
1.345166
1.511109
1.722428
2.239756
2.475826
2.475826
2.500764
2.543515
2.553453
2.481826
2.30932
2.037812
1.450357
1.29904
1.262101
1.262101
1.254788
1.254601
1.258351
1.344416
1.494983
1.782992
2.195504
2.476013
2.476013
2.495326
2.546328
2.545203
2.475826
2.315508
2.035375
1.525172
1.283102
1.257788
1.257788
1.254601
1.254601
1.257038
1.347229
1.47792
1.800992
2.177504
2.458387
2.499451
2.499451
2.549515
2.54914
2.482388
2.350384
2.022812
1.633925
1.272039
1.264726
1.254788
1.254788
1.254601
1.254601
1.315353
1.450919
1.749053
2.249506
2.459512
2.506202
2.560578
2.560578
2.542015
2.496639
2.342322
2.035562
1.665613
1.306352
1.256476
1.254413
1.254413
1.254601
1.254413
1.278227
1.460295
1.698614
2.239193
2.476951
2.500576
2.560203
2.560203
2.55514
2.493076
2.349634
2.080939
1.675926
1.31404
1.257038
1.254601
1.254601
1.254601
1.254601
1.257226
1.419418
1.685676
2.117502
2.551015
2.496451
2.566578
2.55289
2.55289
2.518952
2.332946
2.056375
1.708552
1.314603
1.258163
1.254788
1.254788
1.254413
1.254413
1.259288
1.405168
1.651363
2.064626
2.497201
2.543515
2.566203
2.551203
2.545765
2.545765
2.320571
2.063125
1.740803
1.31629
1.258913
1.254601
1.254601
1.254601
1.254601
1.257788
1.367479
1.638238
2.025812
2.399136
2.625268
2.565266
2.549703
2.548953
2.548953
2.323008
2.044562
1.761241
1.328665
1.256101
1.254413
1.254788
1.254601
1.257788
1.257788
1.367667
1.606924
2.023749
2.413949
2.525515
2.608017
2.557766
2.54614
2.352259
1.663738
1.663738
1.412668
1.287039
1.254413
1.254601
1.254413
1.269601
1.314603
1.587048
2.077001
2.077001
2.418824
2.520264
2.558141
2.55139
2.602954
2.427636
2.051312
1.724678
1.724678
1.388855
1.275226
1.254788
1.254601
1.254601
1.263789
1.326603
1.491796
1.981561
1.981561
2.401573
2.475451
2.564516
2.55364
2.53114
2.566203
2.124627
1.764991
1.432356
1.432356
1.290414
1.261163
1.254976
1.255163
1.292664
1.437419
1.690177
2.114877
2.445075
2.445075
2.495326
2.591892
2.578766
2.551953
2.530202
2.325821
1.858557
1.434231
1.293227
1.293227
1.260788
1.254601
1.254601
1.269789
1.364667
1.582923
1.931497
2.356572
2.356572
2.471513
2.532265
2.548015
2.522327
2.455387
2.242193
1.826868
1.359041
1.282539
1.282539
1.256101
1.254788
1.254601
1.260038
1.354916
1.538672
1.873182
2.320571
2.4627
2.4627
2.514077
2.54539
2.521202
2.457263
2.193254
1.929434
1.406293
1.278039
1.257976
1.257976
1.254601
1.254413
1.266039
1.343666
1.521984
1.934872
2.300883
2.490076
2.507889
2.507889
2.55364
2.529077
2.461575
2.238068
1.985498
1.478108
1.264539
1.257788
1.257788
1.254601
1.254601
1.258351
1.338791
1.547485
1.925496
2.319821
2.460263
2.511077
2.511077
2.563016
2.52514
2.4747
2.271819
1.977248
1.524421
1.269414
1.258351
1.254788
1.254788
1.254601
1.254038
1.313478
1.514859
1.864182
2.378135
2.468138
2.517264
2.566016
2.566016
2.541828
2.469826
2.29057
1.990373
1.524984
1.277851
1.254413
1.254788
1.254788
1.254788
1.254413
1.275414
1.480545
1.798367
2.291882
2.519889
2.507889
2.560953
2.554578
2.554578
2.476576
2.237131
1.990186
1.554047
1.284227
1.256663
1.254788
1.254788
1.254788
1.254413
1.260601
1.415481
1.73649
2.164754
2.580641
2.504326
2.553265
2.54464
2.54464
2.478638
2.239381
1.989998
1.551235
1.288914
1.255163
1.254788
1.254601
1.254413
1.254413
1.265476
1.410043
1.725615
2.166629
2.480138
2.580641
2.566953
2.55514
2.529265
2.529265
2.270132
2.019812
1.63055
1.281789
1.257788
1.254413
1.254788
1.254601
1.268476
1.268476
1.399543
1.708365
2.162691
2.452575
2.610455
2.573141
2.554203
2.523639
2.523639
2.304633
2.012124
1.675739
1.305602
1.255726
1.254226
1.254601
1.254601
1.269039
1.269039
1.409293
1.695427
2.144315
2.469075
2.519514
2.633143
2.558141
2.52514
2.299757
2.299757
2.014749
1.707802
1.337478
1.255726
1.254226
1.254413
1.254601
1.267351
1.384167
1.384167
1.677239
2.157254
2.453137
2.509014
2.602204
2.584204
2.526452
2.30332
2.013061
2.013061
1.676676
1.381917
1.255726
1.254413
1.254226
1.254601
1.257226
1.371792
1.371792
1.660363
2.098752
2.440949
2.504139
2.550453
2.633705
2.532452
2.316821
2.003874
2.003874
1.657926
1.381917
1.267351
1.254226
1.254601
1.254413
1.258538
1.331291
1.614987
1.614987
2.121627
2.443574
2.508827
2.561516
2.566578
2.60933
2.385635
2.022062
1.701052
1.701052
1.400293
1.280477
1.254601
1.254788
1.254413
1.270914
1.32304
1.614987
2.104939
2.104939
2.446387
2.517827
2.564516
2.558328
2.599767
2.448637
2.051125
1.719615
1.719615
1.399168
1.279164
1.255726
1.254601
1.254601
1.267539
1.349666
1.555923
2.0605
2.0605
2.427824
2.499639
2.572579
2.55214
2.524577
2.536765
2.092376
1.713052
1.401043
1.401043
1.274851
1.256851
1.254788
1.254788
1.267539
1.369542
1.532859
1.985498
2.387323
2.387323
2.477513
2.566391
2.55364
2.523639
2.491388
2.22213
1.734428
1.389417
1.276914
1.276914
1.257038
1.254788
1.254601
1.269414
1.365417
1.594174
1.97031
2.377573
2.377573
2.474888
2.533015
2.552703
2.526827
2.457638
2.273507
1.843744
1.362417
1.281977
1.281977
1.256101
1.254788
1.254788
1.271476
1.361667
1.596424
1.937309
2.357322
2.480888
2.480888
2.520827
2.552328
2.523264
2.46345
2.239756
1.97706
1.394855
1.281602
1.257788
1.257788
1.254788
1.254601
1.267351
1.359604
1.588736
2.016812
2.326196
2.480513
2.522139
2.522139
2.547078
2.517639
2.465138
2.245944
1.943122
1.450357
1.259288
1.256476
1.254601
1.254601
1.254601
1.256663
1.338791
1.55386
1.942747
2.326946
2.473388
2.516327
2.516327
2.566016
2.52664
2.468138
2.263757
1.958685
1.494983
1.268664
1.256476
1.254788
1.254788
1.254413
1.254413
1.306915
1.516359
1.847681
2.381885
2.481076
2.514452
2.565641
2.565641
2.541265
2.455013
2.237693
1.950622
1.48092
1.271476
1.254226
1.254788
1.254788
1.254788
1.254601
1.268289
1.454857
1.785429
2.276132
2.531515
2.510327
2.557578
2.546328
2.546328
2.470575
2.247819
1.985498
1.513546
1.275414
1.256851
1.254601
1.254601
1.254601
1.254413
1.269414
1.450732
1.778867
2.204505
2.603517
2.527952
2.562641
2.550453
2.550453
2.487451
2.238443
1.977623
1.561735
1.279539
1.256101
1.254601
1.254601
1.254413
1.254413
1.270539
1.417918
1.745491
2.175816
2.476013
2.610455
2.565453
2.555515
2.518764
2.518764
2.258131
2.007436
1.611049
1.285727
1.256476
1.254601
1.254601
1.254601
1.272414
1.272414
1.439106
1.779054
2.177129
2.492701
2.601267
2.583266
2.555515
2.524765
2.524765
2.28007
2.003686
1.654551
1.297352
1.256101
1.254413
1.254788
1.254788
1.260226
1.260226
1.354354
1.601486
2.078501
2.433449
2.499639
2.636331
2.544828
2.489513
2.271632
2.271632
1.956435
1.625675
1.335791
1.255163
1.254413
1.254601
1.254601
1.265289
1.376292
1.376292
1.673864
2.149003
2.454262
2.509202
2.579516
2.600704
2.513514
2.284195
1.961685
1.961685
1.605049
1.364854
1.256101
1.254601
1.254413
1.254601
1.256288
1.381355
1.674989
1.674989
2.12519
2.44695
2.514827
2.557953
2.620393
2.549328
2.324321
1.994498
1.994498
1.639175
1.379105
1.269789
1.254601
1.254601
1.254413
1.266601
1.367292
1.676114
1.676114
2.187254
2.470763
2.534515
2.572954
2.561141
2.628268
2.38751
2.048687
1.697864
1.697864
1.391292
1.275226
1.254413
1.254788
1.254601
1.271289
1.347979
1.626425
2.120315
2.120315
2.440574
2.524765
2.568266
2.551578
2.572016
2.47395
2.040625
1.699364
1.391667
1.391667
1.273726
1.255163
1.254601
1.254413
1.272039
1.405543
1.570173
2.074938
2.074938
2.45145
2.497951
2.561328
2.561516
2.528515
2.546515
2.115439
1.709677
1.392605
1.392605
1.281789
1.257976
1.254413
1.254788
1.278039
1.404418
1.581048
2.032937
2.425761
2.425761
2.478451
2.572016
2.561703
2.530577
2.478826
2.269007
1.751303
1.380417
1.284977
1.284977
1.256851
1.254601
1.254788
1.278602
1.390543
1.638613
1.973123
2.403261
2.479013
2.479013
2.54314
2.557203
2.520264
2.446762
2.243318
1.841494
1.339541
1.271476
1.271476
1.255726
1.254601
1.254788
1.268476
1.361292
1.579173
1.957185
2.344572
2.479013
2.479013
2.518952
2.548015
2.514452
2.452575
2.177691
1.891183
1.356416
1.270539
1.255351
1.255351
1.254788
1.254601
1.266414
1.358479
1.553297
1.994873
2.323196
2.477513
2.525515
2.525515
2.550265
2.518952
2.4582
2.208442
1.908808
1.253663
1.254413
1.254601
1.254601
1.254601
1.254226
1.283852
1.559298
1.878432
2.293945
2.620393
2.553078
2.560391
2.559641
2.559641
2.473763
2.200942
1.955872
1.459357
1.268851
1.254788
1.254601
1.254601
1.254788
1.254788
1.290789
1.53811
1.874495
2.30257
2.557203
2.591892
2.567516
2.570891
2.499264
2.499264
2.179566
1.950622
1.500233
1.274476
1.255163
1.254601
1.254601
1.254413
1.254413
1.291914
1.525172
1.859494
2.281195
2.498514
2.62658
2.563578
2.551015
2.478076
2.478076
2.137003
1.908246
1.527234
1.261726
1.254788
1.254601
1.254601
1.254601
1.275976
1.275976
1.469482
1.803243
2.265444
2.498514
2.556266
2.631268
2.562641
2.517827
2.279882
2.279882
2.051687
1.673301
1.355479
1.261726
1.254413
1.254601
1.254601
1.317978
1.6403
1.6403
1.98081
2.412074
2.504701
2.567891
2.619455
2.590017
2.53039
2.30557
2.003686
2.003686
1.601486
1.354729
1.256101
1.254413
1.254413
1.254788
1.268664
1.466295
1.466295
1.820306
2.240881
2.499639
2.54689
2.55064
2.638018
2.506202
2.266944
1.922309
1.922309
1.547672
1.355104
1.256663
1.254601
1.254413
1.254601
1.263976
1.417168
1.759929
1.759929
2.233193
2.488576
2.555515
2.55364
2.575204
2.586266
2.320946
1.949872
1.587611
1.587611
1.360354
1.269226
1.254601
1.254601
1.254601
1.279727
1.390355
1.699552
2.212005
2.212005
2.461013
2.551203
2.560953
2.555703
2.610642
2.389385
1.945559
1.593424
1.593424
1.361479
1.268476
1.254788
1.254601
1.254976
1.281414
1.420543
1.666176
2.187067
2.187067
2.456325
2.54314
2.562078
2.554015
2.516889
2.519327
1.990748
1.599986
1.362229
1.362229
1.270914
1.255913
1.254601
1.254788
1.284789
1.478858
1.636362
2.139815
2.451262
2.451262
2.498889
2.559641
2.563391
2.512014
2.472638
2.114315
1.600736
1.352104
1.268101
1.268101
1.255351
1.254601
1.254976
1.282539
1.440981
1.664301
2.074751
2.434012
2.434012
2.495701
2.551203
2.55439
2.507701
2.428574
2.146003
1.675926
1.31104
1.267914
1.267914
1.255351
1.254413
1.255163
1.277476
1.420356
1.634675
2.032562
2.402698
2.482576
2.482576
2.548015
2.549515
2.498514
2.417136
2.093502
1.72449
1.289102
1.260226
1.254976
1.254976
1.254976
1.254601
1.269976
1.398418
1.583673
2.067626
2.370447
2.484638
2.545953
2.545953
2.536015
2.494389
2.425199
2.101189
1.757304
1.332791
1.255913
1.255163
1.255163
1.254788
1.254601
1.260788
1.37798
1.534359
2.015874
2.346822
2.481076
2.543515
2.543515
2.54614
2.504701
2.412261
2.123127
1.770992
1.341416
1.255163
1.255163
1.254788
1.254788
1.254601
1.254226
1.345729
1.563048
1.968998
2.452762
2.488951
2.55139
2.55589
2.55589
2.52739
2.421449
2.149566
1.839994
1.359041
1.265289
1.254413
1.254788
1.254788
1.254788
1.254413
1.290977
1.524796
1.869995
2.385635
2.535452
2.53939
2.542953
2.542953
2.542578
2.419574
2.097814
1.79893
1.338416
1.256288
1.254601
1.254976
1.254601
1.254601
1.254226
1.271101
1.435356
1.777179
2.239193
2.603704
2.53864
2.536765
2.53414
2.53414
2.403636
2.089189
1.848806
1.367104
1.255726
1.254413
1.255163
1.254788
1.254226
1.254226
1.265101
1.430669
1.820493
2.235443
2.519514
2.587016
2.54464
2.542203
2.458762
2.458762
2.101377
1.873745
1.420356
1.257601
1.254413
1.254976
1.254788
1.254601
1.254601
1.275789
1.48242
1.850119
2.279882
2.506202
2.637081
2.560953
2.54914
2.485576
2.485576
2.157629
1.922684
1.513546
1.270539
1.256101
1.254413
1.254601
1.254413
1.284039
1.284039
1.525359
1.871495
2.349822
2.502451
2.563203
2.62433
2.565266
2.507139
2.217443
2.217443
1.959247
1.582361
1.29979
1.255163
1.254226
1.254413
1.254413
1.289102
1.514296
1.514296
1.840744
2.305195
2.479576
2.55214
2.61008
2.572766
2.496639
2.21688
2.21688
1.920621
1.539235
1.345916
1.255351
1.254601
1.254226
1.254601
1.267164
1.458045
1.458045
1.823306
2.260569
2.497764
2.542578
2.55589
2.641393
2.493826
2.240318
1.913871
1.913871
1.512046
1.331478
1.255913
1.254413
1.254601
1.254601
1.262476
1.417731
1.758054
1.758054
2.243506
2.495701
2.55289
2.551203
2.572204
2.579516
2.262444
1.908996
1.527047
1.527047
1.330353
1.258726
1.254601
1.254788
1.254601
1.270351
1.360916
1.677801
1.677801
2.199442
2.45745
2.54539
2.544078
2.536015
2.606704
2.347384
1.890995
1.524796
1.524796
1.330541
1.260601
1.254788
1.254601
1.254788
1.284414
1.451857
1.694114
2.22063
2.22063
2.465513
2.559453
2.565453
2.565266
2.514264
2.509014
1.996561
1.605049
1.368792
1.368792
1.276351
1.257601
1.254601
1.255163
1.287227
1.494608
1.656238
2.160441
2.455387
2.455387
2.510514
2.558891
2.563203
2.508077
2.479576
2.104752
1.574486
1.348916
1.268664
1.268664
1.255351
1.254601
1.254976
1.288164
1.464045
1.693364
2.108877
2.461388
2.461388
2.501139
2.554203
2.562453
2.501326
2.418636
2.143003
1.666926
1.312165
1.262476
1.262476
1.255351
1.254601
1.254788
1.289477
1.458607
1.713052
2.092939
2.440199
2.501139
2.501139
2.548765
2.556453
2.491763
2.429512
2.108502
1.741928
1.292852
1.259851
1.254976
1.254976
1.254601
1.254601
1.276914
1.422793
1.6253
2.106814
2.397823
2.497389
2.54689
2.54689
2.539577
2.497389
2.408699
2.095001
1.745678
1.328291
1.255538
1.254976
1.254976
1.254601
1.254601
1.260788
1.388292
1.565673
2.080189
2.400636
2.482013
2.551015
2.551015
2.548765
2.505076
2.403823
2.12294
1.790867
1.341416
1.255351
1.254976
1.254601
1.254601
1.254601
1.254413
1.346854
1.581986
2.006311
2.482763
2.500389
2.551203
2.55289
2.55289
2.532452
2.415449
2.161378
1.841494
1.353416
1.265851
1.254413
1.254601
1.254788
1.254788
1.254788
1.307477
1.597736
1.969935
2.423136
2.54539
2.557766
2.554953
2.562266
2.562266
2.437949
2.156316
1.89062
1.371604
1.267914
1.254601
1.254788
1.254976
1.254976
1.254601
1.287977
1.56586
1.937684
2.323008
2.615892
2.561891
2.557203
2.552515
2.552515
2.442262
2.125377
1.886308
1.39073
1.260226
1.254976
1.254601
1.254413
1.254601
1.254601
1.284977
1.527609
1.903371
2.318696
2.530577
2.602017
2.55139
2.555703
2.459512
2.459512
2.127252
1.895308
1.446982
1.263976
1.254413
1.254788
1.254788
1.254788
1.288164
1.288164
1.521234
1.897745
2.313633
2.489326
2.63033
2.565453
2.557953
2.475075
2.475075
2.12669
1.909183
1.504921
1.262476
1.254601
1.254413
1.254413
1.254788
1.294915
1.294915
1.539422
1.87112
2.351134
2.500389
2.556828
2.636706
2.564703
2.487826
2.179941
2.179941
1.905433
1.529672
1.285914
1.254788
1.254601
1.254413
1.254413
1.290039
1.524047
1.524047
1.881432
2.339509
2.501701
2.559453
2.594892
2.592079
2.487263
2.204317
1.934872
1.934872
1.538297
1.337291
1.254601
1.254601
1.254413
1.254976
1.270351
1.455607
1.455607
1.844869
2.293383
2.506014
2.554953
2.556266
2.637643
2.517077
2.236381
1.921746
1.921746
1.536797
1.345541
1.264164
1.254601
1.256851
1.338978
1.502296
1.759741
2.241256
2.474138
2.474138
2.499826
2.54764
2.554203
2.487638
2.322446
2.053
1.481295
1.294352
1.256476
1.256476
1.254788
1.254413
1.255726
1.341603
1.470982
1.80418
2.20488
2.481076
2.502264
2.502264
2.551953
2.554953
2.484451
2.345884
2.030499
1.596049
1.271664
1.256851
1.254601
1.254601
1.254788
1.254976
1.323978
1.466295
1.781117
2.21688
2.4642
2.502826
2.502826
2.568078
2.547453
2.481263
2.364822
2.031437
1.6343
1.290039
1.258726
1.254601
1.254601
1.254788
1.254226
1.292664
1.446419
1.72224
2.263569
2.459137
2.505264
2.566766
2.566766
2.553265
2.485576
2.360322
2.055625
1.662051
1.311228
1.254226
1.254601
1.254788
1.254788
1.254601
1.258726
1.436294
1.694302
2.190629
2.526452
2.500952
2.563203
2.561141
2.561141
2.513889
2.344009
2.064626
1.674614
1.300165
1.255726
1.254413
1.254788
1.254788
1.254601
1.255726
1.386605
1.622112
2.059938
2.542953
2.505264
2.558891
2.550453
2.550453
2.527577
2.293945
2.020749
1.667113
1.292664
1.254976
1.254601
1.254788
1.254413
1.254413
1.256101
1.369354
1.652863
2.107377
2.512389
2.599017
2.592079
2.578391
2.584204
2.584204
2.430824
2.187629
1.902433
1.383605
1.269226
1.254413
1.254413
1.254788
1.265476
1.265476
1.40723
1.691489
2.103439
2.459325
2.602392
2.584954
2.571078
2.561891
2.561891
2.396136
2.112439
1.825931
1.363729
1.257788
1.254038
1.254601
1.254601
1.256851
1.256851
1.348729
1.575798
2.011936
2.409074
2.500201
2.635393
2.563016
2.556078
2.36801
2.36801
2.063313
1.805868
1.38398
1.256663
1.254226
1.254413
1.254601
1.255726
1.355479
1.355479
1.587048
2.013061
2.418074
2.495701
2.60933
2.593954
2.554578
2.410949
2.106627
2.106627
1.826118
1.442857
1.259101
1.254038
1.254601
1.254601
1.255913
1.352291
1.352291
1.6253
2.010999
2.442824
2.505264
2.572391
2.643268
2.564516
2.450512
2.104564
2.104564
1.806993
1.450544
1.278414
1.254226
1.254601
1.254413
1.254976
1.309165
1.541672
1.541672
2.002561
2.399323
2.508264
2.556078
2.559078
2.618142
2.450137
2.0665
1.800055
1.800055
1.442669
1.303165
1.254226
1.254788
1.254601
1.255913
1.291727
1.505296
1.95531
1.95531
2.38301
2.498889
2.563578
2.559266
2.611955
2.515389
2.104377
1.833243
1.833243
1.453919
1.299977
1.256851
1.254788
1.254601
1.256288
1.328853
1.457857
1.90112
1.90112
2.379822
2.481638
2.571641
2.54989
2.549328
2.601079
2.138315
1.810555
1.438919
1.438919
1.284414
1.255538
1.254788
1.254601
1.255538
1.346854
1.433856
1.840744
2.324321
2.324321
2.473388
2.565078
2.553265
2.547453
2.520452
2.273319
1.834743
1.439669
1.281789
1.281789
1.256288
1.254788
1.254788
1.257788
1.347229
1.504733
1.785804
2.313446
2.313446
2.466638
2.523264
2.55514
2.554015
2.484451
2.323383
1.925871
1.426169
1.290602
1.290602
1.256101
1.254601
1.254601
1.256476
1.345729
1.504921
1.784867
2.261132
2.476763
2.476763
2.503764
2.547828
2.54239
2.487826
2.288132
1.997686
1.436856
1.280289
1.255726
1.255726
1.254601
1.254788
1.256101
1.337666
1.457107
1.785054
2.179566
2.463638
2.498701
2.498701
2.541265
2.54389
2.490826
2.297132
1.986811
1.526297
1.261163
1.255913
1.254788
1.254788
1.254601
1.254976
1.331291
1.449982
1.774179
2.224755
2.466825
2.497389
2.497389
2.556453
2.53714
2.485951
2.330321
1.98231
1.582923
1.277101
1.255538
1.254601
1.254601
1.254788
1.254413
1.299415
1.439106
1.70874
2.253631
2.455762
2.497389
2.551015
2.551015
2.542578
2.482013
2.335946
2.010811
1.597361
1.294727
1.254226
1.254601
1.254788
1.254788
1.254413
1.260226
1.425793
1.694302
2.194567
2.524577
2.497014
2.562078
2.552703
2.552703
2.508827
2.324508
2.063688
1.657363
1.303165
1.257038
1.254601
1.254601
1.254601
1.254601
1.258351
1.407793
1.672364
2.12144
2.560391
2.510139
2.560953
2.55289
2.55289
2.548015
2.323196
2.04925
1.708927
1.297165
1.256288
1.254601
1.254976
1.254601
1.254601
1.256101
1.366542
1.626425
2.058063
2.446387
2.602204
2.563391
2.558891
2.548015
2.548015
2.304445
2.03425
1.714552
1.295477
1.254788
1.254413
1.254788
1.254601
1.255913
1.255913
1.350979
1.603362
2.041937
2.416761
2.586641
2.577454
2.553265
2.548203
2.548203
2.347197
2.051687
1.760491
1.336353
1.256288
1.254226
1.254601
1.254601
1.256663
1.256663
1.363354
1.598299
2.035562
2.433824
2.505451
2.639331
2.562453
2.551578
2.360697
2.360697
2.047563
1.794617
1.389417
1.255913
1.254226
1.254413
1.254601
1.258913
1.366542
1.366542
1.613862
2.068376
2.44695
2.509014
2.589454
2.602767
2.545015
2.36951
2.061063
2.061063
1.753928
1.410231
1.256851
1.254226
1.254601
1.254601
1.254788
1.348916
1.348916
1.583111
2.012874
2.4477
2.509202
2.564516
2.633518
2.559078
2.405699
2.066688
2.066688
1.769304
1.428981
1.275039
1.254413
1.254601
1.254226
1.256101
1.311603
1.570548
1.570548
2.026562
2.404761
2.499826
2.563016
2.560953
2.63108
2.436637
2.073063
1.779242
1.779242
1.440419
1.289477
1.254413
1.254601
1.254788
1.256476
1.293039
1.501358
1.970873
1.970873
2.392385
2.501514
2.560766
2.553265
2.591329
2.526452
2.075876
1.794617
1.429169
1.429169
1.282539
1.255726
1.254788
1.254788
1.257226
1.337478
1.446044
1.917058
1.917058
2.391635
2.478826
2.568641
2.559266
2.53789
2.598079
2.123877
1.779804
1.426731
1.426731
1.278602
1.254976
1.254601
1.254601
1.256851
1.342728
1.436856
1.853307
2.356572
2.356572
2.464388
2.566391
2.557203
2.542015
2.506764
2.282882
1.824431
1.431231
1.283664
1.283664
1.255726
1.254788
1.254601
1.258726
1.347979
1.526672
1.817305
2.322071
2.465325
2.465325
2.525702
2.556078
2.54164
2.482013
2.306695
1.950247
1.40723
1.287414
1.287414
1.256476
1.254601
1.254788
1.259101
1.346479
1.517109
1.820118
2.28007
2.471138
2.471138
2.508639
2.552328
2.54239
2.485576
2.249506
1.986811
1.443419
1.278977
1.256101
1.256101
1.254788
1.254788
1.256663
1.345729
1.485233
1.833056
2.212005
2.46195
2.501326
2.501326
2.540703
2.539202
2.478451
2.266569
1.974435
1.522171
1.257226
1.256288
1.254976
1.254976
1.254601
1.254601
1.331666
1.449607
1.789929
2.266944
2.4717
2.508452
2.508452
2.558516
2.529452
2.473388
2.302008
1.96806
1.56661
1.281602
1.255351
1.254601
1.254601
1.254601
1.254601
1.297727
1.441169
1.726928
2.286632
2.464388
2.506576
2.561141
2.561141
2.546703
2.481263
2.307633
2.007999
1.572235
1.291352
1.254226
1.254788
1.254601
1.254601
1.254601
1.258913
1.425793
1.707427
2.187442
2.547078
2.497014
2.562453
2.555328
2.555328
2.510139
2.31532
2.04475
1.626425
1.290414
1.256101
1.254788
1.254788
1.254788
1.254601
1.258726
1.40198
1.684739
2.124253
2.551578
2.525327
2.562828
2.550828
2.550828
2.53339
2.303883
2.056938
1.64105
1.290227
1.256663
1.254601
1.254788
1.254413
1.277289
1.277289
1.669926
2.136628
2.45145
2.501514
2.614955
2.574079
2.518014
2.304633
2.304633
1.994873
1.64705
1.355291
1.255351
1.254601
1.254413
1.254413
1.259101
1.350416
1.350416
1.664301
2.087501
2.464763
2.511077
2.560766
2.641393
2.528702
2.333134
2.006686
2.006686
1.651925
1.38548
1.260976
1.254413
1.254601
1.254413
1.256663
1.335416
1.6253
1.6253
2.090126
2.4552
2.508452
2.560766
2.580641
2.594704
2.351884
2.020749
1.678551
1.678551
1.389042
1.270914
1.254413
1.254788
1.254601
1.261163
1.30729
1.581611
2.085814
2.085814
2.419386
2.510327
2.561891
2.552328
2.60633
2.422386
2.028999
1.694114
1.694114
1.38323
1.271476
1.255163
1.254788
1.254601
1.262289
1.325103
1.520671
2.024874
2.024874
2.429137
2.494389
2.567328
2.556266
2.522889
2.53039
2.049813
1.684364
1.386792
1.386792
1.269039
1.255351
1.254601
1.254601
1.262289
1.341041
1.47567
1.957372
2.401011
2.401011
2.462888
2.561328
2.54914
2.518202
2.488576
2.158753
1.683801
1.375917
1.272226
1.272226
1.256476
1.254601
1.254601
1.267914
1.372354
1.62155
2.012499
2.434762
2.434762
2.499451
2.571641
2.578954
2.550828
2.478451
2.37701
1.914808
1.404793
1.294915
1.294915
1.258726
1.254601
1.254601
1.270351
1.363917
1.615549
1.955122
2.38001
2.485013
2.485013
2.521389
2.55364
2.52514
2.463825
2.202442
1.895308
1.347604
1.272601
1.255351
1.255351
1.254788
1.254601
1.259663
1.329041
1.513171
1.919684
2.311008
2.462138
2.508827
2.508827
2.540328
2.520077
2.446387
2.196817
1.906746
1.39898
1.261163
1.255913
1.255913
1.254788
1.254788
1.257413
1.337478
1.508859
1.929809
2.30107
2.485951
2.516702
2.516702
2.563203
2.523077
2.449762
2.240506
1.923809
1.472295
1.261726
1.255538
1.254788
1.254788
1.254788
1.254413
1.309352
1.493483
1.844119
2.388635
2.470575
2.51614
2.562453
2.562453
2.535265
2.451637
2.229256
1.938247
1.473232
1.268101
1.254226
1.254788
1.254601
1.254601
1.254413
1.268289
1.448294
1.779617
2.295633
2.521577
2.501139
2.557391
2.557391
2.545953
2.461575
2.196255
1.943497
1.469107
1.265289
1.254601
1.254788
1.254601
1.254601
1.254226
1.261913
1.414356
1.749241
2.186317
2.588142
2.515952
2.560953
2.55064
2.55064
2.473013
2.224005
1.949122
1.500233
1.267351
1.254601
1.254788
1.254788
1.254601
1.254601
1.260788
1.38848
1.731428
2.13569
2.507514
2.581016
2.562641
2.548015
2.496826
2.496826
2.209005
1.97406
1.575986
1.274101
1.254976
1.254601
1.254788
1.254601
1.262476
1.262476
1.379855
1.70724
2.141503
2.459325
2.610455
2.572579
2.55064
2.506014
2.506014
2.257381
1.975935
1.608987
1.287039
1.255351
1.254413
1.254788
1.254601
1.262101
1.262101
1.384542
1.665051
2.148441
2.4552
2.515202
2.64008
2.543703
2.512389
2.263757
2.263757
1.947247
1.615362
1.314978
1.254601
1.254601
1.254601
1.254788
1.262851
1.358667
1.358667
1.648925
2.12819
2.451262
2.511452
2.597892
2.584391
2.518764
2.291695
1.971623
1.971623
1.616674
1.357916
1.254976
1.254601
1.254601
1.254413
1.257413
1.357541
1.357541
1.673489
2.104189
2.460825
2.511264
2.560203
2.639706
2.525327
2.315133
1.982123
1.982123
1.616299
1.369729
1.260413
1.254413
1.254788
1.254413
1.257601
1.334103
1.616862
1.616862
2.104377
2.46195
2.512764
2.557203
2.562828
2.599767
2.336321
1.983436
1.636362
1.636362
1.373479
1.270726
1.254413
1.254788
1.254413
1.262289
1.307102
1.568673
2.089001
2.089001
2.411886
2.515389
2.559453
2.550828
2.597142
2.420511
1.990936
1.655113
1.655113
1.370292
1.268101
1.255163
1.254601
1.254601
1.263789
1.340666
1.542047
2.043437
2.043437
2.418824
2.494014
2.573328
2.556453
2.518764
2.538265
2.071751
1.683614
1.38323
1.38323
1.274476
1.255538
1.254788
1.254788
1.268664
1.359229
1.526297
1.993373
2.413199
2.413199
2.471513
2.572391
2.55514
2.515014
2.482951
2.173566
1.684176
1.362229
1.270539
1.270539
1.255351
1.254788
1.254601
1.263226
1.351166
1.550297
1.925309
2.366322
2.366322
2.477138
2.533015
2.548953
2.512577
2.431199
2.22213
1.764804
1.333728
1.269226
1.269226
1.255163
1.254788
1.254601
1.267351
1.360354
1.594549
1.943122
2.374948
2.489701
2.489701
2.522702
2.551578
2.518952
2.466075
2.209567
1.911246
1.339353
1.268101
1.255351
1.255351
1.254788
1.254788
1.264914
1.353979
1.55086
1.991686
2.338009
2.481451
2.524202
2.524202
2.549703
2.524952
2.459888
2.231506
1.926434
1.429919
1.259101
1.256288
1.256288
1.254788
1.254788
1.257601
1.346479
1.562298
1.979498
2.360135
2.486888
2.531702
2.531702
2.573891
2.526265
2.4582
2.251756
1.930371
1.453732
1.263414
1.255726
1.254788
1.254788
1.254601
1.254226
1.307852
1.502483
1.880495
2.398761
2.489138
2.526077
2.561328
2.561328
2.538827
2.445262
2.218005
1.928871
1.443607
1.267914
1.254601
1.254788
1.254601
1.254601
1.254413
1.266976
1.464982
1.797242
2.287945
2.533952
2.51614
2.560953
2.55289
2.55289
2.463075
2.185567
1.941809
1.46742
1.266414
1.255163
1.254976
1.254601
1.254601
1.254226
1.265101
1.442857
1.768554
2.203567
2.597704
2.522702
2.561516
2.556266
2.556266
2.487451
2.223068
1.970123
1.524796
1.268101
1.254788
1.254788
1.254788
1.254413
1.254413
1.269601
1.434981
1.764991
2.191379
2.505451
2.605392
2.564328
2.558891
2.509577
2.509577
2.217068
1.979123
1.577486
1.272039
1.255726
1.254601
1.254601
1.254413
1.268851
1.268851
1.412856
1.749991
2.195317
2.491576
2.602579
2.586079
2.556828
2.509014
2.509014
2.249881
1.991873
1.606924
1.286289
1.255351
1.254226
1.254601
1.254601
1.268101
1.268101
1.427669
1.719427
2.188192
2.490826
2.532077
2.638768
2.559266
2.516514
2.273507
2.273507
1.964497
1.608987
1.321915
1.254788
1.254601
1.254601
1.254788
1.264539
1.395418
1.395418
1.686239
2.156691
2.478638
2.521952
2.582704
2.596579
2.497951
2.262444
1.953622
1.953622
1.594174
1.358854
1.254788
1.254601
1.254413
1.254601
1.256663
1.377604
1.377604
1.682489
2.158753
2.475075
2.522327
2.557391
2.632018
2.526827
2.308571
1.973498
1.973498
1.604674
1.365792
1.263789
1.254601
1.254601
1.254413
1.262101
1.363917
1.661113
1.661113
2.165316
2.474325
2.522702
2.564328
2.565641
2.62208
2.349447
1.998249
1.642175
1.642175
1.375355
1.272789
1.254413
1.254601
1.254413
1.269414
1.336166
1.611612
2.137003
2.137003
2.4447
2.535077
2.563953
2.555703
2.579516
2.442262
1.997873
1.646863
1.370479
1.370479
1.269226
1.255163
1.254788
1.254788
1.267164
1.374417
1.560423
2.079063
2.079063
2.44995
2.502451
2.559453
2.554015
2.519139
2.53114
2.075126
1.659051
1.380605
1.380605
1.269226
1.255726
1.254601
1.254601
1.269039
1.380605
1.54711
2.012499
2.435324
2.435324
2.486326
2.568266
2.554765
2.515389
2.45895
2.187442
1.664863
1.352479
1.267539
1.267539
1.255351
1.254788
1.254788
1.267539
1.37948
1.591549
2.510514
2.490076
2.55514
2.552703
2.552703
2.527577
2.404386
2.155191
1.822556
1.347604
1.263039
1.254601
1.254601
1.254601
1.254601
1.254788
1.307852
1.582923
1.96356
2.446575
2.522327
2.555515
2.557578
2.557578
2.557203
2.428199
2.163816
1.869244
1.370104
1.261163
1.254601
1.254788
1.254601
1.254601
1.254601
1.280664
1.539047
1.916683
2.332571
2.610455
2.55439
2.552703
2.556641
2.556641
2.424262
2.129877
1.887058
1.389417
1.258913
1.254601
1.254976
1.254601
1.254413
1.254413
1.287227
1.525734
1.896995
2.296945
2.558891
2.593204
2.549703
2.563766
2.4687
2.4687
2.133815
1.894745
1.440981
1.265289
1.254788
1.254788
1.254601
1.254413
1.254413
1.289102
1.525734
1.887808
2.299008
2.509202
2.634643
2.561141
2.567703
2.479576
2.479576
2.118065
1.904308
1.493858
1.258351
1.254413
1.254601
1.254788
1.254413
1.284414
1.284414
1.506046
1.827993
2.290007
2.504139
2.556828
2.623768
2.561516
2.482013
2.140753
2.140753
1.897933
1.515421
1.276914
1.254601
1.254601
1.254601
1.254413
1.284414
1.503608
1.503608
1.843744
2.316071
2.482388
2.559828
2.609892
2.577641
2.483701
2.167004
1.896433
1.896433
1.508296
1.31629
1.254413
1.254976
1.254413
1.254788
1.267539
1.439856
1.439856
1.800242
2.255694
2.501326
2.543703
2.55139
2.639143
2.497951
2.203567
1.911246
1.911246
1.517109
1.325665
1.255538
1.254601
1.254601
1.255913
1.29454
1.56661
1.974998
1.974998
2.403073
2.513327
2.584204
2.584016
2.608205
2.594704
2.36726
2.0425
1.6253
1.6253
1.370479
1.277851
1.254413
1.254601
1.255163
1.302227
1.441731
1.800805
2.299945
2.299945
2.481826
2.568266
2.55514
2.568266
2.594704
2.359197
1.899995
1.522734
1.522734
1.325103
1.257226
1.254788
1.254601
1.254788
1.280664
1.395605
1.650613
2.179941
2.179941
2.46045
2.539765
2.54839
2.556266
2.499826
2.442637
1.909183
1.506608
1.320978
1.320978
1.258913
1.254976
1.254788
1.254976
1.278977
1.459545
1.615174
2.147316
2.4612
2.4612
2.510514
2.553828
2.561141
2.501701
2.4537
2.039875
1.533422
1.323415
1.259851
1.259851
1.254788
1.254601
1.254976
1.283477
1.46442
1.686802
2.120127
2.447512
2.447512
2.507514
2.554203
2.565641
2.508077
2.398573
2.115627
1.63805
1.30879
1.262101
1.262101
1.255163
1.254601
1.254976
1.282914
1.456732
1.693364
2.098939
2.447887
2.507889
2.507889
2.55364
2.569203
2.494576
2.414511
2.102127
1.735553
1.290789
1.262289
1.255163
1.255163
1.254788
1.254601
1.286852
1.446232
1.689052
2.168691
2.434012
2.505451
2.563578
2.563578
2.557578
2.497389
2.413761
2.12369
1.783367
1.332041
1.259288
1.254976
1.254976
1.254601
1.254413
1.266976
1.40648
1.615549
2.11994
2.405324
2.490076
2.558891
2.558891
2.55289
2.500576
2.390511
2.111315
1.734615
1.333728
1.254413
1.254788
1.254788
1.254788
1.254788
1.254413
1.363542
1.598299
2.032187
2.494389
2.507514
2.558703
2.557391
2.557391
2.53639
2.420136
2.14094
1.79743
1.346291
1.264914
1.254413
1.254788
1.254601
1.254601
1.254788
1.316665
1.596799
1.994498
2.476388
2.52739
2.559641
2.562078
2.562078
2.580079
2.427449
2.155378
1.87487
1.371417
1.265476
1.254601
1.254788
1.254601
1.254601
1.254601
1.299415
1.596049
1.96206
2.359197
2.612517
2.563953
2.553453
2.572204
2.572204
2.432137
2.13194
1.861932
1.365979
1.258163
1.254413
1.254788
1.254788
1.254601
1.254601
1.271851
1.500233
1.852931
2.271257
2.560766
2.580829
2.536952
2.556828
2.419199
2.419199
2.074938
1.835118
1.39973
1.258351
1.254226
1.254601
1.254788
1.254976
1.254976
1.283289
1.508671
1.913496
2.335196
2.486888
2.643643
2.561516
2.570328
2.479763
2.479763
2.132128
1.913496
1.464045
1.268289
1.254413
1.254413
1.254788
1.256288
1.302602
1.302602
1.609737
1.928684
2.384323
2.498139
2.577266
2.61533
2.578204
2.500576
2.159878
2.159878
1.933934
1.526484
1.275414
1.254788
1.254601
1.254413
1.254226
1.299602
1.548797
1.548797
1.914433
2.371572
2.503577
2.560203
2.62508
2.576141
2.490076
2.186317
2.186317
1.930371
1.518609
1.317603
1.254413
1.254601
1.254226
1.255726
1.283477
1.529672
1.529672
1.959622
2.391635
2.504514
2.568641
2.568078
2.639331
2.520452
2.249319
1.951935
1.951935
1.527234
1.338228
1.255163
1.254788
1.254788
1.255726
1.266601
1.484858
1.847306
1.847306
2.327883
2.501889
2.558516
2.557766
2.591892
2.576141
2.256256
1.926059
1.538672
1.538672
1.343853
1.269039
1.254601
1.254601
1.255163
1.285539
1.405355
1.793117
1.793117
2.323008
2.473763
2.569203
2.556266
2.568078
2.603517
2.337821
1.931871
1.54186
1.54186
1.345729
1.267914
1.254788
1.254788
1.255538
1.296414
1.436669
1.729928
2.226068
2.226068
2.458012
2.553265
2.54314
2.550078
2.505639
2.467575
1.948934
1.544672
1.351916
1.351916
1.266414
1.255163
1.254413
1.256101
1.290789
1.518796
1.716615
2.250444
2.479763
2.479763
2.526077
2.554203
2.565641
2.511639
2.480138
2.056563
1.537922
1.338041
1.260976
1.260976
1.255163
1.254413
1.254976
1.291539
1.491983
1.748866
2.181817
2.472638
2.472638
2.503764
2.558141
2.566766
2.506764
2.415074
2.138315
1.636362
1.304477
1.263226
1.263226
1.254976
1.254788
1.255163
1.29604
1.48392
1.751866
2.138503
2.454262
2.502264
2.502264
2.557016
2.567328
2.505264
2.405136
2.096689
1.700302
1.280664
1.259288
1.254788
1.254788
1.254788
1.254413
1.286102
1.446982
1.703302
2.185942
2.441887
2.507139
2.575579
2.575579
2.55139
2.502639
2.412074
2.128565
1.764429
1.335228
1.257788
1.254788
1.254788
1.254601
1.254413
1.266039
1.418293
1.653613
2.185754
2.463638
2.506389
2.571078
2.571078
2.563953
2.514827
2.420136
2.157629
1.790492
1.355104
1.257038
1.255351
1.254601
1.254601
1.254601
1.255538
1.383792
1.664301
2.095564
2.547828
2.509014
2.572391
2.573328
2.573328
2.542015
2.427449
2.156503
1.833993
1.348354
1.267164
1.254601
1.254413
1.254601
1.254601
1.254976
1.325478
1.657363
2.036875
2.484638
2.547828
2.573891
2.563203
2.563203
2.569391
2.425199
2.12594
1.858182
1.355854
1.259476
1.254601
1.254788
1.254788
1.254788
1.254976
1.309165
1.635237
1.993748
2.396698
2.630143
2.576516
2.571078
2.565078
2.565078
2.439075
2.150503
1.920996
1.398793
1.263414
1.254226
1.254788
1.254601
1.255163
1.255163
1.314978
1.613299
1.991311
2.410761
2.538452
2.616267
2.564891
2.571453
2.481076
2.481076
2.13194
1.915934
1.427669
1.257226
1.254413
1.254413
1.254413
1.255726
1.305227
1.305227
1.575798
1.97781
2.38976
2.504326
2.62958
2.574266
2.570141
2.483138
2.483138
2.155753
1.886683
1.436856
1.256663
1.254226
1.254413
1.254601
1.254976
1.300915
1.300915
1.581798
1.96206
2.393886
2.514264
2.568828
2.638018
2.572579
2.492514
2.159878
2.159878
1.899245
1.495546
1.285352
1.254413
1.254601
1.254413
1.254413
1.29904
1.580861
1.580861
1.96881
2.409823
2.656206
2.575766
2.571078
2.611767
2.240318
1.883495
1.468357
1.468357
1.29904
1.257038
1.254788
1.254788
1.258538
1.363354
1.47267
1.88012
2.361634
2.361634
2.468513
2.581016
2.569578
2.569016
2.505076
2.346447
1.893058
1.457669
1.289852
1.289852
1.255538
1.254601
1.254413
1.258351
1.336166
1.520484
1.791805
2.324696
2.482388
2.482388
2.540328
2.571266
2.565828
2.495326
2.384135
2.004811
1.448857
1.298852
1.298852
1.255726
1.254788
1.254601
1.257601
1.358854
1.528172
1.844681
2.303883
2.500389
2.500389
2.513327
2.564141
2.569578
2.488951
2.355822
2.104939
1.530984
1.280664
1.257601
1.257601
1.254788
1.254788
1.257601
1.350604
1.499296
1.868495
2.270882
2.491201
2.519889
2.519889
2.564516
2.565828
2.493451
2.372135
2.056375
1.592111
1.267164
1.256851
1.254601
1.254601
1.254788
1.254601
1.320603
1.479983
1.80118
2.302383
2.483513
2.520264
2.520264
2.576516
2.558516
2.493826
2.391073
2.062001
1.599049
1.288164
1.254976
1.254413
1.254413
1.254788
1.254226
1.290977
1.479608
1.790305
2.333696
2.487076
2.520827
2.585891
2.585891
2.573704
2.501701
2.38001
2.098001
1.706865
1.307477
1.254413
1.254601
1.254601
1.254601
1.254601
1.257226
1.449044
1.714927
2.212943
2.557016
2.517452
2.582141
2.569016
2.569016
2.519514
2.374573
2.070251
1.647988
1.292852
1.254788
1.254601
1.254601
1.254601
1.254601
1.255726
1.377229
1.646488
2.085251
2.557953
2.534702
2.571828
2.560391
2.560391
2.558516
2.339884
2.06425
1.673301
1.287602
1.254413
1.254601
1.254788
1.254788
1.254788
1.255913
1.352291
1.620799
2.057688
2.453137
2.617767
2.572954
2.563016
2.553265
2.553265
2.348509
2.062188
1.722615
1.294165
1.254788
1.254413
1.254976
1.254601
1.255538
1.255538
1.343479
1.602611
2.023749
2.420887
2.567328
2.599579
2.567141
2.563953
2.384885
2.384885
2.080564
1.776992
1.351354
1.258351
1.254226
1.254601
1.254601
1.265289
1.265289
1.456544
1.745303
2.212193
2.503389
2.538265
2.653394
2.594329
2.583829
2.471888
2.471888
2.175254
1.875807
1.430481
1.257038
1.254226
1.254413
1.254601
1.257788
1.374042
1.374042
1.627737
2.041
2.431387
2.517452
2.589079
2.621893
2.562453
2.437012
2.091251
2.091251
1.802493
1.435919
1.259288
1.254413
1.254601
1.254413
1.254413
1.338416
1.605799
1.605799
2.038
2.462888
2.518202
2.579891
2.623955
2.574641
2.446012
2.120502
2.120502
1.803243
1.436669
1.282539
1.254413
1.254788
1.254601
1.255726
1.304852
1.56586
1.56586
2.068563
2.43945
2.517827
2.582329
2.578954
2.643268
2.476576
2.13644
1.840744
1.840744
1.442107
1.297165
1.254413
1.254601
1.254601
1.255726
1.311228
1.526484
2.005749
2.005749
2.425011
2.512952
2.587016
2.573704
2.590767
2.569203
2.172254
1.850869
1.446419
1.446419
1.291914
1.257038
1.254788
1.254601
1.257038
1.352666
1.46592
1.950435
1.950435
2.404948
2.474513
2.584579
2.576329
2.561516
2.603517
2.236943
1.839806
1.454669
1.454669
1.285727
1.255913
1.254976
1.254601
1.256476
1.344416
1.498358
1.857244
2.36576
2.36576
2.469826
2.569391
2.560203
2.552703
2.498701
2.340822
1.873557
1.422981
1.282352
1.282352
1.255351
1.254976
1.254601
1.256101
1.340853
1.503983
1.806805
2.327696
2.486701
2.486701
2.530765
2.568453
2.552703
2.491388
2.339884
1.995248
1.421668
1.284977
1.256101
1.256101
1.254976
1.254788
1.257038
1.353979
1.522547
1.860244
2.29807
2.488389
2.488389
2.518389
2.568641
2.558703
2.488201
2.315696
2.041562
1.496483
1.271101
1.254788
1.254788
1.254788
1.254788
1.256663
1.344791
1.497608
1.860807
2.272757
2.493451
2.521577
2.521577
2.575391
2.562078
2.483701
2.384323
2.05375
1.603362
1.263976
1.257038
1.254601
1.254601
1.254601
1.254226
1.337478
1.508859
1.872807
2.374948
2.495889
2.53714
2.592642
2.592642
2.565453
2.496826
2.382823
2.090501
1.647238
1.29529
1.255163
1.254601
1.254601
1.254601
1.254226
1.286289
1.469107
1.788055
2.313633
2.497764
2.514827
2.587016
2.587016
2.584204
2.503951
2.36276
2.069876
1.629425
1.288164
1.254413
1.254976
1.254788
1.254788
1.254601
1.256288
1.414731
1.720927
2.190442
2.593017
2.514264
2.581579
2.567891
2.567891
2.53414
2.344947
2.049625
1.628675
1.280289
1.254976
1.254788
1.254976
1.254788
1.254788
1.256288
1.373667
1.671614
2.133253
2.54464
2.557203
2.576329
2.568266
2.555328
2.555328
2.339134
2.062563
1.691302
1.286477
1.255163
1.254601
1.254976
1.254788
1.254788
1.258538
1.379855
1.696927
2.136815
2.468513
2.63558
2.590017
2.581204
2.566953
2.566953
2.387135
2.11094
1.743428
1.311415
1.256101
1.254226
1.254788
1.254601
1.257788
1.257788
1.381542
1.651925
2.123127
2.468888
2.555515
2.617955
2.572579
2.563016
2.38001
2.38001
2.06125
1.754116
1.335041
1.254788
1.254413
1.254788
1.254788
1.256101
1.356979
1.356979
1.630925
2.114315
2.4552
2.518764
2.638018
2.578954
2.565078
2.39426
2.39426
2.083189
1.767991
1.38623
1.255913
1.254226
1.254413
1.254788
1.256101
1.352666
1.352666
1.620237
2.076813
2.472638
2.520264
2.580079
2.640831
2.560953
2.417324
2.097439
2.097439
1.751491
1.418106
1.260038
1.254413
1.254788
1.254413
1.254601
1.332228
1.599236
1.599236
2.06125
2.470388
2.520077
2.574454
2.598267
2.599017
2.425761
2.085814
1.758241
1.758241
1.418293
1.281977
1.254413
1.254788
1.254601
1.255351
1.278977
1.594924
1.594924
2.047563
2.436825
2.511639
2.585516
2.574641
2.633518
2.480701
2.116752
1.79668
1.79668
1.410981
1.276539
1.254601
1.254788
1.254601
1.256288
1.31329
1.506046
1.999561
1.999561
2.423136
2.509202
2.580266
2.572016
2.562266
2.593204
2.115064
1.783554
1.423543
1.423543
1.277289
1.254976
1.254788
1.254788
1.256476
1.338416
1.46517
1.947434
2.404761
2.404761
2.479388
2.588517
2.573891
2.555703
2.566016
2.237131
1.813368
1.416231
1.416231
1.274664
1.255351
1.254601
1.254601
1.256288
1.339541
1.494983
1.87637
2.38751
2.38751
2.490826
2.568641
2.571266
2.559078
2.483888
2.353009
1.886308
1.405168
1.280664
1.280664
1.254976
1.254788
1.254788
1.258163
1.347416
1.558548
1.878995
2.362197
2.487076
2.487076
2.52964
2.574829
2.560578
2.488201
2.332946
2.008374
1.401605
1.274664
1.255538
1.255538
1.254788
1.254788
1.257976
1.347979
1.532297
1.908808
2.334071
2.475638
2.522139
2.522139
2.569766
2.557016
2.485201
2.312883
2.026562
1.469295
1.266789
1.255163
1.255163
1.254788
1.254788
1.256476
1.342541
1.48992
1.906933
2.299383
2.502076
2.517639
2.517639
2.583454
2.564891
2.493264
2.323383
2.005374
1.526484
1.257788
1.255163
1.254788
1.254788
1.254788
1.254413
1.31779
1.464607
1.826868
2.358072
2.47395
2.519139
2.584579
2.584579
2.557391
2.487826
2.340259
2.015499
1.536797
1.282727
1.254413
1.254976
1.254788
1.254788
1.254413
1.273726
1.442857
1.772304
2.330321
2.510514
2.521389
2.583266
2.583266
2.646831
2.410011
2.019249
1.626237
1.284039
1.255538
1.254601
1.254601
1.254788
1.265476
1.265476
1.441919
1.758429
2.244256
2.496639
2.537327
2.644581
2.580266
2.54164
2.356385
2.356385
2.039875
1.659238
1.32379
1.254976
1.254601
1.254601
1.254601
1.264914
1.430106
1.430106
1.746803
2.250069
2.502639
2.536765
2.615892
2.603329
2.542578
2.373635
2.027687
2.027687
1.636175
1.357166
1.254788
1.254788
1.254788
1.254601
1.256663
1.370854
1.370854
1.700864
2.186129
2.490826
2.538265
2.576329
2.642706
2.54164
2.350197
1.981935
1.981935
1.596424
1.362979
1.261539
1.254601
1.254788
1.254226
1.260601
1.398418
1.767054
1.767054
2.306883
2.500014
2.564891
2.604267
2.599392
2.626018
2.480138
2.147128
1.774179
1.774179
1.415481
1.285914
1.254413
1.254788
1.254601
1.278227
1.401605
1.707615
2.245381
2.245381
2.475638
2.556078
2.592079
2.580829
2.602017
2.498889
2.080376
1.687176
1.687176
1.376667
1.274476
1.254976
1.254788
1.254788
1.265851
1.366729
1.590236
2.13269
2.13269
2.461763
2.52739
2.589642
2.577079
2.543328
2.588892
2.125752
1.698052
1.381542
1.381542
1.269226
1.255163
1.254976
1.254601
1.261163
1.375917
1.552172
2.062001
2.4492
2.4492
2.490826
2.587579
2.573704
2.538827
2.492889
2.22663
1.688676
1.356979
1.268476
1.268476
1.254976
1.254976
1.254601
1.262101
1.370479
1.599424
1.992436
2.410761
2.494201
2.494201
2.560953
2.572579
2.53339
2.465138
2.252506
1.793492
1.31404
1.264164
1.264164
1.255163
1.254788
1.254976
1.263226
1.360167
1.581986
1.977998
2.394448
2.494576
2.494576
2.543515
2.567516
2.539015
2.476951
2.219505
1.885558
1.331103
1.260038
1.255538
1.255538
1.254976
1.254788
1.264164
1.359792
1.577486
2.058625
2.380948
2.499451
2.541078
2.541078
2.573704
2.54164
2.482013
2.268819
1.927371
1.403668
1.256663
1.254976
1.254788
1.254788
1.254788
1.255538
1.345166
1.550297
2.005936
2.391448
2.496451
2.539015
2.539015
2.583079
2.54014
2.475826
2.258881
1.906933
1.396355
1.259851
1.254601
1.254788
1.254788
1.254976
1.254413
1.30504
1.530984
1.923809
2.437199
2.498514
2.54239
2.588892
2.588892
2.563766
2.483138
2.279882
1.97031
1.453169
1.268101
1.254413
1.254601
1.254788
1.254788
1.254413
1.272414
1.533797
1.897183
2.375323
2.560203
2.553265
2.590767
2.578016
2.578016
2.502264
2.261319
1.999936
1.470982
1.262851
1.254601
1.254788
1.254788
1.254788
1.254413
1.265664
1.482983
1.825556
2.259444
2.614017
2.550828
2.576516
2.575204
2.575204
2.513702
2.234506
1.955685
1.469295
1.258726
1.254413
1.254788
1.254788
1.254413
1.254413
1.262101
1.410606
1.773804
2.242381
2.524015
2.60858
2.581204
2.572579
2.518389
2.518389
2.227755
1.972935
1.531359
1.258163
1.254413
1.254788
1.254788
1.254601
1.264539
1.264539
1.449232
1.794992
2.262444
2.503764
2.612705
2.592454
2.569953
2.534702
2.534702
2.289257
2.008561
1.596611
1.284789
1.254601
1.254601
1.254788
1.254788
1.265664
1.265664
1.435544
1.745116
2.273319
2.509014
2.545203
2.644393
2.575579
2.530765
2.314945
2.314945
1.981748
1.604299
1.311228
1.254601
1.254788
1.254601
1.254788
1.262851
1.408731
1.408731
1.746803
2.252881
2.508077
2.54314
2.604455
2.605392
2.533577
2.344384
2.007436
2.007436
1.606737
1.356041
1.254788
1.254788
1.254601
1.254601
1.256663
1.409293
1.409293
1.760679
2.250256
2.509952
2.551015
2.586079
2.641768
2.548765
2.37926
2.010624
2.010624
1.588361
1.357729
1.258351
1.254788
1.254976
1.254226
1.258351
1.358854
1.682489
1.682489
2.21238
2.483513
2.54989
2.583266
2.579704
2.623393
2.428949
2.018312
1.635987
1.635987
1.373104
1.270539
1.254601
1.254788
1.254601
1.265476
1.356979
1.650238
2.202067
2.202067
2.460075
2.547828
2.584391
2.575954
2.596392
2.500764
2.023749
1.645175
1.371792
1.371792
1.267726
1.254976
1.254788
1.254601
1.267726
1.40723
1.627362
2.165129
2.165129
2.470388
2.53864
2.588704
2.581579
2.53339
2.589642
2.100252
1.670864
1.368229
1.368229
1.269039
1.255538
1.254788
1.254601
1.267164
1.411356
1.576361
2.106064
2.4492
2.4492
2.494576
2.586641
2.571828
2.533577
2.498701
2.20788
1.668801
1.351354
1.264539
1.264539
1.254976
1.254601
1.254788
1.267914
1.400855
1.636175
2.062751
2.443199
2.507889
2.507889
2.564328
2.578954
2.539015
2.471138
2.265632
1.798555
1.315728
1.263039
1.263039
1.254976
1.254788
1.254788
1.270351
1.39223
1.637862
2.050562
2.415074
2.495139
2.495139
2.559453
2.578204
2.539577
2.474513
2.259069
1.902996
1.330353
1.260788
1.255538
1.255538
1.254788
1.254601
1.268289
1.391105
1.630175
2.123502
2.403261
2.499451
2.559641
2.559641
2.578766
2.542578
2.478451
2.248756
1.905808
1.377604
1.256101
1.254788
1.254788
1.254788
1.254788
1.256288
1.352291
1.561548
2.042875
2.397636
2.503764
2.547453
2.547453
2.583266
2.533577
2.454638
2.228318
1.87112
1.374979
1.258726
1.254788
1.254788
1.254788
1.254976
1.254413
1.30729
1.529109
1.936747
2.450512
2.498514
2.55214
2.582141
2.582141
2.562078
2.467575
2.239568
1.940872
1.404605
1.262476
1.254413
1.254788
1.254788
1.254788
1.254413
1.271476
1.535297
1.910496
2.38901
2.565266
2.561328
2.590392
2.582704
2.582704
2.502076
2.248756
1.992061
1.462357
1.261913
1.254788
1.254601
1.254601
1.254601
1.254601
1.269601
1.520484
1.884058
2.317008
2.60633
2.569016
2.588142
2.585704
2.585704
2.538077
2.253819
2.008374
1.496296
1.261351
1.254413
1.254976
1.254788
1.254226
1.254226
1.272414
1.473607
1.851807
2.284757
2.52739
2.62208
2.583829
2.578016
2.530015
2.530015
2.230193
1.984373
1.513546
1.260601
1.254226
1.254976
1.254601
1.254601
1.265289
1.265289
1.456919
1.826868
2.278944
2.512014
2.610642
2.594892
2.571453
2.527765
2.527765
2.252881
1.973685
1.544297
1.274664
1.254601
1.254601
1.254976
1.254788
1.265289
1.265289
1.441356
1.772867
2.29507
2.507139
2.556453
2.646081
2.574454
2.529827
2.296383
2.296383
1.972748
1.585173
1.315353
1.254413
1.254601
1.254601
1.254788
1.269414
1.46367
1.46367
1.807555
2.30482
2.493264
2.567141
2.599954
2.62058
2.537515
2.356197
2.014936
2.014936
1.605986
1.354354
1.254788
1.254601
1.254601
1.254413
1.257413
1.436294
1.790867
1.790867
2.290757
2.517639
2.566203
2.590392
2.637081
2.550078
2.376635
2.011186
2.011186
1.591736
1.353791
1.262476
1.254601
1.254788
1.254601
1.262476
1.39223
1.746803
1.746803
2.271257
2.486888
2.568078
2.579704
2.578579
2.62958
2.404948
2.001061
1.610674
1.610674
1.360729
1.263414
1.254601
1.254788
1.254413
1.269976
1.370104
1.680989
2.219318
2.219318
2.469075
2.563766
2.583079
2.575954
2.580266
2.508452
2.002561
1.611612
1.357916
1.357916
1.264351
1.254976
1.254788
1.254788
1.268289
1.413418
1.611612
2.165691
2.165691
2.470575
2.535265
2.582704
2.576704
2.534515
2.576329
1.592674
1.281789
1.257226
1.254976
1.254976
1.254788
1.254601
1.276164
1.434231
1.658301
2.205255
2.456887
2.514452
2.574829
2.574829
2.565453
2.515764
2.437199
2.135315
1.772492
1.32379
1.255351
1.254788
1.254788
1.254976
1.254788
1.259288
1.401043
1.634675
2.165879
2.469638
2.516889
2.581579
2.581579
2.573328
2.52439
2.436637
2.168879
1.788242
1.336541
1.254788
1.254601
1.254788
1.254788
1.254601
1.254413
1.342916
1.588173
2.032187
2.525702
2.510139
2.573328
2.569203
2.569203
2.543328
2.417136
2.139628
1.799305
1.30804
1.256101
1.254788
1.254976
1.254601
1.254601
1.254413
1.276539
1.532109
1.968998
2.432324
2.560203
2.577641
2.571641
2.572204
2.572204
2.462888
2.185379
1.928309
1.425043
1.272039
1.256663
1.254788
1.254601
1.254601
1.255726
1.31779
1.702739
2.06425
2.453512
2.631643
2.593392
2.584766
2.587766
2.587766
2.508639
2.21088
1.957185
1.413793
1.259101
1.254226
1.254601
1.254976
1.254601
1.254601
1.288539
1.55161
1.961872
2.395761
2.53489
2.618892
2.573891
2.575579
2.491201
2.491201
2.13419
1.88837
1.415668
1.255351
1.254226
1.254788
1.254788
1.254413
1.276539
1.276539
1.522171
1.943309
2.362197
2.505076
2.624705
2.578766
2.574266
2.486513
2.486513
2.143565
1.905246
1.473795
1.256288
1.254413
1.254788
1.254976
1.254601
1.272976
1.272976
1.536797
1.906746
2.391448
2.513889
2.578954
2.646831
2.575766
2.508639
2.167004
2.167004
1.89362
1.491796
1.273914
1.254601
1.254788
1.254601
1.254413
1.276914
1.48917
1.48917
1.87562
2.361447
2.501701
2.568828
2.596579
2.596392
2.493639
2.181254
1.863619
1.863619
1.469482
1.297915
1.254413
1.254788
1.254601
1.254601
1.260976
1.425981
1.425981
1.836806
2.305945
2.489888
2.572204
2.560391
2.642706
2.518952
2.233568
1.881432
1.881432
1.481108
1.313102
1.254601
1.254601
1.254601
1.254601
1.268476
1.423356
1.832118
1.832118
2.339884
2.506389
2.578579
2.570703
2.580641
2.607455
2.275569
1.89587
1.497046
1.497046
1.31254
1.256851
1.254788
1.254976
1.254601
1.276164
1.398793
1.778492
2.327321
2.327321
2.476763
2.577641
2.567703
2.571828
2.572954
2.384323
1.899621
1.495921
1.495921
1.305977
1.255351
1.254788
1.254601
1.254788
1.276164
1.427481
1.671614
2.234506
2.234506
2.477888
2.552703
2.567703
2.564516
2.506951
2.466825
1.919871
1.479233
1.300352
1.300352
1.255538
1.255163
1.254788
1.254788
1.275414
1.455044
1.655301
2.189317
2.475451
2.475451
2.510889
2.557391
2.565266
2.504514
2.421824
2.030687
1.48167
1.298477
1.255913
1.255913
1.254788
1.254788
1.255163
1.275601
1.445857
1.681176
2.14694
2.471138
2.512952
2.512952
2.559641
2.568641
2.496076
2.399698
2.088251
1.595299
1.281414
1.255538
1.255538
1.254788
1.255163
1.254788
1.276914
1.426731
1.656613
2.120315
2.441324
2.503014
2.503014
2.560203
2.559641
2.497201
2.392948
2.038562
1.638238
1.279539
1.254976
1.254788
1.254788
1.254976
1.254601
1.267351
1.410606
1.604486
2.163253
2.425199
2.494389
2.571453
2.571453
2.546703
2.488951
2.390886
2.052438
1.668426
1.303352
1.254413
1.254788
1.254788
1.254788
1.254601
1.256288
1.38623
1.565485
2.091251
2.434762
2.497951
2.558516
2.558516
2.554953
2.512389
2.394448
2.064063
1.689239
1.299415
1.254413
1.254788
1.254976
1.254976
1.254788
1.254226
1.332603
1.554047
1.984186
2.512014
2.496076
2.559078
2.557766
2.557766
2.543703
2.407386
2.102502
1.764991
1.314228
1.255163
1.254601
1.254601
1.254788
1.254788
1.254413
1.287039
1.546735
1.980998
2.443949
2.563578
2.569766
2.563766
2.565453
2.565453
2.404761
2.100814
1.784679
1.317415
1.254976
1.254601
1.254976
1.254788
1.254788
1.254413
1.287789
1.580486
1.97406
2.388448
2.614955
2.579891
2.569953
2.572204
2.572204
2.436262
2.129315
1.867745
1.354354
1.255538
1.254413
1.254788
1.254976
1.254601
1.254601
1.287602
1.539235
1.948372
2.38526
2.523827
2.626205
2.573141
2.576516
2.471138
2.471138
2.103627
1.862869
1.396168
1.255351
1.254413
1.254601
1.254788
1.254601
1.278414
1.278414
1.511296
1.951747
2.371947
2.504701
2.620205
2.585141
2.573704
2.486513
2.114127
2.114127
1.859307
1.456732
1.256476
1.254601
1.254601
1.254788
1.254601
1.284602
1.284602
1.551235
1.939372
2.407386
2.514264
2.579329
2.647768
2.580641
2.497389
2.167004
2.167004
1.884995
1.506234
1.280289
1.254413
1.254601
1.254601
1.254413
1.286852
1.530422
1.530422
1.953435
2.408136
2.512202
2.582704
2.594329
2.612705
2.507139
2.192504
1.894558
1.894558
1.473795
1.308415
1.254226
1.254788
1.254601
1.254601
1.263414
1.470045
1.902246
1.902246
2.353947
2.502076
2.570141
2.569578
2.628643
2.522514
2.181254
1.848431
1.848431
1.463295
1.306915
1.254788
1.254976
1.254601
1.254601
1.275976
1.412106
1.826681
1.826681
2.357884
2.488201
2.574454
2.562266
2.565453
2.61383
2.239756
1.854057
1.466482
1.466482
1.295102
1.255538
1.254976
1.254788
1.254976
1.282539
1.394105
1.788242
2.316821
2.316821
2.4612
2.578204
2.563766
2.571266
2.558328
2.362572
1.875245
1.473045
1.295852
1.295852
1.255163
1.254788
1.254788
1.254976
1.290039
1.452419
1.714365
2.290007
2.290007
2.489138
2.556641
2.564516
2.570141
2.496639
2.423887
1.933746
1.454482
1.295102
1.295102
1.255163
1.254976
1.254788
1.254976
1.286289
1.450357
1.686802
2.195504
2.482763
2.482763
2.510514
2.556078
2.567328
2.504139
2.382073
2.081313
1.484483
1.285539
1.255163
1.255163
1.254976
1.254788
1.254788
1.293977
1.448857
1.761241
2.20413
2.483888
2.516889
2.516889
2.561141
2.574641
2.499451
2.38976
2.072126
1.588923
1.272226
1.256101
1.256101
1.254788
1.254788
1.254601
1.291914
1.463107
1.761241
2.208817
2.4627
2.515577
2.515577
2.585141
2.570516
2.495326
2.398948
2.019999
1.644238
1.282164
1.255163
1.254976
1.254976
1.254788
1.254601
1.275226
1.440981
1.689989
2.250444
2.466638
2.515764
2.575766
2.575766
2.556078
2.491201
2.39126
2.066125
1.659988
1.301102
1.254226
1.254788
1.254976
1.254976
1.254788
1.255726
1.393543
1.6343
2.147503
2.507139
2.506014
2.571453
2.566766
2.566766
2.520264
2.360697
2.076626
1.665613
1.29454
1.254601
1.254601
1.254976
1.254976
1.254788
1.254413
1.341603
1.604861
2.059375
2.553828
2.513702
2.574829
2.567328
2.567328
2.565266
2.381323
2.097251
1.734803
1.311228
1.254788
1.254788
1.254788
1.254788
1.254788
1.254788
1.304852
1.632425
2.022624
2.452762
2.594141
2.582516
2.571078
2.578016
2.578016
2.392761
2.089751
1.79518
1.30879
1.256663
1.254413
1.254976
1.254601
1.254788
1.254788
1.307477
1.606174
1.996936
2.414136
2.593204
2.587579
2.571266
2.570703
2.570703
2.425011
2.086564
1.81318
1.338603
1.255538
1.254226
1.254788
1.254976
1.254601
1.254601
1.296414
1.55761
2.007811
2.415636
2.509952
2.644018
2.567703
2.578579
2.446012
2.446012
2.083376
1.821993
1.377604
1.254413
1.254976
1.254788
1.256663
1.29679
1.479983
2.004999
2.004999
2.430262
2.505826
2.577266
2.569203
2.557766
2.574454
2.089189
1.732553
1.409855
1.409855
1.264726
1.254601
1.254976
1.254976
1.255351
1.346479
1.437794
1.924934
2.409074
2.409074
2.480138
2.578954
2.567891
2.555328
2.571266
2.181254
1.750554
1.403105
1.403105
1.266226
1.254601
1.254976
1.254976
1.255726
1.331291
1.457857
1.857807
2.376447
2.376447
2.471325
2.563016
2.571828
2.554203
2.492326
2.296383
1.825181
1.37873
1.266414
1.266414
1.255163
1.254788
1.254976
1.255726
1.328853
1.493671
1.810555
2.338384
2.481826
2.481826
2.524577
2.563953
2.554578
2.483326
2.28832
1.935622
1.367854
1.265664
1.254601
1.254601
1.254976
1.254788
1.255726
1.329416
1.48992
1.860057
2.296195
2.492701
2.492701
2.516702
2.568828
2.54614
2.479201
2.275194
1.999561
1.431794
1.263039
1.254976
1.254976
1.254788
1.254788
1.255726
1.325478
1.456544
1.849556
2.264882
2.493076
2.523077
2.523077
2.569203
2.55514
2.487638
2.313633
1.965247
1.512796
1.257976
1.254976
1.254976
1.254976
1.254788
1.254413
1.319665
1.463482
1.824618
2.35676
2.484451
2.519514
2.581579
2.581579
2.559453
2.483138
2.352447
2.004061
1.537547
1.282539
1.254413
1.254788
1.254788
1.254788
1.254601
1.275789
1.441919
1.769866
2.328259
2.507514
2.519702
2.584391
2.584391
2.576704
2.500201
2.348884
2.030124
1.55836
1.277101
1.254413
1.254976
1.254976
1.254976
1.254601
1.256101
1.411543
1.723928
2.206192
2.599017
2.520452
2.581391
2.571078
2.571078
2.521952
2.323571
2.031437
1.590611
1.277664
1.254413
1.254976
1.254788
1.254601
1.254601
1.255726
1.355666
1.685301
2.12594
2.521202
2.554765
2.580266
2.566766
2.566766
2.554203
2.335009
2.010811
1.633925
1.275789
1.254601
1.254601
1.254976
1.254601
1.254601
1.255351
1.337291
1.635425
2.057313
2.459137
2.627705
2.575954
2.556453
2.54014
2.54014
2.30107
1.986248
1.618737
1.268664
1.254226
1.254601
1.254976
1.254788
1.254788
1.254788
1.320228
1.560798
2.048687
2.454638
2.537702
2.61533
2.568828
2.545203
2.368572
2.368572
2.0665
1.794055
1.368229
1.261726
1.254226
1.254413
1.254413
1.265101
1.412293
1.412293
1.719427
2.194942
2.507326
2.52814
2.634455
2.584579
2.566766
2.394073
2.394073
2.049438
1.700864
1.362979
1.254601
1.254413
1.254601
1.254788
1.255351
1.325853
1.325853
1.594924
2.055063
2.460263
2.507889
2.574454
2.638018
2.551015
2.358259
2.032375
2.032375
1.658301
1.375355
1.255726
1.254413
1.254788
1.254788
1.254413
1.328665
1.57336
1.57336
2.095752
2.471888
2.521577
2.576516
2.609142
2.586079
2.405511
2.073063
1.712865
1.712865
1.392043
1.266789
1.254413
1.254788
1.254601
1.256663
1.29529
1.580111
1.580111
2.096127
2.443574
2.524202
2.584954
2.577079
2.639518
2.454075
2.100064
1.758616
1.758616
1.408543
1.281414
1.254601
1.254788
1.254601
1.257601
1.299977
1.537359
2.065938
2.065938
2.443012
2.526077
2.588704
2.576329
2.572204
2.582516
2.159503
1.80568
1.421106
1.421106
1.279352
1.255726
1.254788
1.254601
1.258913
1.345916
1.527422
2.025624
2.440012
2.440012
2.500764
2.589829
2.581391
2.560016
2.575204
2.268257
1.828556
1.419606
1.419606
1.278602
1.255538
1.254788
1.254601
1.257788
1.340291
1.545047
1.912371
2.415261
2.415261
2.483326
2.568641
2.568078
2.549515
2.486513
2.315508
1.835681
1.373667
1.272601
1.272601
1.255163
1.254788
1.254601
1.257413
1.322853
1.506234
1.833056
2.339696
2.485763
2.485763
2.520452
2.571266
2.550265
2.476763
2.30182
1.949309
1.38323
1.271851
1.254788
1.254788
1.254788
1.254788
1.261351
1.336728
1.529297
1.932621
2.337446
2.487076
2.487076
2.521389
2.573141
2.55364
2.487826
2.299195
2.051125
1.472107
1.263976
1.255351
1.255351
1.254788
1.254788
1.256476
1.331478
1.499483
1.931121
2.31532
2.487263
2.52664
2.52664
2.574641
2.549515
2.490451
2.320571
1.992998
1.510921
1.255913
1.255726
1.254601
1.254601
1.254788
1.254601
1.314603
1.47792
1.848994
2.362947
2.486326
2.522889
2.582516
2.582516
2.554578
2.480888
2.315696
1.97781
1.514296
1.267726
1.254413
1.254788
1.254788
1.254788
1.254601
1.270726
1.417168
1.748491
2.300695
2.514264
2.506389
2.566578
2.566578
2.562078
2.489326
2.300133
1.965247
1.506421
1.264164
1.254413
1.254788
1.254788
1.254788
1.254601
1.256288
1.394105
1.729178
2.185942
2.595454
2.511827
2.581016
2.568078
2.568078
2.514827
2.306133
2.017187
1.575423
1.271664
1.254226
1.254788
1.254976
1.254601
1.254601
1.257038
1.365229
1.71699
2.167941
2.535265
2.573516
2.585516
2.571641
2.55439
2.55439
2.312883
2.041187
1.627737
1.274851
1.254413
1.254788
1.254788
1.254601
1.254601
1.257413
1.370854
1.713802
2.166816
2.487263
2.627517
2.592642
2.568266
2.54464
2.54464
2.347009
2.041937
1.674989
1.284227
1.255163
1.254413
1.254788
1.254601
1.257601
1.257601
1.370854
1.667301
2.174691
2.496826
2.523639
2.632768
2.573704
2.551015
2.364072
2.364072
2.032375
1.715302
1.323415
1.255163
1.254413
1.254601
1.254601
1.257038
1.367667
1.367667
1.640863
2.150503
2.493639
2.526452
2.624518
2.589829
2.553078
2.37176
2.37176
2.04025
1.694302
1.382105
1.254601
1.254601
1.254788
1.254601
1.256476
1.346854
1.346854
1.674801
2.137378
2.488763
2.530577
2.590017
2.649831
2.554953
2.413574
2.070626
2.070626
1.711552
1.401793
1.261726
1.254413
1.254788
1.254226
1.255726
1.351916
1.679676
1.679676
2.159691
2.500014
2.521577
2.580079
2.591142
2.601079
2.420699
2.085626
1.721865
1.721865
1.39223
1.267351
1.254413
1.254601
1.254601
1.258726
1.30729
1.602049
1.602049
2.124253
2.441324
2.528515
2.586641
2.581016
2.62958
2.461388
2.087689
1.73349
1.73349
1.394105
1.271476
1.254601
1.254788
1.254788
1.256851
1.303165
1.530984
2.036125
2.036125
2.444512
2.522139
2.582704
2.567516
2.560016
2.574829
2.118815
1.734803
1.401418
1.401418
1.266976
1.254976
1.254976
1.254788
1.258163
1.332041
1.495546
1.987936
2.430824
2.430824
2.486513
2.585891
2.573704
2.550828
2.53939
2.246319
1.763304
1.39148
1.266226
1.266226
1.255726
1.254788
1.254788
1.260976
1.338041
1.554985
1.948372
2.409261
2.409261
2.487826
2.561141
2.574641
2.551015
2.479576
2.315508
1.834931
1.375729
1.272976
1.272976
1.255726
1.254601
1.254413
1.260976
1.342916
1.568298
1.941059
2.377948
2.490263
2.490263
2.534328
2.573704
2.55214
2.485201
2.29432
1.96956
1.378355
1.271476
1.254976
1.254976
1.254788
1.254601
1.258913
1.339353
1.548047
1.998811
2.340822
2.486326
2.53189
2.53189
2.572579
2.547453
2.478638
2.278007
1.976498
1.449607
1.258538
1.255351
1.255351
1.254788
1.254788
1.256101
1.331853
1.523672
1.957747
2.346822
2.488763
2.535077
2.535077
2.587391
2.551765
2.480513
2.306695
1.97781
1.48542
1.258538
1.255538
1.254788
1.254601
1.254413
1.265476
1.482983
1.839056
2.266757
2.606517
2.563766
2.582141
2.571641
2.571641
2.530202
2.237318
1.971998
1.503421
1.261913
1.254601
1.254976
1.254976
1.254413
1.254413
1.262101
1.430856
1.802868
2.236381
2.507514
2.63558
2.585516
2.568828
2.520639
2.520639
2.229443
1.977435
1.535484
1.257976
1.254413
1.254788
1.254788
1.254601
1.262476
1.262476
1.415856
1.783367
2.234693
2.501514
2.582704
2.60633
2.572391
2.527202
2.278382
2.278382
1.973498
1.575236
1.279914
1.254413
1.254601
1.254788
1.254788
1.263414
1.420543
1.420543
1.728615
2.237506
2.500389
2.542953
2.644581
2.573704
2.532452
2.296945
2.296945
1.971623
1.583673
1.321915
1.254601
1.254788
1.254601
1.254601
1.260788
1.407793
1.407793
1.734615
2.21538
2.494014
2.553078
2.586079
2.62283
2.529265
2.333509
1.982498
1.982498
1.586111
1.345166
1.254788
1.254788
1.254788
1.254601
1.254976
1.39973
1.729928
1.729928
2.215193
2.495889
2.553265
2.581579
2.623393
2.562828
2.36801
1.994498
1.994498
1.601486
1.362604
1.263039
1.254788
1.254788
1.254413
1.263039
1.360541
1.683426
1.683426
2.229443
2.464763
2.554203
2.578954
2.571641
2.631643
2.418636
1.995811
1.625862
1.625862
1.355479
1.261913
1.254788
1.254788
1.254601
1.265101
1.363354
1.625862
2.166066
2.166066
2.44995
2.550828
2.570891
2.564141
2.555328
2.527202
2.010249
1.614987
1.358854
1.358854
1.258726
1.254976
1.254601
1.254601
1.262851
1.40348
1.55311
2.119752
2.450137
2.450137
2.511827
2.575766
2.571266
2.524015
2.556078
2.125752
1.653613
1.361854
1.361854
1.261539
1.254976
1.254788
1.254601
1.267914
1.398418
1.608612
2.067626
2.440387
2.440387
2.502076
2.571266
2.567703
2.53414
2.46645
2.20413
1.662801
1.325103
1.260788
1.260788
1.255163
1.254976
1.254601
1.262476
1.38548
1.606174
1.998249
2.413386
2.493451
2.493451
2.553265
2.566953
2.524202
2.453512
2.187442
1.80118
1.297915
1.263601
1.254976
1.254976
1.254601
1.254788
1.265289
1.377229
1.591736
2.052063
2.384323
2.497389
2.497389
2.545203
2.560203
2.524765
2.456325
2.188942
1.855182
1.332228
1.258351
1.254976
1.254976
1.254976
1.254976
1.260038
1.371604
1.563235
2.05075
2.358634
2.491388
2.551953
2.551953
2.570703
2.527765
2.454262
2.222505
1.863807
1.372729
1.254601
1.254788
1.254976
1.254976
1.254976
1.254413
1.338978
1.539422
1.976685
2.421449
2.497951
2.545953
2.571641
2.571641
2.53714
2.460263
2.217818
1.884807
1.378355
1.257788
1.254601
1.254788
1.254788
1.254788
1.254038
1.29529
1.530047
1.896058
2.428199
2.506576
2.548203
2.581016
2.581016
2.568266
2.4657
2.215568
1.911621
1.386417
1.259101
1.254413
1.254976
1.254788
1.254788
1.254413
1.262851
1.464045
1.827618
2.295445
2.597704
2.550265
2.564891
2.563953
2.563953
2.4732
2.192879
1.958497
1.425043
1.259288
1.254413
1.254976
1.254601
1.254226
1.254226
1.282914
1.579923
1.939184
2.351509
2.592642
2.584579
2.596017
2.584391
2.584391
2.539015
2.263381
1.998999
1.48917
1.261351
1.254413
1.254788
1.254788
1.254601
1.254601
1.263414
1.425606
1.775304
2.22288
2.492139
2.641393
2.561141
2.556641
2.485389
2.485389
2.158003
1.89137
1.45992
1.257226
1.254413
1.254976
1.255163
1.254413
1.259663
1.259663
1.384355
1.696364
2.200755
2.496076
2.55289
2.611205
2.561516
2.506389
2.219505
2.219505
1.923059
1.543735
1.283477
1.254413
1.254976
1.254788
1.254601
1.263414
1.425793
1.425793
1.749803
2.247256
2.499639
2.54239
2.633705
2.570328
2.512389
2.258694
2.258694
1.942747
1.544672
1.316103
1.254226
1.254976
1.254601
1.254601
1.261539
1.401605
1.401605
1.72224
2.232818
2.492326
2.554765
2.579329
2.636893
2.524765
2.291507
1.951747
1.951747
1.55236
1.342728
1.254601
1.254601
1.254601
1.254413
1.256101
1.414918
1.734053
1.734053
2.222318
2.497576
2.544453
2.568641
2.604455
2.570516
2.351509
1.968623
1.575986
1.575986
1.353604
1.260788
1.254601
1.254788
1.254601
1.268664
1.371417
1.693552
1.693552
2.239568
2.464388
2.562828
2.579329
2.572766
2.627143
2.427636
1.998436
1.614237
1.614237
1.361854
1.268101
1.254788
1.254601
1.254601
1.269789
1.390167
1.652863
2.209755
2.209755
2.459325
2.563391
2.582891
2.579141
2.552328
2.54764
2.042687
1.624362
1.362792
1.362792
1.265851
1.255351
1.254601
1.254788
1.277851
1.441731
1.630175
2.166441
2.457263
2.457263
2.520077
2.576704
2.581016
2.530765
2.552515
2.135503
1.65005
1.347604
1.347604
1.298477
1.255538
1.254976
1.254976
1.278977
1.456544
1.687739
2.12669
2.451262
2.451262
2.503764
2.579891
2.584016
2.537327
2.475263
2.236568
1.716052
1.329978
1.262101
1.262101
1.254976
1.254601
1.254788
1.275039
1.427294
1.6538
2.061813
2.432512
2.504889
2.504889
2.563016
2.573516
2.526827
2.454825
2.182379
1.788617
1.297165
1.261539
1.254788
1.254788
1.254788
1.254788
1.267164
1.394668
1.614237
2.083189
2.400073
2.486138
2.486138
2.557953
2.551953
2.512202
2.43945
2.117877
1.748678
1.314603
1.255726
1.254788
1.254788
1.254976
1.254976
1.257601
1.353229
1.503796
1.991123
2.356385
2.489138
2.551203
2.551203
2.556078
2.499826
2.433449
2.13719
1.757116
1.322103
1.254226
1.254788
1.255163
1.255163
1.255163
1.254226
1.328853
1.485608
1.917808
2.406823
2.479388
2.54539
2.558891
2.558891
2.519514
2.444137
2.148816
1.796492
1.335603
1.255351
1.254601
1.254788
1.254788
1.254976
1.254226
1.287789
1.491233
1.908058
2.426887
2.527952
2.559828
2.563766
2.563766
2.569578
2.478263
2.192317
1.908808
1.389042
1.259851
1.254413
1.254976
1.254788
1.254788
1.254413
1.268476
1.551797
1.917246
2.331259
2.61533
2.570328
2.581579
2.576141
2.576141
2.488014
2.226255
1.955122
1.440606
1.263789
1.254601
1.254788
1.254601
1.254413
1.254413
1.276914
1.555172
1.916121
2.366135
2.565828
2.598267
2.585329
2.581016
2.539952
2.539952
2.255131
2.013249
1.519921
1.264726
1.254788
1.254788
1.254601
1.254413
1.254413
1.280664
1.55161
1.920059
2.344947
2.514264
2.642143
2.589642
2.581766
2.533765
2.533765
2.21763
1.982498
1.54936
1.268664
1.254788
1.254601
1.254788
1.254601
1.274101
1.274101
1.537922
1.871682
2.364072
2.495889
2.585891
2.622643
2.572579
2.525515
2.237881
2.237881
1.938247
1.533609
1.277289
1.254601
1.254601
1.254601
1.254601
1.269789
1.456544
1.456544
1.813368
2.320758
2.496639
2.558891
2.625643
2.584579
2.520827
2.263944
2.263944
1.962247
1.55761
1.330541
1.254601
1.254601
1.254601
1.254601
1.263414
1.455982
1.455982
1.808305
2.281569
2.506764
2.566203
2.581766
2.644581
2.516514
2.288132
1.95981
1.95981
1.534734
1.343853
1.254413
1.254788
1.254788
1.254413
1.256851
1.400293
1.737803
1.737803
2.252131
2.508264
2.556266
2.567328
2.595454
2.584391
2.314571
1.914246
1.530609
1.530609
1.317603
1.255351
1.254976
1.254788
1.254601
1.264351
1.54486
2.159128
2.473388
2.503389
2.503389
2.559828
2.566203
2.497764
2.375323
2.018312
1.569235
1.268289
1.254976
1.254976
1.254788
1.254788
1.254788
1.278789
1.440231
1.710802
2.169629
2.464388
2.515577
2.515577
2.574454
2.565641
2.498701
2.38676
2.0425
1.668613
1.284227
1.255913
1.254788
1.254788
1.254976
1.254413
1.277476
1.431606
1.697864
2.245569
2.46345
2.512389
2.577454
2.577454
2.563766
2.503201
2.386198
2.077939
1.678176
1.301477
1.254413
1.254788
1.254788
1.254788
1.254788
1.254788
1.389792
1.626237
2.137753
2.511827
2.503014
2.571078
2.558141
2.558141
2.522139
2.363697
2.063313
1.669926
1.297165
1.255163
1.254788
1.254976
1.254976
1.254788
1.254226
1.326041
1.578798
2.032
2.527952
2.512577
2.570516
2.567891
2.567891
2.564516
2.381135
2.087501
1.723365
1.296977
1.255538
1.254601
1.254788
1.254788
1.254788
1.254601
1.296602
1.595299
2.015687
2.460825
2.594892
2.581204
2.570328
2.575391
2.575391
2.402698
2.099314
1.815055
1.320603
1.256476
1.254413
1.254788
1.254788
1.254788
1.254788
1.305227
1.599424
2.007061
2.423699
2.600517
2.588892
2.573516
2.585516
2.585516
2.436825
2.13044
1.852744
1.355479
1.255351
1.254226
1.254976
1.254788
1.254788
1.254788
1.29754
1.528734
1.965247
2.37326
2.505264
2.639518
2.565266
2.568078
2.435512
2.435512
2.089189
1.820868
1.389042
1.256476
1.254226
1.254601
1.254976
1.254788
1.294165
1.294165
1.522359
1.969185
2.381698
2.509202
2.599392
2.598642
2.568828
2.466075
2.076813
2.076813
1.81093
1.446232
1.256288
1.254413
1.254788
1.254788
1.254601
1.286102
1.286102
1.515046
1.936372
2.400823
2.497201
2.571078
2.638956
2.577829
2.482201
2.110002
2.110002
1.820306
1.447732
1.274851
1.254413
1.254788
1.254601
1.254413
1.278414
1.494233
1.494233
1.929809
2.373447
2.509014
2.573704
2.573141
2.61908
2.470575
2.107002
1.799305
1.799305
1.439856
1.282727
1.254413
1.254976
1.254976
1.254601
1.263226
1.412668
1.842244
1.842244
2.334446
2.487263
2.569953
2.555703
2.61383
2.522889
2.081126
1.780742
1.780742
1.429731
1.281039
1.254788
1.254976
1.254976
1.254601
1.270914
1.366917
1.790492
1.790492
2.323008
2.476763
2.570703
2.559453
2.561703
2.613642
2.172254
1.79143
1.444357
1.444357
1.287227
1.254976
1.254788
1.254788
1.254788
1.292852
1.39148
1.761241
2.325258
2.325258
2.463638
2.573891
2.566391
2.577829
2.531515
2.356197
1.858932
1.448482
1.291539
1.291539
1.255538
1.254788
1.254976
1.255163
1.296227
1.482233
1.743053
2.29882
2.487826
2.487826
2.543515
2.571453
2.577454
2.499826
2.425011
1.983998
1.463107
1.293789
1.293789
1.255351
1.254788
1.254788
1.255163
1.301477
1.46742
1.71849
2.223068
2.466263
2.466263
2.507889
2.569016
2.570891
2.495139
2.366697
2.014187
1.436669
1.268851
1.254976
1.254976
1.254976
1.254976
1.254788
1.283289
1.439856
1.71249
2.163253
2.45895
2.506576
2.506576
2.557391
2.564141
2.495139
2.378697
2.018499
1.555923
1.265101
1.254788
1.254976
1.254976
1.254788
1.254601
1.279164
1.441544
1.71699
2.205067
2.4657
2.511077
2.511077
2.571078
2.561891
2.502451
2.377573
2.027124
1.617612
1.276914
1.255351
1.254788
1.254788
1.254788
1.254788
1.272976
1.422981
1.660738
2.231693
2.4627
2.514827
2.573141
2.573141
2.55514
2.494389
2.382448
2.041187
1.642175
1.295665
1.254038
1.254788
1.254788
1.254788
1.254601
1.254976
1.38773
1.617237
2.135878
2.510139
2.502076
2.571828
2.569578
2.569578
2.517639
2.365197
2.067438
1.679301
1.290227
1.254788
1.254788
1.254788
1.254788
1.254601
1.254601
1.337853
1.603924
2.052625
2.551953
2.506951
2.576329
2.565453
2.565453
2.554953
2.359572
2.042312
1.677801
1.284414
1.254788
1.254788
1.255163
1.254976
1.254976
1.254413
1.288727
1.542235
1.962997
2.425574
2.592829
2.568078
2.560016
2.569578
2.569578
2.381885
2.116752
1.789742
1.315165
1.256663
1.254226
1.254601
1.254788
1.260788
1.260788
1.381917
1.755991
2.146378
2.502639
2.605017
2.60708
2.588892
2.593767
2.593767
2.471138
2.159691
1.881807
1.367667
1.255538
1.254413
1.254601
1.254788
1.254788
1.254788
1.30654
1.575048
2.004249
2.410761
2.507701
2.644768
2.571828
2.571641
2.427262
2.427262
2.093689
1.791617
1.365229
1.254788
1.254601
1.254788
1.254788
1.254788
1.296414
1.296414
1.545235
1.955872
2.403823
2.503201
2.599767
2.596954
2.571641
2.458575
2.096876
2.096876
1.806618
1.430294
1.255538
1.254413
1.254601
1.254601
1.254413
1.294915
1.294915
1.522922
1.961497
2.414136
2.509389
2.571078
2.638206
2.579516
2.485013
2.095564
2.095564
1.80118
1.437231
1.278789
1.254413
1.254788
1.254601
1.254601
1.282914
1.495171
1.495171
1.970123
2.395386
2.520077
2.572579
2.572954
2.638956
2.492701
2.127252
1.867932
1.867932
1.442107
1.287039
1.254413
1.254976
1.254788
1.254976
1.277289
1.46442
1.929246
1.929246
2.381323
2.511077
2.572766
2.569391
2.604455
2.558891
2.152378
1.856682
1.448482
1.448482
1.294352
1.255351
1.254788
1.254788
1.254788
1.318915
1.423543
1.874682
1.874682
2.389573
2.482388
2.577266
2.566391
2.581579
2.605017
2.209192
1.834369
1.448482
1.448482
1.282352
1.255163
1.254976
1.254788
1.255163
1.30054
1.406855
1.775679
2.334634
2.334634
2.462325
2.568078
2.557016
2.564141
2.510514
2.334071
1.838306
1.426544
1.280477
1.280477
1.254788
1.255163
1.254788
1.255163
1.30729
1.46967
1.724678
2.292445
2.479951
2.479951
2.532265
2.561703
2.575766
2.493264
2.37851
2.000499
1.440981
1.293977
1.293977
1.254976
1.254788
1.254976
1.255538
1.324353
1.475108
1.785054
2.262444
2.483701
2.483701
2.520827
2.571453
2.572204
2.496264
2.349072
2.065751
1.511109
1.274851
1.255538
1.255538
1.254788
1.254788
1.255351
1.316478
1.46517
1.803805
2.220818
2.477513
2.520452
2.520452
2.574079
2.575016
2.497201
2.38451
2.023187
1.589674
1.261726
1.255351
1.254788
1.254788
1.254788
1.254413
1.29904
1.449794
1.740241
2.267132
2.476388
2.517264
2.577266
2.577266
2.560016
2.494201
2.375323
2.010436
1.606737
1.279164
1.254601
1.254788
1.254788
1.254788
1.254601
1.270164
1.415856
1.662238
2.246506
2.477888
2.514452
2.575579
2.575579
2.564703
2.500764
2.353009
2.045687
1.603362
1.287039
1.254226
1.254976
1.254788
1.254788
1.254788
1.254601
1.393543
1.653988
2.13944
2.554953
2.514639
2.573516
2.564516
2.564516
2.522139
2.320571
2.028624
1.640675
1.281977
1.254601
1.254601
1.254976
1.254788
1.254788
1.254413
1.353229
1.652488
2.077001
2.551765
2.54464
2.580641
2.569766
2.569766
2.571641
2.372698
2.080376
1.73349
1.291352
1.254601
1.254601
1.254788
1.254788
1.254788
1.254976
1.322853
1.608237
2.038937
2.448075
2.612892
2.582141
2.567891
2.569391
2.569391
2.332946
2.063125
1.730303
1.302227
1.254601
1.254601
1.255163
1.254788
1.254601
1.254601
1.317978
1.56736
2.622643
2.527952
2.582704
2.648143
2.565641
2.405136
2.081876
2.081876
1.727115
1.401418
1.259851
1.254601
1.254788
1.254413
1.255726
1.326791
1.612737
1.612737
2.110752
2.488576
2.530577
2.590017
2.594704
2.620393
2.445262
2.108315
1.768554
1.768554
1.419418
1.277289
1.254413
1.254601
1.254601
1.257226
1.293227
1.583486
2.115252
2.115252
2.444512
2.539577
2.596017
2.581579
2.618892
2.518764
2.153691
1.797617
1.797617
1.416043
1.274476
1.255726
1.254788
1.254601
1.256288
1.326228
1.500608
2.011374
2.011374
2.44995
2.514264
2.585141
2.576141
2.560016
2.604455
2.146003
1.771554
1.40798
1.40798
1.268289
1.254976
1.254976
1.254788
1.256288
1.338791
1.49292
1.965435
2.427824
2.427824
2.480326
2.595454
2.574641
2.564141
2.550453
2.348697
1.856494
1.425043
1.281414
1.281414
1.256288
1.254601
1.254601
1.258163
1.352291
1.56286
1.900745
2.399886
2.399886
2.497576
2.557016
2.565828
2.54914
2.479763
2.254006
1.799492
1.338041
1.259476
1.259476
1.254788
1.254976
1.254788
1.255538
1.320978
1.470982
1.81768
2.311571
2.470388
2.470388
2.520452
2.565453
2.55439
2.488014
2.269194
1.975373
1.392792
1.276726
1.254788
1.254788
1.254976
1.254601
1.256851
1.337853
1.511296
1.924184
2.321696
2.489326
2.530577
2.530577
2.575766
2.557391
2.485763
2.30107
1.967873
1.438919
1.256476
1.254788
1.254788
1.254601
1.254976
1.254976
1.329041
1.47492
1.872057
2.322446
2.485576
2.528702
2.528702
2.588704
2.561703
2.493451
2.326384
1.972935
1.491608
1.258163
1.254788
1.254788
1.254788
1.254788
1.254413
1.303915
1.464045
1.831743
2.380948
2.490076
2.523639
2.588142
2.588142
2.564328
2.489326
2.338196
2.020374
1.547297
1.276914
1.254226
1.254788
1.254976
1.254976
1.254601
1.265101
1.448107
1.789742
2.310446
2.551203
2.535452
2.598829
2.581391
2.581391
2.517827
2.351884
2.059563
1.588361
1.277101
1.254601
1.254788
1.254976
1.254976
1.254413
1.255913
1.429919
1.746241
2.194379
2.624518
2.525515
2.588329
2.576516
2.576516
2.543515
2.358822
2.057688
1.583861
1.270351
1.255163
1.254788
1.254788
1.254601
1.254601
1.255726
1.331853
1.677426
2.134753
2.51614
2.579704
2.585704
2.566766
2.547828
2.547828
2.30107
2.006499
1.621924
1.267351
1.254413
1.254788
1.255163
1.254601
1.254601
1.255351
1.351354
1.668426
2.11694
2.478826
2.620205
2.588329
2.577641
2.558703
2.558703
2.347197
2.023374
1.689052
1.283852
1.254226
1.254413
1.254976
1.254788
1.255913
1.255913
1.352104
1.6433
2.136253
2.482388
2.537327
2.635955
2.577266
2.55589
2.376635
2.376635
2.037437
1.72824
1.339916
1.254413
1.254601
1.254601
1.254601
1.255351
1.339728
1.339728
1.630175
2.126503
2.482576
2.526827
2.619455
2.591142
2.553265
2.36801
1.996748
1.996748
1.650988
1.356604
1.254226
1.254601
1.254601
1.254976
1.254601
1.32004
1.32004
1.583298
2.039875
2.465513
2.514639
2.574454
2.643831
2.54764
2.373447
2.015874
2.015874
1.646863
1.358854
1.255726
1.254601
1.255163
1.254601
1.254601
1.305602
1.533609
1.533609
2.028812
2.435324
2.512202
2.574829
2.574079
2.609142
2.381698
2.001998
1.670864
1.670864
1.366167
1.259851
1.254601
1.254976
1.254788
1.254976
1.274289
1.498358
2.028812
2.028812
2.413761
2.507889
2.575579
2.569953
2.612892
2.485013
2.057688
1.718115
1.718115
1.38023
1.263226
1.254788
1.254976
1.254788
1.255538
1.313478
1.46592
1.991686
1.991686
2.4447
2.510139
2.583829
2.575579
2.553265
2.598079
2.142066
1.758991
1.401605
1.401605
1.266601
1.254788
1.254788
1.254601
1.256101
1.328853
1.462732
1.949497
2.425011
2.425011
2.474513
2.585516
2.572391
2.556828
2.532265
2.295633
1.79818
1.40198
1.271851
1.271851
1.254788
1.254976
1.254788
1.257601
1.336916
1.54186
1.921559
2.388448
2.388448
2.490263
2.557953
2.580266
2.560016
2.488576
2.323008
1.873745
1.368792
1.270539
1.270539
1.254788
1.254976
1.254788
1.255913
1.30879
1.482608
1.802868
2.326009
2.479201
2.479201
2.513327
2.559641
2.542953
2.482201
2.21463
1.918934
1.348729
1.262101
1.254601
1.254601
1.254976
1.254976
1.255351
1.320603
1.483733
1.87712
2.303695
2.503389
2.518389
2.518389
2.571078
2.560578
2.486138
2.323571
2.023187
1.479983
1.260226
1.256101
1.254788
1.254788
1.254601
1.255351
1.332041
1.513546
1.926434
2.362385
2.502639
2.527577
2.527577
2.594704
2.566953
2.499451
2.363322
2.0605
1.575986
1.269414
1.256288
1.254788
1.254788
1.254601
1.254226
1.313853
1.512796
1.896058
2.422761
2.510514
2.540703
2.602579
2.602579
2.581766
2.504326
2.369885
2.116752
1.620049
1.290602
1.254226
1.254788
1.254601
1.254601
1.254413
1.264164
1.489733
1.843744
2.351322
2.560578
2.545765
2.601829
2.589642
2.589642
2.529077
2.365947
2.117127
1.628675
1.277476
1.254788
1.254976
1.254788
1.254788
1.254413
1.257788
1.411731
1.774179
2.198692
2.618705
2.53564
2.594141
2.569766
2.569766
2.554015
2.346259
2.03725
1.597361
1.268851
1.254413
1.254976
1.254788
1.254788
1.254788
1.255163
1.342916
1.705177
2.146753
2.504889
2.605205
2.591329
2.581016
2.55139
2.55139
2.323008
2.048687
1.663738
1.267914
1.254413
1.254601
1.255163
1.254788
1.256101
1.256101
1.336541
1.6268
2.085814
2.484826
2.600329
2.588142
2.570141
2.542953
2.542953
2.308383
1.973685
1.615737
1.272789
1.254413
1.254601
1.254976
1.254976
1.254788
1.254788
1.30954
1.56361
2.070251
2.445075
2.506951
2.644768
2.556828
2.531702
2.299945
2.299945
1.983436
1.654551
1.313102
1.254413
1.254601
1.254788
1.254601
1.256101
1.420356
1.420356
1.749803
2.246319
2.518764
2.553828
2.620205
2.62133
2.581016
2.475263
2.145066
2.145066
1.814305
1.435919
1.257038
1.254601
1.254601
1.254413
1.255726
1.377792
1.700302
1.700302
2.181254
2.508077
2.53339
2.592829
2.628268
2.574266
2.412636
2.088814
2.088814
1.728053
1.39973
1.272039
1.254601
1.254788
1.254413
1.256663
1.316103
1.636737
1.636737
2.163441
2.469263
2.534328
2.591704
2.584766
2.641206
2.449387
2.124253
1.773429
1.773429
1.417731
1.282914
1.254226
1.254601
1.254601
1.264914
1.328478
1.642363
2.174691
2.174691
2.463263
2.542203
2.601642
2.591142
2.602204
2.548578
2.186879
1.821806
1.422793
1.422793
1.280102
1.255726
1.254788
1.254601
1.265289
1.350604
1.566423
2.06425
2.06425
2.440949
2.503201
2.595829
2.580079
2.557766
2.589079
2.215568
1.764616
1.413606
1.413606
1.265476
1.254788
1.254788
1.254788
1.259851
1.330166
1.504921
1.940497
2.419199
2.419199
2.488201
2.589642
2.576329
2.553453
2.495139
2.290382
1.770242
1.365042
1.263414
1.263414
1.254976
1.254788
1.254976
1.256101
1.319853
1.507546
1.862869
2.388073
2.481451
2.481451
2.539952
2.566766
2.544265
2.47095
2.284382
1.886683
1.340853
1.257788
1.254788
1.254788
1.255163
1.254788
1.256288
1.322478
1.496671
1.87562
2.344759
2.483513
2.483513
2.653956
2.656581
2.492701
2.224568
1.915183
1.379292
1.257038
1.254601
1.255163
1.255163
1.255163
1.254226
1.259851
1.474358
1.844494
2.293008
2.621705
2.552328
2.585516
2.577266
2.577266
2.486513
2.230193
1.96131
1.434231
1.258726
1.254413
1.255163
1.254976
1.254413
1.254413
1.261163
1.430669
1.811305
2.270132
2.569016
2.584391
2.587016
2.571641
2.529452
2.529452
2.233193
1.967498
1.485608
1.257413
1.254413
1.254788
1.254976
1.254413
1.254413
1.262289
1.436481
1.80943
2.264132
2.507139
2.639893
2.582704
2.576329
2.530577
2.530577
2.246506
1.968435
1.532109
1.260601
1.254413
1.254601
1.254788
1.254601
1.260788
1.260788
1.418481
1.761241
2.248194
2.503577
2.557953
2.622643
2.567328
2.52514
2.271444
2.271444
1.923996
1.551235
1.283664
1.254226
1.254788
1.254788
1.254601
1.257976
1.380792
1.380792
1.705177
2.223255
2.494951
2.547453
2.62583
2.575954
2.527765
2.30032
2.30032
1.936747
1.56436
1.319665
1.254226
1.254788
1.254601
1.254788
1.258726
1.390355
1.390355
1.737053
2.22663
2.504514
2.54614
2.586829
2.645893
2.53339
2.346259
1.974623
1.974623
1.573923
1.355479
1.254976
1.254788
1.254788
1.254226
1.255351
1.382667
1.718865
1.718865
2.250818
2.508077
2.54914
2.581954
2.599204
2.587954
2.375135
1.991311
1.589298
1.589298
1.355291
1.262101
1.254601
1.254788
1.254601
1.260976
1.343666
1.649113
1.649113
2.214818
2.461388
2.554578
2.578766
2.573141
2.626205
2.422949
1.96881
1.602986
1.602986
1.352291
1.260788
1.254788
1.254788
1.254601
1.261539
1.373854
1.603924
2.167004
2.167004
2.458575
2.54239
2.583641
2.575016
2.543328
2.551203
2.014936
1.617424
1.348354
1.348354
1.260226
1.254976
1.254788
1.254601
1.262101
1.380792
1.548985
2.101752
2.45745
2.45745
2.508264
2.579891
2.572766
2.529452
2.533952
2.12819
1.600924
1.344416
1.344416
1.262289
1.255163
1.254976
1.254788
1.261913
1.38848
1.587236
2.055063
2.433637
2.433637
2.503951
2.574454
2.578204
2.535827
2.467388
2.236006
1.710052
1.32079
1.260788
1.260788
1.254976
1.254976
1.254788
1.264351
1.38248
1.629612
2.022249
2.408511
2.498326
2.498326
2.547078
2.570141
2.527202
2.465325
2.215005
1.836056
1.303352
1.259476
1.254788
1.254788
1.254976
1.254788
1.261913
1.374042
1.576736
2.040437
2.371572
2.494389
2.494389
2.552515
2.567703
2.52739
2.462138
2.173941
1.850869
1.329978
1.256851
1.254601
1.254601
1.254976
1.254788
1.259101
1.348166
1.549547
2.029749
2.36726
2.494201
2.554015
2.554015
2.576704
2.52889
2.466263
2.21913
1.866432
1.366354
1.254601
1.254788
1.254976
1.254976
1.254976
1.254413
1.32154
1.536422
1.953622
2.438137
2.497951
2.546328
2.577454
2.577454
2.55139
2.466825
2.212943
1.893058
1.373292
1.258538
1.254413
1.254976
1.254788
1.254788
1.254226
1.278414
1.499108
1.89362
2.418261
2.519327
2.554578
2.585141
2.585141
2.573891
2.487638
2.231506
1.944247
1.417543
1.259476
1.254413
1.254976
1.254788
1.254788
1.254413
1.264351
1.501171
1.847681
2.29657
2.61608
2.548578
2.581391
2.573141
2.573141
2.503389
2.234318
1.968623
1.438356
1.255726
1.254601
1.254976
1.254976
1.254413
1.254413
1.261539
1.435731
1.821431
2.267882
2.571641
2.583266
2.580641
2.570328
2.515952
2.515952
2.219318
1.949497
1.470045
1.258538
1.254601
1.254976
1.254976
1.254601
1.254601
1.259101
1.421668
1.783929
2.246131
2.501514
2.63483
2.584204
2.569016
2.520452
2.520452
2.226255
1.939184
1.528547
1.258913
1.254601
1.254601
1.254976
1.254601
1.260601
1.260601
1.427106
1.757866
2.258319
2.500764
2.566203
2.619642
2.571828
2.527765
2.262069
2.262069
1.936559
1.57261
1.280289
1.254226
1.254601
1.254601
1.254601
1.260788
1.425043
1.425043
1.745491
2.263569
2.500952
2.547828
2.629955
2.581391
2.527765
2.297883
2.297883
1.970873
1.561173
1.323603
1.254413
1.254976
1.254601
1.254788
1.257788
1.388667
1.388667
1.736678
2.220068
2.487826
2.550828
2.575391
2.641393
2.521952
2.315133
1.950622
1.950622
1.55911
1.341228
1.254601
1.254601
1.254788
1.254413
1.255163
1.361854
1.696364
1.696364
2.22288
2.501326
2.548015
2.575204
2.600704
2.582891
2.37101
1.973123
1.577861
1.577861
1.346291
1.257788
1.254601
1.254788
1.254413
1.263601
1.350229
1.667676
1.667676
2.220255
2.46495
2.553265
2.577454
2.571828
2.620768
2.431012
1.98006
1.591361
1.591361
1.350791
1.259851
1.254788
1.254788
1.254788
1.263601
1.364292
1.602424
2.151066
2.151066
2.451825
2.544265
2.578391
2.572579
2.536577
2.538827
2.003686
1.598299
1.351916
1.351916
1.258726
1.254788
1.254976
1.254788
1.263789
1.391105
1.552922
2.093502
2.456137
2.456137
2.508827
2.572579
2.568453
2.519514
2.529452
2.127815
1.616487
1.343291
1.343291
1.256101
1.254788
1.254976
1.254601
1.261351
1.388667
1.575048
2.030874
2.43645
2.43645
2.493826
2.566016
2.568453
2.521577
2.44695
2.194942
1.679301
1.308602
1.258538
1.258538
1.255163
1.254976
1.254788
1.260788
1.383042
1.585548
1.982686
2.406823
2.489513
2.489513
2.54464
2.561891
2.52439
2.458387
2.169254
1.793305
1.288352
1.256101
1.254788
1.254788
1.255163
1.254788
1.260413
1.375917
1.559673
2.048687
2.383573
2.492701
2.556078
2.556078
2.560391
2.526077
2.45295
2.197005
1.843369
1.344041
1.259101
1.254788
1.254788
1.254788
1.254788
1.258726
1.354354
1.553672
2.048875
2.38226
2.493639
2.559078
2.559078
2.572954
2.52964
2.464388
2.221943
1.846369
1.355854
1.254413
1.254788
1.254976
1.254976
1.254788
1.254226
1.323603
1.525734
1.948559
2.442824
2.498514
2.545203
2.576141
2.576141
2.546328
2.4447
2.241631
1.884058
1.37798
1.256851
1.254601
1.254976
1.254788
1.254788
1.254413
1.277664
1.527609
1.905621
2.418261
2.532827
2.551578
2.583829
2.583829
2.575391
2.478451
2.209567
1.927371
1.402543
1.258726
1.254413
1.255163
1.254788
1.254788
1.254601
1.263976
1.475483
1.844681
2.283632
2.624518
2.553453
2.577829
2.569016
2.569016
2.485201
2.195692
1.922871
1.422418
1.257788
1.254413
1.255163
1.254788
1.254413
1.254413
1.263226
1.422606
1.803992
2.254381
2.548953
2.596392
2.575954
2.569203
2.502639
2.502639
2.206192
1.944434
1.476795
1.257788
1.254413
1.254788
1.254976
1.254601
1.254601
1.262289
1.437419
1.805118
2.255131
2.511077
2.62808
2.581954
2.571078
2.516514
2.516514
2.217443
1.931871
1.521796
1.258163
1.254413
1.254601
1.254976
1.254601
1.260226
1.260226
1.409293
1.744928
2.237693
2.501514
2.550828
2.63408
2.569203
2.510514
2.238443
2.238443
1.923621
1.551985
1.293227
1.254226
1.254601
1.254601
1.254601
1.268664
1.523109
1.523109
1.89362
2.400823
2.518577
2.578016
2.629018
2.61008
2.547828
2.382073
2.0395
2.0395
1.635237
1.356604
1.255163
1.254788
1.254601
1.254413
1.261539
1.446419
1.446419
1.803055
2.264507
2.508639
2.555703
2.580079
2.644393
2.428949
1.916683
1.498358
1.30579
1.30579
1.255538
1.254788
1.254976
1.254788
1.269414
1.419606
1.596049
2.153316
2.47095
2.47095
2.521202
2.557016
2.559266
2.505451
2.472075
2.029187
1.499858
1.29904
1.29904
1.256288
1.254976
1.254976
1.254788
1.270726
1.431419
1.63355
2.132503
2.466075
2.466075
2.502451
2.563578
2.567328
2.509577
2.406823
2.105877
1.551422
1.301477
1.256101
1.256101
1.254788
1.254788
1.254976
1.270539
1.444357
1.688676
2.115064
2.446012
2.515952
2.515952
2.562641
2.575954
2.510889
2.436637
2.120502
1.710615
1.276351
1.256851
1.254788
1.254788
1.254788
1.254788
1.274289
1.433481
1.658488
2.165504
2.440199
2.511077
2.511077
2.569578
2.556266
2.503577
2.425011
2.115439
1.742678
1.30654
1.255726
1.254788
1.254788
1.254976
1.254788
1.263601
1.394668
1.602049
2.143003
2.421824
2.507889
2.570703
2.570703
2.564891
2.514639
2.430074
2.131002
1.745678
1.323415
1.254413
1.254788
1.254788
1.254788
1.254788
1.254226
1.352854
1.576173
2.046062
2.495701
2.519139
2.569953
2.569391
2.569391
2.530202
2.421074
2.12369
1.767804
1.32154
1.255726
1.254601
1.254976
1.254788
1.254788
1.254226
1.290039
1.558173
1.974623
2.460075
2.531327
2.568453
2.566203
2.566203
2.568453
2.439637
2.134753
1.811118
1.320228
1.255726
1.254601
1.254976
1.254788
1.254788
1.254226
1.266601
1.543922
1.919684
2.377385
2.61908
2.569016
2.562641
2.569016
2.569016
2.454638
2.124815
1.861932
1.355666
1.255163
1.254413
1.255163
1.254788
1.254601
1.254601
1.273539
1.520109
1.940497
2.357884
2.566766
2.596392
2.570141
2.573891
2.498889
2.498889
2.135503
1.893058
1.39448
1.255538
1.254413
1.254976
1.254788
1.254601
1.254601
1.272601
1.515796
1.89437
2.363697
2.509389
2.641018
2.569766
2.571828
2.482388
2.482388
2.118815
1.857619
1.450544
1.255163
1.254413
1.254601
1.255163
1.254601
1.272226
1.272226
1.483733
1.872995
2.327321
2.500201
2.569016
2.628455
2.565641
2.486326
2.129128
2.129128
1.855932
1.471732
1.264351
1.254226
1.254788
1.254788
1.254413
1.271851
1.459169
1.459169
1.856494
2.352447
2.492701
2.575391
2.618517
2.583641
2.503014
2.180317
2.180317
1.88237
1.482045
1.293977
1.254226
1.254788
1.254788
1.254601
1.262289
1.453732
1.453732
1.852182
2.338009
2.505076
2.571266
2.569391
2.643643
2.512389
2.233943
1.897745
1.897745
1.497608
1.32304
1.254601
1.254788
1.254601
1.254226
1.262101
1.432356
1.832493
1.832493
2.340634
2.506951
2.575579
2.573328
2.596017
2.582141
2.28907
1.908621
1.512796
1.512796
1.318165
1.256288
1.254788
1.254788
1.254601
1.275414
1.39448
1.780929
2.317196
2.317196
2.4657
2.575204
2.569578
2.571828
2.596204
2.391823
1.916496
1.502483
1.502483
1.30429
1.255351
1.254601
1.254976
1.254601
1.270539
1.406293
1.677426
2.253819
2.253819
2.483513
2.570516
2.570516
2.572204
2.509577
2.489326
1.945747
1.509046
1.312353
1.312353
1.255726
1.254976
1.254601
1.254976
1.272789
1.470795
1.658488
2.203942
2.481451
2.481451
2.522514
2.563016
2.566016
2.513327
2.463638
2.052625
1.499671
1.303165
1.256101
1.256101
1.254976
1.254976
1.254788
1.271289
1.457482
1.685114
2.167191
2.469263
2.469263
2.515014
2.568078
2.576891
2.515577
2.424824
2.138128
1.605236
1.29454
1.255726
1.255726
1.254976
1.254976
1.254788
1.276351
1.443419
1.686614
2.121627
2.455762
2.509952
2.509952
2.564328
2.572766
2.508264
2.420887
2.091251
1.689052
1.276351
1.255351
1.254601
1.254601
1.254788
1.254601
1.269976
1.420168
1.634487
2.166254
2.438699
2.509764
2.569953
2.569953
2.563391
2.518577
2.428574
2.116752
1.734803
1.317228
1.254601
1.254788
1.254788
1.254788
1.254788
1.260601
1.395418
1.596424
2.136065
2.436825
2.503201
2.571641
2.571641
2.566203
2.509202
2.422011
2.12069
1.719802
1.317228
1.254413
1.254788
1.254976
1.254976
1.254788
1.254226
1.340853
1.56511
2.046062
2.522139
2.507139
2.572766
2.567891
2.567891
2.542953
2.425199
2.153128
1.786367
1.320978
1.256476
1.254788
1.254976
1.254601
1.254601
1.254226
1.287227
1.586298
1.985873
2.483513
2.544453
2.572579
2.570891
2.570891
2.575391
2.449387
2.142815
1.842806
1.337666
1.255163
1.254601
1.254976
1.254788
1.254788
1.254413
1.273914
1.564548
1.943122
2.373822
2.625455
2.575391
2.572391
2.572579
2.572579
2.450137
2.131752
1.846181
1.344041
1.257413
1.254226
1.254976
1.254976
1.254413
1.254413
1.270164
1.500796
1.899808
2.354884
2.551203
2.604642
2.564891
2.574454
2.478263
2.478263
2.11169
1.866432
1.382667
1.255163
1.254413
1.254976
1.254976
1.254413
1.268851
1.268851
1.470982
1.903558
2.353197
2.498701
2.636143
2.572579
2.569016
2.486513
2.486513
2.132128
1.88012
1.440794
1.256851
1.254226
1.254788
1.255163
1.254413
1.274101
1.274101
1.512421
1.860432
2.369885
2.513139
2.577829
2.633705
2.573516
2.506389
2.160254
2.160254
1.879182
1.501171
1.270164
1.254226
1.254788
1.254601
1.254601
1.272226
1.499483
1.499483
1.878995
2.37176
2.507889
2.571078
2.613455
2.592829
2.507889
2.206192
1.88612
1.88612
1.496296
1.304852
1.254413
1.255163
1.254601
1.254788
1.262664
1.456732
1.456732
1.862494
2.340446
2.502826
2.574454
2.570891
2.646081
2.514452
2.222318
1.894558
1.894558
1.487483
1.305227
1.254601
1.254976
1.254788
1.254413
1.266414
1.412293
1.818243
1.818243
2.332571
2.496826
2.569578
2.570516
2.579141
2.60633
2.269194
1.890245
1.504171
1.504171
1.304102
1.254976
1.254788
1.254788
1.254788
1.274664
1.384542
1.750554
2.302195
2.302195
2.489888
2.576891
2.573141
2.574266
2.578766
2.396323
1.893433
1.48992
1.48992
1.309352
1.255726
1.254788
1.254788
1.254788
1.272226
1.443044
1.682864
2.273694
2.273694
2.489326
2.566391
2.574454
2.581766
2.513702
2.510889
1.972185
1.528172
1.300165
1.300165
1.256851
1.254976
1.254788
1.254788
1.275976
1.475483
1.668051
2.217255
2.4732
2.4732
2.515764
2.572579
2.578391
2.518764
2.468138
2.105877
1.520109
1.306727
1.255913
1.255913
1.254788
1.254788
1.254788
1.276164
1.464045
1.720927
2.170191
2.475263
2.512014
2.512014
2.567328
2.574829
2.511452
2.424262
2.11994
1.631112
1.282352
1.255538
1.255538
1.254788
1.254788
1.254788
1.275039
1.448107
1.699927
2.150878
2.463075
2.510327
2.510327
2.573704
2.576516
2.512389
2.431949
2.097439
1.693739
1.282539
1.255538
1.254976
1.254976
1.254788
1.254788
1.274476
1.426919
1.649863
2.206192
2.460263
2.511452
2.577454
2.577454
2.564328
2.505451
2.424074
2.112627
1.737428
1.31554
1.254413
1.254788
1.254788
1.254788
1.254601
1.255726
1.383417
1.587986
2.117877
2.471888
2.518577
2.576704
2.576704
2.565453
2.529265
2.406449
2.115439
1.730865
1.311978
1.254413
1.254788
1.254788
1.254788
1.254788
1.254226
1.333166
1.587611
2.029937
2.540328
2.515202
2.578579
2.573141
2.573141
2.558516
2.429699
2.140378
1.260976
1.254788
1.254601
1.254413
1.254976
1.254788
1.328853
1.328853
1.56811
2.029374
2.457825
2.517639
2.596767
2.61758
2.570328
2.439075
2.085814
2.085814
1.787304
1.410418
1.254788
1.254413
1.254788
1.254788
1.254413
1.314415
1.569798
1.569798
2.039687
2.466263
2.519514
2.585891
2.631455
2.583454
2.475075
2.105127
2.105127
1.791617
1.419418
1.274851
1.254413
1.254788
1.254601
1.254976
1.285914
1.532484
1.532484
2.024312
2.446012
2.523452
2.586454
2.578204
2.643456
2.478451
2.095564
1.789742
1.789742
1.414543
1.276914
1.254601
1.255163
1.254788
1.254413
1.282352
1.436294
1.894933
1.894933
2.377573
2.498514
2.571266
2.566391
2.596579
2.561891
2.132315
1.799305
1.422418
1.422418
1.282352
1.254601
1.254788
1.254601
1.258726
1.366917
1.566423
2.054125
2.054125
2.454262
2.528702
2.609142
2.597704
2.597892
2.621518
2.347009
1.943872
1.48467
1.48467
1.289664
1.255726
1.254788
1.254601
1.256288
1.342916
1.468545
1.873745
2.38226
2.38226
2.480513
2.586079
2.574641
2.575016
2.509014
2.364635
1.841119
1.424481
1.271851
1.271851
1.254788
1.254976
1.254788
1.255351
1.311603
1.483733
1.762929
2.309883
2.480138
2.480138
2.539577
2.571453
2.565078
2.491951
2.358822
1.981748
1.400668
1.280289
1.254976
1.254976
1.254976
1.254601
1.255163
1.320228
1.49292
1.80343
2.28982
2.493451
2.493451
2.522327
2.575204
2.573704
2.500576
2.333884
2.023374
1.45617
1.273164
1.254976
1.254976
1.254976
1.254976
1.255351
1.314978
1.469857
1.808493
2.258694
2.488763
2.524015
2.524015
2.573141
2.571453
2.495514
2.384698
2.013061
1.556485
1.257976
1.254788
1.254788
1.254788
1.254788
1.254788
1.310853
1.453544
1.78768
2.305195
2.475075
2.519514
2.519514
2.587579
2.569391
2.492514
2.393886
2.031437
1.588923
1.276914
1.254601
1.254976
1.254976
1.254601
1.254413
1.279539
1.438544
1.714552
2.296195
2.487263
2.521765
2.585891
2.585891
2.572954
2.495889
2.388073
2.046813
1.608049
1.289852
1.254226
1.254976
1.254788
1.254788
1.254788
1.254788
1.410606
1.674614
2.178442
2.564516
2.523827
2.580454
2.573891
2.573891
2.527952
2.342509
2.049625
1.622862
1.277664
1.254413
1.254976
1.254976
1.254788
1.254788
1.254788
1.360729
1.647425
2.094814
2.575016
2.535265
2.584579
2.575016
2.575016
2.572016
2.377385
2.062563
1.675364
1.276539
1.254226
1.254788
1.254976
1.254788
1.254788
1.254788
1.332603
1.624549
2.065751
2.471513
2.623018
2.589079
2.579516
2.572016
2.572016
2.379635
2.059188
1.73349
1.287602
1.254413
1.254601
1.254976
1.254788
1.254788
1.254788
1.332791
1.600924
2.052625
2.454262
2.576704
2.600892
2.575579
2.571266
2.387698
2.387698
2.061625
1.760866
1.31329
1.254413
1.254413
1.254976
1.254976
1.254788
1.254788
1.326228
1.576361
2.052063
2.4552
2.521014
2.648893
2.578016
2.571641
2.414511
2.414511
2.064438
1.778304
1.38098
1.254601
1.254601
1.254601
1.254976
1.254413
1.323603
1.323603
1.569048
2.026749
2.465138
2.52589
2.594517
2.620205
2.576891
2.448825
2.089189
2.089189
1.770617
1.416231
1.255163
1.254601
1.254788
1.254788
1.254413
1.312165
1.569048
1.569048
2.028437
2.46495
2.522327
2.586454
2.635768
2.582329
2.481076
2.107377
2.107377
1.787867
1.414918
1.265664
1.254226
1.254976
1.254601
1.254788
1.289289
1.540359
1.540359
2.039125
2.443762
2.522327
2.587204
2.579516
2.643643
2.485576
2.117127
1.81093
1.81093
1.425981
1.281977
1.254413
1.254788
1.254601
1.255163
1.291914
1.494608
2.003311
2.003311
2.435324
2.524202
2.588892
2.580079
2.603704
2.570891
2.152753
1.824806
1.455982
1.455982
1.276914
1.254601
1.254788
1.254788
1.254788
1.326791
1.437606
1.898683
1.898683
2.415636
2.499451
2.581954
2.577079
2.570891
2.61233
2.221193
1.805118
1.432169
1.432169
1.270164
1.254413
1.254788
1.254976
1.254976
1.315165
1.443044
1.853682
2.381135
2.381135
2.480326
2.589829
2.580454
2.572391
2.520077
2.355072
1.852182
1.422231
1.281039
1.281039
1.254601
1.255163
1.254788
1.255163
1.326978
1.500233
1.794805
2.342134
2.486138
2.486138
2.545765
2.572391
2.571641
2.499076
2.361634
1.96131
1.406855
1.275976
1.275976
1.254976
1.254976
1.254788
1.255351
1.320228
1.498733
1.815993
2.309508
2.480888
2.480888
2.526827
2.580266
2.578016
2.503577
2.355822
2.058438
1.472857
1.274289
1.255163
1.255163
1.254788
1.254788
1.255163
1.325853
1.470045
1.841306
2.263569
2.490638
2.527202
2.527202
2.576516
2.578766
2.499076
2.36051
2.022062
1.561923
1.259101
1.254976
1.254976
1.254976
1.254788
1.254601
1.310103
1.452982
1.788805
2.29732
2.493451
2.52739
2.52739
2.589642
2.564141
2.501514
2.384323
2.025812
1.578798
1.275601
1.254788
1.254788
1.254788
1.254976
1.254601
1.275976
1.434419
1.697489
2.292633
2.494201
2.527015
2.584391
2.584391
2.568078
2.485763
2.361259
2.016062
1.591736
1.278789
1.254226
1.254976
1.254788
1.254788
1.254601
1.254226
1.39523
1.678176
2.196255
2.574079
2.521202
2.585329
2.581391
2.581391
2.53864
2.373635
2.083564
1.656426
1.289102
1.254413
1.254976
1.254976
1.254788
1.254788
1.255163
1.367479
1.668426
2.116565
2.569578
2.542015
2.590204
2.579516
2.579516
2.576704
2.383573
2.065751
1.708552
1.277101
1.254226
1.254788
1.255163
1.254601
1.254601
1.254788
1.332603
1.640488
2.080751
2.475826
2.627517
2.588704
2.583829
2.578766
2.578766
2.37326
2.074376
1.742303
1.290602
1.254226
1.254413
1.254976
1.254601
1.254788
1.254788
1.331666
1.606174
2.066688
2.459888
2.572766
2.608955
2.579141
2.574829
2.410949
2.410949
2.066875
1.771554
1.317415
1.254413
1.254413
1.254788
1.254788
1.254976
1.254976
1.328665
1.583298
2.059563
2.457825
2.520264
2.641956
2.579891
2.576141
2.423887
2.423887
2.080376
1.767241
1.367854
1.254413
1.254601
1.254976
1.254976
1.254601
1.323415
1.323415
1.570173
2.018874
2.463638
2.520639
2.587954
2.62733
2.578391
2.450325
2.089564
2.089564
1.764616
1.417918
1.255726
1.254413
1.254976
1.254413
1.254413
1.312353
1.565485
1.565485
2.043812
2.46645
2.524765
2.588704
2.625455
2.590204
2.478076
2.11169
2.11169
1.79968
1.413043
1.270164
1.254601
1.254788
1.254788
1.254976
1.284039
1.525547
1.525547
2.035
2.442075
2.524952
2.589454
2.581016
2.646268
2.494576
2.123315
1.805305
1.805305
1.419231
1.274851
1.254413
1.254976
1.254788
1.254976
1.29904
1.48092
1.983623
1.983623
2.423887
2.529077
2.592079
2.577266
2.585329
2.594329
2.145815
1.811305
1.416418
1.416418
1.278977
1.254976
1.254788
1.254788
1.255163
1.322853
1.434606
1.920621
2.410011
2.410011
2.494014
2.591329
2.580829
2.575391
2.591704
2.263381
1.834556
1.435356
1.435356
1.274289
1.254788
1.254788
1.254601
1.255351
1.324165
1.455794
1.840744
2.36951
2.36951
2.485763
2.577641
2.575766
2.574454
2.493451
2.368572
1.858557
1.408918
1.271851
1.254976
1.254976
1.254788
1.254788
1.31479
1.475295
1.874682
2.361072
2.488389
2.53639
2.53639
2.590954
2.55589
2.490263
2.327321
1.971248
1.495733
1.259288
1.254601
1.254976
1.254976
1.254788
1.254413
1.286289
1.45842
1.816555
2.390323
2.495701
2.53939
2.593392
2.593392
2.565266
2.490076
2.326571
2.014187
1.519546
1.263039
1.254601
1.254976
1.254788
1.254788
1.254413
1.256476
1.432169
1.785804
2.29732
2.568078
2.527015
2.593579
2.578954
2.578954
2.519514
2.340634
2.016062
1.54411
1.271476
1.254601
1.255163
1.254976
1.254976
1.254601
1.255538
1.382292
1.725428
2.20413
2.614767
2.539765
2.592079
2.576141
2.576141
2.558141
2.344197
2.020937
1.582736
1.262476
1.254038
1.254788
1.255163
1.254788
1.254788
1.256476
1.357541
1.70724
2.186692
2.507326
2.622267
2.598454
2.577641
2.558891
2.558891
2.333509
2.034437
1.63805
1.272039
1.254788
1.254601
1.254976
1.254788
1.255913
1.255913
1.350979
1.674801
2.156878
2.501139
2.584579
2.603892
2.578766
2.556078
2.341384
2.341384
2.014187
1.664488
1.277851
1.254226
1.254413
1.254976
1.254788
1.256476
1.256476
1.344229
1.637487
2.156691
2.499826
2.521014
2.646643
2.581016
2.556641
2.372135
2.372135
2.026749
1.699552
1.326791
1.254413
1.254601
1.254788
1.254788
1.255726
1.355479
1.355479
1.659426
2.153878
2.500764
2.528702
2.605955
2.61233
2.558516
2.404198
2.053938
2.053938
1.696177
1.379667
1.254413
1.254413
1.254601
1.254601
1.254601
1.327353
1.626612
1.626612
2.109439
2.496264
2.511827
2.585329
2.636143
2.564328
2.402511
2.028999
2.028999
1.662426
1.370479
1.258726
1.254413
1.254976
1.254601
1.254976
1.30504
1.611987
1.611987
2.155566
2.4717
2.54839
2.607455
2.600142
2.644206
2.502451
2.247819
1.880307
1.880307
1.454107
1.294352
1.254601
1.254788
1.254601
1.269414
1.340666
1.681739
2.193254
2.193254
2.467013
2.553828
2.608767
2.595829
2.595454
2.559453
2.160441
1.778304
1.406106
1.406106
1.263789
1.254976
1.254976
1.254788
1.255913
1.327916
1.48317
1.997686
1.997686
2.443949
2.499826
2.583454
2.574454
2.54764
2.581391
2.158941
1.709677
1.373854
1.373854
1.258726
1.254788
1.254976
1.254788
1.255538
1.325853
1.463107
1.945184
2.409448
2.409448
2.485763
2.589267
2.580829
2.557203
2.500764
2.308008
1.791242
1.369167
1.265664
1.265664
1.254788
1.254976
1.254976
1.256476
1.326228
1.546735
1.907871
2.412824
2.487076
2.487076
2.554953
2.582329
2.558891
2.491388
2.319633
1.910871
1.346479
1.268476
1.268476
1.254601
1.254788
1.254788
1.256851
1.329041
1.54711
1.933934
2.366322
2.489701
2.489701
2.54239
2.578391
2.561891
2.495701
2.30107
1.98231
1.406106
1.263601
1.254788
1.254788
1.255163
1.254788
1.256288
1.332228
1.512234
1.946122
2.322633
2.492889
2.53639
2.53639
2.582516
2.558141
2.487451
2.316446
1.97331
1.461982
1.254601
1.254976
1.254976
1.254976
1.254601
1.254601
1.314228
1.487483
1.891558
2.379635
2.495139
2.535077
2.590392
2.590392
2.560766
2.488014
2.311945
1.96806
1.474732
1.259476
1.254601
1.254976
1.254976
1.254976
1.254788
1.272976
