8047.0
1.631862
1.631862
1.731615
1.928309
2.128565
2.339321
2.506764
2.592642
2.607455
2.514077
2.425949
2.425949
2.269382
2.097064
1.918559
1.730865
1.644613
1.546922
1.507733
1.594549
1.71399
1.71399
1.909933
2.113752
2.299757
2.486138
2.580454
2.62508
2.562266
2.413011
2.265819
2.265819
2.092001
1.917246
1.738553
1.62755
1.507359
1.455982
1.537734
1.662426
1.662426
1.849556
2.040437
2.242568
2.447887
2.482388
2.514452
2.39426
2.189692
2.015499
2.015499
1.854057
1.628112
1.413981
1.296227
1.256663
1.254413
1.267351
1.319103
1.536797
1.536797
1.842806
2.205442
2.474513
2.513702
2.495139
2.468513
2.412824
2.439075
2.413574
2.413574
2.458762
2.524202
2.533015
2.493264
2.432512
2.440762
2.524577
2.601829
2.647393
2.647393
2.662581
2.662206
2.662206
2.662206
2.662206
2.662581
2.596392
2.421074
2.201317
2.201317
1.994686
1.820681
1.677426
1.564173
1.591361
1.676864
1.825743
1.998061
1.998061
2.194379
2.370447
2.463825
2.499451
2.469075
2.333884
2.170379
2.006124
1.841869
1.841869
1.656426
1.534359
1.427294
1.370104
1.402918
1.508484
1.654926
1.896433
2.090689
2.090689
2.270694
2.356947
2.428387
2.398198
2.273319
2.12969
1.960372
1.787304
1.6223
1.6223
1.496296
1.402918
1.319103
1.384167
1.497421
1.665613
1.854244
2.076438
2.269194
2.269194
2.383385
2.446575
2.420511
2.306508
2.165691
1.983248
1.80493
1.641613
1.499296
1.499296
1.427669
1.350979
1.386605
1.496483
1.665801
1.851619
2.069501
2.255506
2.255506
2.36501
2.448825
2.420887
2.30482
2.155003
1.980623
1.801742
1.6328
1.47942
1.47942
1.391105
1.32079
1.357354
1.455794
1.618737
1.807743
2.013999
2.217068
2.334259
2.334259
2.397261
2.381135
2.263757
2.122377
1.95381
1.780742
1.604674
1.450357
1.354354
1.354354
1.302227
1.333728
1.39148
1.576923
1.762179
1.971623
2.166254
2.305945
2.362385
2.362385
2.346071
2.245944
2.096876
1.932997
1.741928
1.575048
1.419981
1.335791
1.335791
1.279727
1.289852
1.371229
1.526297
1.701989
1.919871
2.111502
2.244444
2.311571
2.311571
2.29882
2.205817
2.0575
1.874682
1.702552
1.527047
1.362229
1.284227
1.258538
1.258538
1.260038
1.293414
1.420731
1.620237
1.81693
2.021687
2.159316
2.226443
2.224755
2.224755
2.117315
1.973123
1.792367
1.610862
1.421856
1.285727
1.256288
1.248601
1.248038
1.248038
1.256851
1.329416
1.491983
1.702552
1.899245
2.045875
2.112064
2.115252
2.020749
2.020749
1.860244
1.702739
1.53811
1.356979
1.261539
1.249351
1.246351
1.246163
1.246163
1.251038
1.288727
1.441731
1.663551
1.862119
2.023749
2.097064
2.118627
2.036125
2.036125
1.89512
1.735365
1.569985
1.385105
1.276164
1.253851
1.247851
1.247663
1.255538
1.255538
1.318353
1.492358
1.710427
1.912183
2.082438
2.170566
2.19738
2.124627
1.992436
1.992436
1.818806
1.665051
1.498171
1.347229
1.284039
1.258913
1.258163
1.290227
1.416793
1.416793
1.612174
1.835681
2.046438
2.224005
2.323008
2.361072
2.292633
2.172254
2.172254
2.006311
1.838869
1.682489
1.533797
1.437419
1.357166
1.342728
1.426731
1.566423
1.566423
1.754679
1.973498
2.182754
2.360697
2.447887
2.482576
2.417136
2.292445
2.123877
2.123877
1.96056
1.788617
1.638425
1.528547
1.439481
1.414543
1.497608
1.610862
1.818618
1.818618
2.019812
2.22663
2.419386
2.494764
2.532827
2.471138
2.343634
2.184254
2.013811
2.013811
1.836056
1.674051
1.557423
1.466295
1.430669
1.498921
1.617237
1.803992
2.007811
2.007811
2.212755
2.401011
2.479576
2.52589
2.472075
2.337821
2.164566
2.002186
2.002186
1.815993
1.657363
1.537922
1.448857
1.407418
1.467232
1.593424
1.773804
1.96731
1.96731
2.174691
2.366135
2.463825
2.506576
2.449575
2.324696
2.159128
1.986998
1.814493
1.814493
1.651175
1.529672
1.439106
1.390543
1.448482
1.561923
1.746803
1.938247
2.151816
2.151816
2.348697
2.435324
2.484826
2.439637
2.320383
2.161378
1.97931
1.802118
1.637112
1.637112
1.505296
1.424856
1.372167
1.420543
1.538672
1.717927
1.908433
2.11694
2.11694
2.320758
2.415636
2.470388
2.429699
2.315508
2.153503
1.990373
1.806243
1.640112
1.640112
1.510171
1.419231
1.363354
1.406106
1.519171
1.689614
1.880307
2.103439
2.293383
2.293383
2.397261
2.459512
2.425011
2.313071
2.160254
1.972748
1.796867
1.635612
1.491045
1.491045
1.402355
1.348916
1.384167
1.487295
1.657363
1.845806
2.063875
2.258506
2.36876
2.36876
2.431949
2.405886
2.288132
2.133628
1.95906
1.781679
1.616487
1.47342
1.387355
1.387355
1.326978
1.359979
1.455982
1.621924
1.812805
2.027499
2.227943
2.344197
2.344197
2.412824
2.383198
2.272007
2.125565
1.951935
1.773617
1.607674
1.467607
1.377604
1.377604
1.31704
1.343479
1.432356
1.614612
1.805492
2.023749
2.226068
2.346447
2.423136
2.423136
2.410386
2.302383
2.164004
1.989811
1.816555
1.654738
1.500421
1.409293
1.340291
1.340291
1.365042
1.465545
1.630737
1.821243
2.040812
2.241631
2.36801
2.445262
2.443949
2.443949
2.344009
2.198317
2.025062
1.852931
1.692239
1.535297
1.444919
1.371042
1.371042
1.386042
1.483545
1.646113
1.831743
2.05225
2.249319
2.391823
2.466075
2.4642
2.4642
2.365947
2.226443
2.042125
1.87487
1.702552
1.54411
1.449232
1.38323
1.393543
1.393543
1.488608
1.649675
1.816555
2.04175
2.243693
2.391823
2.462513
2.476013
2.38601
2.38601
2.244444
2.075688
1.899995
1.72974
1.569048
1.475295
1.389792
1.39898
1.488983
1.488983
1.6358
1.80718
2.023749
2.22438
2.371385
2.450325
2.464388
2.232256
2.056188
1.888183
1.888183
1.712302
1.551047
1.451669
1.369354
1.355854
1.444919
1.582548
1.766117
1.766117
1.981373
2.174316
2.337071
2.420324
2.444325
2.359572
2.232068
2.064438
1.894933
1.894933
1.725053
1.563985
1.46292
1.38398
1.373479
1.460107
1.597549
1.783929
2.000874
2.000874
2.19663
2.371385
2.442824
2.468888
2.390136
2.259256
2.094064
1.923434
1.744741
1.744741
1.582736
1.486358
1.401793
1.382105
1.46217
1.591924
1.780367
1.987373
2.183504
2.183504
2.363509
2.442075
2.467013
2.390698
2.267132
2.102689
1.925684
1.754304
1.587799
1.587799
1.484108
1.39148
1.370854
1.449044
1.574486
1.760116
1.965435
2.159316
2.159316
2.346071
2.428199
2.470013
2.401386
2.271257
2.100814
1.927559
1.750928
1.587048
1.587048
1.472482
1.379667
1.357729
1.425981
1.552735
1.740428
1.946684
2.154816
2.338759
2.338759
2.415261
2.458575
2.397261
2.27782
2.103064
1.932809
1.760866
1.591924
1.48317
1.48317
1.391292
1.360167
1.431231
1.55461
1.741178
1.935809
2.139065
2.327508
2.402511
2.402511
2.442637
2.385823
2.263007
2.106064
1.948372
1.769116
1.596049
1.468357
1.468357
1.351354
1.278977
1.291352
1.348541
1.497608
1.694114
1.897558
2.032749
2.083751
2.083751
2.129503
2.081688
1.97481
1.815993
1.779804
1.810555
1.734428
1.528172
1.373667
1.373667
1.285164
1.357729
1.635425
2.013624
2.470388
2.662581
2.662206
2.662019
2.661831
2.661831
2.662019
2.662206
2.662394
2.619642
2.444512
2.263194
2.070438
1.898495
1.794055
1.794055
1.787304
1.853682
1.999186
2.150128
2.335946
2.486888
2.543515
2.562453
2.468888
2.468888
2.326759
2.150691
1.957372
1.758991
1.573923
1.437044
1.343666
1.294727
1.294727
1.329041
1.430856
1.611612
1.803243
2.014936
2.21013
2.316071
2.374948
2.336884
2.336884
2.219505
2.0665
1.890245
1.709302
1.540735
1.405355
1.321915
1.279727
1.304477
1.304477
1.403855
1.577111
1.766679
1.981185
2.179191
2.290195
2.351509
2.325071
2.217068
2.217068
2.064813
1.89287
1.71849
1.56136
1.410418
1.32454
1.278039
1.30054
1.39823
1.39823
1.558548
1.744553
1.957372
2.160628
2.27932
2.348697
2.325821
2.225318
2.067438
2.067438
1.896058
1.723365
1.560235
1.40798
1.321353
1.275789
1.290039
1.364667
1.364667
1.535484
1.72899
1.949122
2.14244
2.263944
2.333509
2.324696
2.218755
2.079813
2.079813
1.893058
1.721865
1.558548
1.40948
1.319103
1.274476
1.284602
1.359792
1.515234
1.515234
1.701052
1.923809
2.121252
2.257944
2.329759
2.324883
2.218568
2.078501
1.902996
1.902996
1.73199
1.563423
1.396168
1.317978
1.269226
1.276726
1.340478
1.488233
1.666551
1.666551
1.879932
2.077376
2.21538
2.28457
2.278195
2.175066
2.030124
1.849556
1.849556
1.671801
1.502296
1.345166
1.278789
1.256476
1.255163
1.284414
1.404605
1.590049
1.590049
1.798742
1.989623
2.138503
2.19663
2.19888
2.100439
1.95756
1.776617
1.602986
1.602986
1.422418
1.285727
1.255726
1.248038
1.247476
1.253851
1.307665
1.467795
1.670676
1.670676
1.872057
2.014936
2.085251
2.092752
1.991498
1.844306
1.661488
1.486358
1.318915
1.318915
1.254976
1.247288
1.245038
1.244851
1.246538
1.259663
1.358292
1.56136
1.758991
1.758991
1.912371
1.989998
2.009499
1.921559
1.78918
1.618737
1.447357
1.295852
1.295852
1.252538
1.245975
1.244663
1.244851
1.245975
1.255913
1.348541
1.558173
1.763679
1.763679
1.935059
2.015124
2.034062
1.96281
1.829493
1.664863
1.493858
1.332978
1.259101
1.259101
1.248601
1.245413
1.2456
1.247851
1.268289
1.403293
1.612362
1.816743
2.006499
2.006499
2.095939
2.131752
2.067626
1.945559
1.792367
1.631675
1.46592
1.330728
1.268476
1.268476
1.253851
1.252163
1.270351
1.365979
1.565485
1.776429
1.991686
2.185004
2.185004
2.280632
2.325258
2.263944
2.144691
1.987561
1.827806
1.655488
1.499483
1.387917
1.387917
1.313478
1.287039
1.348166
1.471732
1.669926
1.876745
2.084314
2.280632
2.369697
2.369697
2.404573
2.349822
2.228881
2.067626
1.900371
1.71549
1.547297
1.435544
1.345729
1.345729
1.307102
1.365604
1.484295
1.672364
1.86737
2.072501
2.260007
2.354322
2.397636
2.397636
2.342509
2.21313
2.05225
1.884433
1.698427
1.538484
1.414168
1.319478
1.319478
1.289477
1.329978
1.441356
1.624549
1.816368
2.022249
2.217255
2.309508
2.355634
2.355634
2.301258
2.174879
2.013999
1.838869
1.662988
1.499671
1.371229
1.293039
1.267351
1.267351
1.297165
1.404043
1.574861
1.769116
1.981748
2.187817
2.28082
2.332009
2.281945
2.281945
2.165691
2.006686
1.837181
1.656988
1.48767
1.355854
1.291352
1.266039
1.287977
1.287977
1.380042
1.554985
1.742678
1.953997
2.155753
2.260569
2.317758
2.282882
2.170379
2.170379
2.016249
1.844306
1.667488
1.502483
1.364292
1.291539
1.266226
1.284789
1.284789
1.367104
1.536422
1.726178
1.945934
2.149753
2.260007
2.320383
2.29282
2.174691
2.174691
2.029562
1.857807
1.675926
1.519734
1.381355
1.304477
1.269976
1.287789
1.381167
1.381167
1.55011
1.744928
1.96206
2.161378
2.267694
2.342884
2.320383
2.202067
2.055063
2.055063
1.881432
1.703115
1.539235
1.38998
1.31104
1.272039
1.291539
1.371979
1.540172
1.540172
1.721678
1.940872
2.155941
2.272944
2.337634
2.311571
2.20788
2.066313
2.066313
1.896808
1.717177
1.55386
1.403855
1.323415
1.275789
1.284789
1.369354
1.530047
1.530047
1.713052
1.937122
2.137003
2.266194
2.335759
2.322071
2.22063
2.075688
1.896245
1.896245
1.720552
1.561735
1.414168
1.332416
1.276914
1.283664
1.359979
1.503983
1.695052
1.695052
1.916871
2.11769
2.251944
2.327321
2.326946
2.225318
2.081501
1.911621
1.735178
1.735178
1.570548
1.412106
1.322103
1.272601
1.276351
1.334478
1.487483
1.664863
1.891183
1.891183
2.088626
2.227005
2.302008
2.299008
2.20338
2.056938
1.877682
1.702552
1.702552
1.536047
1.374792
1.295852
1.260788
1.263039
1.310853
1.449794
1.635237
1.848056
1.848056
2.05375
2.204317
2.28532
2.297695
2.21538
2.076438
1.909558
1.742303
1.575611
1.575611
1.417543
1.328853
1.274101
1.273164
1.329228
1.465357
1.651175
1.862869
2.073438
2.073438
2.228318
2.308008
2.323383
2.236006
2.093876
1.941809
1.770429
1.597924
1.436294
1.436294
1.340853
1.279727
1.275226
1.333728
1.466857
1.651925
1.869432
2.073438
2.073438
2.239006
2.320008
2.342134
2.266194
2.132128
1.95981
1.785617
1.613487
1.459169
1.459169
1.355104
1.289102
1.280102
1.339541
1.464982
1.654551
1.861932
2.072126
2.240693
2.240693
2.325258
2.350947
2.275007
2.144128
1.975935
1.801367
1.630175
1.469482
1.357916
1.357916
1.287977
1.277664
1.333166
1.459545
1.6523
1.856682
2.059375
2.241256
2.324883
2.324883
2.350759
2.285695
2.156128
1.991686
1.818993
1.639363
1.480733
1.369729
1.369729
1.293602
1.277289
1.329041
1.455794
1.645925
1.856307
2.057125
2.230756
2.306695
2.306695
2.347197
2.28607
2.156128
1.848619
1.676489
1.493858
1.353416
1.288164
1.257788
1.263226
1.263226
1.294915
1.416418
1.591736
1.793305
1.914996
1.95231
1.975748
1.908996
1.788055
1.788055
1.645738
1.54636
1.606549
1.591736
1.451294
1.292852
1.260038
1.266039
1.266039
1.454482
1.765929
2.203755
2.60858
2.662394
2.662206
2.662019
2.662206
2.662581
2.662581
2.620768
2.473575
2.267319
2.103252
1.929621
1.775304
1.673114
1.687551
1.755429
1.755429
1.896058
2.044
2.22363
2.395761
2.43945
2.453512
2.361447
2.20713
2.027874
2.027874
1.838494
1.639363
1.454482
1.318728
1.268101
1.256663
1.267351
1.342166
1.517296
1.517296
1.709677
1.920621
2.114127
2.215755
2.268632
2.226255
2.107564
1.949122
1.949122
1.769866
1.589674
1.425231
1.30429
1.265851
1.254226
1.262476
1.31329
1.473795
1.473795
1.663363
1.880307
2.083564
2.185004
2.241068
2.21463
2.100252
1.95831
1.781304
1.781304
1.597736
1.437606
1.309915
1.265289
1.254038
1.260788
1.311603
1.468732
1.659051
1.659051
1.884995
2.085439
2.188942
2.254944
2.230381
2.119565
1.975185
1.799867
1.623987
1.623987
1.460857
1.321915
1.269414
1.256851
1.263601
1.321728
1.483545
1.675364
1.675364
1.888745
2.087501
2.20638
2.271819
2.262444
2.149378
2.000499
1.825931
1.655301
1.655301
1.491608
1.342166
1.277664
1.258726
1.266226
1.319665
1.480358
1.668238
1.892308
1.892308
2.084314
2.205067
2.275944
2.266944
2.155753
2.007999
1.829118
1.6493
1.48917
1.48917
1.339353
1.278977
1.257226
1.262101
1.307665
1.452044
1.635237
1.853119
2.051312
2.051312
2.182754
2.254381
2.236756
2.135878
1.994498
1.818993
1.641237
1.472107
1.320415
1.320415
1.268101
1.253101
1.254038
1.277476
1.398793
1.579361
1.79593
1.990561
1.990561
2.12444
2.198505
2.191942
2.088251
1.945184
1.763304
1.584423
1.409668
1.277101
1.277101
1.254788
1.247851
1.247851
1.255538
1.32229
1.487858
1.697864
1.89212
2.029374
2.029374
2.102689
2.102877
2.004249
1.856682
1.678739
1.505108
1.333728
1.257413
1.248038
1.248038
1.245413
1.245225
1.247851
1.271289
1.397855
1.613862
1.81018
1.961497
2.038
2.038
2.053
1.958685
1.833243
1.661113
1.488608
1.326791
1.256663
1.248038
1.2456
1.2456
1.245413
1.248413
1.271476
1.403855
1.621737
1.823118
1.990186
2.070063
2.070063
2.092939
2.016249
1.884433
1.710615
1.541672
1.373104
1.270164
1.251601
1.246726
1.246726
1.246913
1.253101
1.302602
1.478858
1.696927
1.904871
2.088064
2.173754
2.203192
2.203192
2.136815
2.021499
1.851431
1.692052
1.527984
1.383792
1.300165
1.265476
1.263601
1.263601
1.31104
1.432169
1.6388
1.856307
2.06125
2.259256
2.347384
2.383948
2.319633
2.319633
2.200942
2.042687
1.876932
1.709115
1.551422
1.454482
1.37873
1.344041
1.437606
1.437606
1.563235
1.755429
1.95756
2.159128
2.343071
2.432512
2.474888
2.416199
2.416199
2.280257
2.121627
1.95081
1.778867
1.6223
1.504358
1.407793
1.378917
1.448857
1.448857
1.56886
1.757304
1.949872
2.160628
2.349072
2.427262
2.470575
2.409636
2.27782
2.27782
2.113564
1.942747
1.761241
1.591174
1.473045
1.382667
1.340853
1.401418
1.518234
1.518234
1.702364
1.89137
2.088814
2.28307
2.37026
2.413011
2.358447
2.238068
2.073251
2.073251
1.896808
1.712302
1.551235
1.431231
1.336353
1.298477
1.348729
1.460107
1.460107
1.6493
1.839619
2.044562
2.223255
2.350197
2.393698
2.335571
2.218005
2.057125
2.057125
1.88837
1.705927
1.549547
1.409668
1.330166
1.293414
1.334478
1.448294
1.628675
1.628675
1.815243
2.033687
2.228131
2.326384
2.379447
2.344572
2.227193
2.074563
1.896433
1.896433
1.72224
1.560985
1.432919
1.341603
1.296602
1.340103
1.446232
1.625112
1.817305
1.817305
2.028062
2.237131
2.345321
2.394823
2.362947
2.246694
2.088064
1.918371
1.747178
1.747178
1.584236
1.446794
1.360354
1.31254
1.352291
1.458045
1.63805
1.827993
1.827993
2.044
2.245944
2.352259
2.416761
2.392761
2.27707
2.12744
1.951747
1.779242
1.779242
1.615174
1.472482
1.387542
1.327541
1.362417
1.457482
1.641988
1.822743
2.036687
2.036687
2.236756
2.354322
2.423136
2.405511
2.29432
2.141503
1.97331
1.794617
1.639175
1.639175
1.488983
1.40198
1.332416
1.359604
1.466857
1.634487
1.817118
2.035562
2.233756
2.233756
2.355072
2.422949
2.408511
2.313071
2.160066
1.977623
1.806993
1.6433
1.6433
1.482983
1.39973
1.332978
1.359792
1.46292
1.6283
1.81168
2.032562
2.232818
2.232818
2.352822
2.425574
2.421262
2.321133
2.180692
2.000124
1.827431
1.667301
1.504921
1.504921
1.418668
1.347041
1.360167
1.453544
1.615737
1.800242
2.014749
2.209005
2.343446
2.343446
2.420136
2.417511
2.312883
2.172254
1.993373
1.817493
1.652113
1.490483
1.398043
1.398043
1.32379
1.331853
1.425043
1.574673
1.764429
1.984186
2.181067
2.319446
2.390886
2.390886
2.385448
2.310071
2.164941
1.995623
1.827993
1.659801
1.506234
1.416418
1.416418
1.339728
1.341791
1.438169
1.589111
1.768929
1.979873
2.180317
2.333884
2.409636
2.409636
2.417511
2.333509
2.19963
2.032937
1.865869
1.692989
1.537734
1.442294
1.358104
1.358104
1.356416
1.444169
1.590236
1.773992
1.987748
2.188192
2.350197
2.431574
2.446575
2.446575
2.362572
2.234318
2.062751
1.887995
1.715865
1.55761
1.459545
1.372354
1.360729
1.360729
1.449607
1.585736
1.769679
1.986061
2.184254
2.350947
2.431949
2.454262
2.454262
2.375885
2.243881
2.071188
1.902246
1.727303
1.55386
1.451482
1.369542
1.360167
1.360167
1.445107
1.568673
1.757679
1.96506
2.167941
2.340634
2.433449
2.451825
2.369697
2.369697
2.232818
2.068376
1.905621
1.731428
1.571486
1.46517
1.375542
1.349479
1.429919
1.429919
1.558548
1.741553
1.949497
2.153878
2.341197
2.430637
2.460825
2.38001
2.240318
2.240318
2.065938
1.905621
1.722803
1.565485
1.466482
1.371979
1.332416
1.381917
1.381917
1.477733
1.602611
1.744178
1.893433
2.047188
2.095564
2.063688
1.95006
1.798742
1.798742
1.630737
1.46592
1.281039
1.251601
1.250663
1.273914
1.301852
1.328103
1.363729
1.363729
1.535859
1.753179
2.121065
2.414511
2.635205
2.662394
2.662206
2.662394
2.662956
2.662956
2.577266
2.393511
2.194192
2.042125
1.893245
1.812993
1.833993
1.905433
2.05675
2.05675
2.20338
2.369697
2.532827
2.591892
2.604642
2.509577
2.350759
2.150128
2.150128
1.935247
1.717927
1.538859
1.404043
1.30879
1.272039
1.293789
1.391105
1.568485
1.568485
1.757679
1.961497
2.166254
2.257381
2.311196
2.273507
2.142628
1.989248
1.818431
1.818431
1.629612
1.464982
1.335978
1.274101
1.258538
1.274101
1.356791
1.530422
1.724678
1.724678
1.940309
2.138878
2.239568
2.299195
2.259256
2.147316
1.990936
1.816368
1.634487
1.634487
1.46892
1.337291
1.278789
1.262101
1.278227
1.359792
1.526859
1.721678
1.721678
1.947622
2.140753
2.259256
2.307258
2.275944
2.158941
1.993936
1.850494
1.658488
1.658488
1.348729
1.284039
1.263226
1.275789
1.353041
1.520484
1.706115
1.941247
2.125565
2.243506
2.243506
2.305195
2.278007
2.168316
2.019624
1.840556
1.661488
1.500796
1.364479
1.284789
1.284789
1.262476
1.274289
1.334666
1.498358
1.686802
1.908433
2.109439
2.22213
2.298633
2.298633
2.276695
2.160441
2.019249
1.845994
1.665988
1.509046
1.358854
1.290227
1.262476
1.262476
1.270164
1.332041
1.494046
1.681551
1.89587
2.091439
2.220818
2.290007
2.290007
2.275382
2.172441
2.029374
1.844306
1.667863
1.507546
1.358104
1.290227
1.258726
1.258726
1.262851
1.309915
1.467232
1.654176
1.861369
2.049813
2.180692
2.252694
2.235256
2.235256
2.14169
1.979498
1.804368
1.623425
1.458045
1.305602
1.259851
1.252163
1.252163
1.252163
1.266976
1.365229
1.543922
1.756741
1.951184
2.078876
2.150878
2.148066
2.0425
2.0425
1.896245
1.70949
1.532484
1.358479
1.262664
1.249726
1.245975
1.245975
1.249913
1.249913
1.284977
1.425231
1.644988
1.840369
1.989998
2.059188
2.062376
1.966935
1.966935
1.831181
1.658301
1.488608
1.323603
1.256663
1.247663
1.2456
1.2456
1.248413
1.248413
1.276726
1.422606
1.63205
1.833431
1.986248
2.063125
2.082626
1.995623
1.866619
1.866619
1.697864
1.536047
1.369729
1.267351
1.250851
1.246913
1.246538
1.252163
1.304102
1.304102
1.47267
1.680801
1.892495
2.065188
2.157254
2.187067
2.101939
1.979873
1.832493
1.832493
1.665426
1.502296
1.355479
1.281789
1.258913
1.258538
1.296227
1.425793
1.62755
1.62755
1.849369
2.054875
2.236381
2.328259
2.358447
2.287007
2.166441
2.001061
2.001061
1.851057
1.682301
1.518984
1.428794
1.343479
1.330541
1.419231
1.551797
1.752991
1.752991
1.955497
2.161753
2.347759
2.438512
2.460825
2.399511
2.275382
2.112064
1.946122
1.946122
1.769304
1.610487
1.506234
1.419043
1.39148
1.471357
1.597174
1.786367
1.989061
1.989061
2.197192
2.381323
2.468325
2.502639
2.437012
2.314383
2.149753
1.974998
1.797992
1.797992
1.6433
1.530422
1.442294
1.411356
1.475483
1.598111
1.783367
1.991311
1.991311
2.191192
2.380948
2.467388
2.515389
2.441887
2.324321
2.166441
1.986248
1.801742
1.801742
1.642175
1.527422
1.435356
1.392792
1.46892
1.576548
1.752241
1.964122
2.171129
2.171129
2.35901
2.445637
2.490076
2.440387
2.313821
2.158753
1.990561
1.815243
1.654551
1.654551
1.532484
1.437419
1.401418
1.451669
1.571298
1.757116
1.947622
2.163628
2.359947
2.359947
2.449762
2.500764
2.431762
2.335009
2.181629
2.006874
1.830431
1.673301
1.543547
1.543547
1.451294
1.404043
1.46142
1.573173
1.748678
1.945184
2.158378
2.353759
2.353759
2.456325
2.512014
2.46945
2.350384
2.199255
2.025437
1.855182
1.687551
1.558548
1.558548
1.47717
1.419981
1.467795
1.577861
1.758804
1.947247
2.163253
2.363322
2.466825
2.466825
2.53189
2.496451
2.381135
2.228506
2.056938
1.878432
1.723553
1.582736
1.491983
1.491983
1.434794
1.479983
1.579361
1.761054
1.952872
2.170379
2.36876
2.471513
2.54164
2.54164
2.517452
2.404011
2.253631
2.074751
1.902808
1.752428
1.594174
1.512796
1.512796
1.458045
1.491608
1.591361
1.761429
1.961497
2.175629
2.372135
2.490826
2.555703
2.555703
2.533765
2.427824
2.28532
2.103439
1.935059
1.768929
1.620987
1.533797
1.466857
1.466857
1.491608
1.596611
1.768366
1.955497
2.167379
2.366135
2.486138
2.556453
2.547828
2.547828
2.442637
2.303508
2.127065
1.95606
1.790492
1.630925
1.524796
1.497421
1.509421
1.509421
1.607112
1.765554
1.947434
2.169629
2.372885
2.490076
2.569391
2.562828
2.455013
2.455013
2.312508
2.13869
1.960372
1.784492
1.624175
1.545235
1.458795
1.473232
1.473232
1.570923
1.72824
1.905433
2.117315
2.326196
2.460825
2.52964
2.522702
2.420887
2.420887
2.285507
2.111502
1.941809
1.764616
1.606362
1.517859
1.443044
1.454294
1.55461
1.55461
1.712865
1.89737
2.119565
2.312133
2.463075
2.539202
2.55064
2.4597
2.327321
2.327321
2.134378
1.996373
1.810555
1.650425
1.557423
1.479608
1.47642
1.571673
1.719427
1.719427
1.906183
2.12294
2.322633
2.480138
2.561891
2.570141
2.477513
2.340634
2.340634
2.167941
1.997123
1.832493
1.674614
1.579736
1.494796
1.489733
1.580486
1.71624
1.71624
1.903558
2.119752
2.318508
2.477888
2.562453
2.572766
2.488763
2.354322
2.180504
2.180504
2.003124
1.842994
1.689239
1.583673
1.497046
1.486358
1.570548
1.705739
1.891558
1.891558
2.111315
2.299008
2.476388
2.559266
2.584954
2.502826
2.365572
2.197192
2.027124
2.027124
1.849369
1.695802
1.592111
1.508671
1.500983
1.573548
1.702552
1.891745
1.891745
2.082814
2.313071
2.483888
2.567891
2.591516
2.515389
2.388635
2.22363
2.048687
2.048687
1.885182
1.72824
1.628487
1.538859
1.515984
1.550297
1.688676
1.868119
2.079813
2.079813
2.30632
2.490263
2.567891
2.603142
2.520077
2.359572
2.13869
1.916308
1.682676
1.682676
1.48317
1.347416
1.267351
1.250101
1.258538
1.314978
1.493296
1.652863
1.873557
1.873557
2.104564
2.362947
2.558516
2.507889
2.301445
2.101189
1.925684
1.903746
1.860807
1.860807
1.929621
2.12444
2.264507
2.381135
2.522702
2.623768
2.662581
2.662394
2.662394
2.662019
2.662019
2.662206
2.662206
2.662581
2.639706
2.512202
2.287945
2.095376
2.095376
1.947247
1.818806
1.741741
1.755991
1.833806
1.972185
2.12444
2.317196
2.494764
2.494764
2.572204
2.604642
2.540703
2.411511
2.245569
2.077188
1.881245
1.730678
1.606924
1.606924
1.527984
1.47867
1.524047
1.637487
1.821618
2.011186
2.21538
2.409074
2.506576
2.506576
2.559453
2.52439
2.402886
2.239193
2.074001
1.907308
1.739303
1.615549
1.615549
1.528734
1.475108
1.521234
1.634675
1.81768
2.012686
2.210317
2.419761
2.52889
2.52889
2.593017
2.556266
2.433262
2.284382
2.118065
1.942372
1.769491
1.637675
1.55086
1.55086
1.496296
1.545047
1.652113
1.830056
2.018499
2.238443
2.440949
2.545953
2.60933
2.60933
2.580266
2.467013
2.314945
2.140003
1.959622
1.799305
1.657926
1.566235
1.495171
1.495171
1.547485
1.639363
1.819743
2.009686
2.221193
2.419574
2.530015
2.603517
2.573328
2.573328
2.443762
2.319446
2.146378
1.95981
1.798742
1.645925
1.567735
1.501921
1.501921
1.519921
1.6238
1.797805
1.992623
2.19888
2.396511
2.517264
2.589267
2.572579
2.572579
2.464388
2.317571
2.142066
1.968435
1.808305
1.651738
1.564735
1.488795
1.508859
1.508859
1.612362
1.786555
1.95906
2.186879
2.372698
2.494014
2.568078
2.556453
2.451262
2.451262
2.302758
2.124253
1.948934
1.777367
1.616862
1.527047
1.449982
1.45992
1.559485
1.559485
1.706865
1.88387
2.112627
2.292258
2.423887
2.470201
2.487826
2.377948
2.235256
2.235256
2.045687
1.865307
1.692802
1.525734
1.425418
1.356791
1.350791
1.440981
1.440981
1.588923
1.768366
1.981185
2.172066
2.30407
2.374385
2.370447
2.267132
2.126127
2.126127
1.947247
1.765179
1.596986
1.440231
1.342166
1.286289
1.359041
1.504733
1.693177
1.925121
1.925121
2.108502
2.261132
2.332946
2.344197
2.257194
2.119752
1.946497
1.779804
1.613112
1.613112
1.451107
1.361854
1.296414
1.30354
1.383417
1.540172
1.730115
1.946309
2.156128
2.156128
2.310446
2.38976
2.412824
2.326759
2.211817
2.015499
1.868682
1.72074
1.72074
1.552735
1.457669
1.385667
1.388105
1.485233
1.638425
1.822556
2.051312
2.274632
2.274632
2.44695
2.535452
2.564703
2.494951
2.373635
2.214818
2.059
1.893995
1.749991
1.749991
1.647425
1.571298
1.560798
1.658113
1.797805
1.994123
2.214068
2.427262
2.602579
2.602579
2.628268
2.662956
2.62733
2.52589
2.369135
2.200942
2.030874
1.874307
1.773617
1.773617
1.691489
1.659801
1.746803
1.891745
2.067626
2.282882
2.481076
2.600704
2.662956
2.662956
2.662956
2.637268
2.581016
2.413949
2.239006
2.070813
1.911808
1.808118
1.808118
1.71324
1.694114
1.760679
1.886683
2.081313
2.268069
2.473575
2.606704
2.662769
2.662769
2.662956
2.656769
2.579704
2.415074
2.248194
2.082438
1.909933
1.796492
1.704427
1.704427
1.674239
1.737053
1.858182
2.04325
2.236756
2.452387
2.596392
2.648518
2.662956
2.662956
2.634643
2.577266
2.410386
2.242381
2.05375
1.891933
1.799492
1.696177
1.649863
1.649863
1.721115
1.847494
2.021874
2.209567
2.425949
2.593204
2.647581
2.662769
2.63783
2.63783
2.583079
2.415636
2.248756
2.064438
1.901495
1.782242
1.690927
1.643863
1.643863
1.703677
1.819368
2.005749
2.189504
2.398761
2.583829
2.627517
2.662956
2.634455
2.634455
2.568266
2.410011
2.243693
2.073626
1.89887
1.771554
1.683239
1.63505
1.687364
1.687364
1.80043
1.989248
2.170566
2.372135
2.573516
2.60708
2.662769
2.641581
2.583829
2.583829
2.434949
2.254381
2.073251
1.926996
1.798742
1.702177
1.649113
1.701052
1.806055
1.806055
1.978935
2.174316
2.388261
2.573704
2.626205
2.662956
2.653769
2.590204
2.590204
2.4492
2.28232
2.099501
1.947059
1.80868
1.709677
1.649863
1.691302
1.800805
1.800805
1.973498
2.159503
2.377573
2.570328
2.628643
2.662956
2.662769
2.590204
2.449762
2.449762
2.282507
2.107752
1.95156
1.803992
1.71774
1.651363
1.681551
1.790492
1.95981
1.95981
2.149003
2.37026
2.558703
2.619642
2.662956
2.659769
2.595267
2.473013
2.296945
2.296945
2.120315
1.960185
1.814118
1.72524
1.652488
1.678926
1.787867
1.951747
2.137378
2.137378
2.350759
2.546515
2.60858
2.662769
2.660331
2.600329
2.478263
2.299757
2.299757
2.12594
1.95981
1.808305
1.717927
1.652675
1.670488
1.767241
1.928496
2.114689
2.114689
2.330133
2.532077
2.590767
2.662956
2.661831
2.595079
2.477701
2.28832
2.117877
2.117877
1.951747
1.791242
1.702927
1.6223
1.6328
1.73124
1.88912
2.073251
2.289445
2.289445
2.481076
2.604079
2.631455
2.635205
2.586266
2.443574
2.272194
2.100064
1.928684
1.928684
1.767804
1.683239
1.609174
1.622112
1.720552
1.875057
2.064438
2.275569
2.275569
2.479576
2.605767
2.641018
2.649456
2.596204
2.476201
2.30482
2.127815
1.958685
1.958685
1.794992
1.703677
1.6283
1.628112
1.717365
1.861932
2.055813
2.271444
2.468513
2.468513
2.600517
2.640643
2.660331
2.602204
2.489138
2.314758
2.152191
1.97556
1.820118
1.820118
1.71999
1.643113
1.631862
1.71249
1.860244
2.044
2.262632
2.4612
2.601079
2.601079
2.64008
2.662769
2.598079
2.498326
2.325258
2.162879
1.983061
1.826118
1.72674
1.72674
1.633362
1.617799
1.707427
1.844494
2.025437
2.241256
2.439825
2.598454
2.598454
2.627705
2.661269
2.602392
2.505264
2.337071
2.170566
1.988873
1.825556
1.729928
1.729928
1.637675
1.622112
1.701614
1.831743
2.022624
2.229631
2.431949
2.598454
2.630705
2.630705
2.662956
2.610455
2.514639
2.352822
2.188942
2.016062
1.847869
1.73724
1.636362
1.636362
1.597736
1.668238
1.797992
1.986248
2.206567
2.413574
2.586641
2.600142
2.601642
2.601642
2.562078
2.37626
2.146378
1.934309
1.741178
1.534922
1.360167
1.279727
1.279727
1.266226
1.313478
1.408543
1.581611
1.818993
2.149941
2.510139
2.610455
2.596204
2.596204
2.486701
2.359197
2.282132
2.263007
2.235443
2.313633
2.425386
2.432699
2.424074
2.424074
2.472263
2.557016
2.647393
2.662581
2.662394
2.662206
2.662019
2.662206
2.662206
2.662206
2.662581
2.631455
2.494201
2.285132
2.091251
1.921184
1.79143
1.699364
1.718865
1.718865
1.794055
1.944434
2.119565
2.31532
2.499826
2.571266
2.61158
2.54614
2.54614
2.419949
2.257006
2.092001
1.920996
1.756741
1.629237
1.536234
1.48392
1.536797
1.536797
1.648175
1.824618
2.012686
2.22063
2.415449
2.497014
2.557016
2.518202
2.395198
2.395198
2.234318
2.073438
1.899808
1.738178
1.609174
1.518421
1.46442
1.517859
1.628487
1.628487
1.80718
2.002374
2.210505
2.410198
2.512389
2.563953
2.524015
2.416199
2.258881
2.258881
2.088626
1.915371
1.749241
1.608237
1.530047
1.461232
1.495546
1.614987
1.792555
1.792555
1.989623
2.212568
2.399511
2.497576
2.562078
2.53189
2.416011
2.262444
2.262444
2.088439
1.914433
1.755429
1.607112
1.522922
1.457669
1.490858
1.597174
1.765741
1.765741
1.953247
2.164941
2.362197
2.467763
2.53714
2.520264
2.405136
2.254756
2.077376
2.077376
1.898308
1.737615
1.584986
1.489358
1.427856
1.460482
1.557235
1.71924
1.907871
1.907871
2.13194
2.320008
2.446387
2.512389
2.472826
2.379072
2.228881
2.043062
1.865307
1.865307
1.704052
1.553672
1.46442
1.39373
1.419043
1.511671
1.672926
1.866619
1.866619
2.079251
2.267132
2.39426
2.456887
2.443762
2.338009
2.174879
1.997311
1.821431
1.821431
1.663363
1.491796
1.39148
1.320415
1.331666
1.424106
1.576361
1.753741
1.96431
1.96431
2.157629
2.279132
2.347947
2.334071
2.218568
2.072688
1.889495
1.70799
1.536797
1.536797
1.370854
1.291914
1.260226
1.260788
1.29529
1.425043
1.602611
1.820868
1.998811
1.998811
2.13194
2.200192
2.190442
2.078688
1.95156
1.770054
1.598111
1.431794
1.431794
1.287977
1.257413
1.249163
1.249538
1.261913
1.345541
1.526859
1.746428
1.944809
1.944809
2.085251
2.167004
2.167191
2.080189
1.945184
1.770054
1.605049
1.440419
1.298477
1.298477
1.261351
1.250851
1.251976
1.265851
1.361292
1.551047
1.783742
1.979685
2.137565
2.137565
2.21538
2.234881
2.151816
2.023187
1.856682
1.694864
1.533047
1.383605
1.308415
1.308415
1.268289
1.269789
1.332978
1.47192
1.668426
1.893995
2.104564
2.278007
2.36051
2.36051
2.397823
2.328259
2.206942
2.049625
1.885558
1.722053
1.572235
1.478858
1.478858
1.398418
1.403105
1.494796
1.625112
1.826306
2.04325
2.252506
2.428574
2.511827
2.511827
2.54764
2.474513
2.350947
2.184629
2.020937
1.850307
1.693927
1.592486
1.509796
1.509796
1.488233
1.567173
1.698052
1.88312
2.089939
2.289632
2.471325
2.551203
2.581391
2.581391
2.520077
2.390323
2.219505
2.054875
1.881432
1.713427
1.612737
1.521046
1.493296
1.493296
1.686614
1.866432
2.065563
2.267319
2.4537
2.53114
2.571453
2.520452
2.402323
2.402323
2.219318
2.044937
1.865494
1.70949
1.595111
1.507171
1.475857
1.533797
1.643863
1.643863
1.843556
2.046813
2.245194
2.432324
2.517077
2.560391
2.498514
2.372323
2.206005
2.206005
2.035187
1.856869
1.693927
1.576361
1.48317
1.445482
1.509421
1.629237
1.809805
1.809805
2.008374
2.208442
2.407386
2.492139
2.534328
2.481451
2.351697
2.194754
2.194754
2.027312
1.839806
1.676864
1.555735
1.460857
1.414918
1.473232
1.586486
1.771367
1.771367
1.97256
2.180692
2.365197
2.453325
2.508452
2.478076
2.360135
2.190817
2.023562
2.023562
1.853119
1.682676
1.548235
1.461232
1.419606
1.467982
1.583673
1.763679
1.95756
1.95756
2.169441
2.36576
2.469263
2.526077
2.483138
2.363697
2.21688
2.042125
1.870932
1.870932
1.714177
1.573548
1.48392
1.434044
1.473982
1.588736
1.768742
1.96131
2.173004
2.173004
2.372135
2.476388
2.53789
2.505639
2.392761
2.240506
2.070626
1.897183
1.897183
1.746428
1.595111
1.506421
1.447357
1.48767
1.596986
1.763866
1.95456
2.171316
2.171316
2.37326
2.483326
2.539015
2.511639
2.407011
2.257944
2.087876
1.914246
1.755054
1.755054
1.620424
1.526859
1.46667
1.499858
1.599986
1.768742
1.96056
2.178066
2.36876
2.36876
2.494576
2.554203
2.533765
2.435512
2.277632
2.106439
1.927746
1.766117
1.617049
1.617049
1.536609
1.462732
1.498921
1.588173
1.755429
1.947997
2.169254
2.358259
2.358259
2.484263
2.560203
2.539577
2.428199
2.291507
2.112439
1.940684
1.775492
1.619112
1.619112
1.527609
1.456544
1.478108
1.578986
1.732365
1.913683
2.13419
2.335946
2.450512
2.450512
2.54089
2.515952
2.407386
2.267319
2.096314
1.921184
1.760304
1.598299
1.514484
1.514484
1.445669
1.466482
1.548047
1.734053
1.911808
2.13119
2.326946
2.467763
2.553078
2.553078
2.55364
2.46495
2.331446
2.155003
1.989811
1.831181
1.677989
1.587986
1.516359
1.516359
1.526484
1.617987
1.773429
1.955122
2.175254
2.375885
2.520827
2.600704
2.600704
2.612892
2.529452
2.393136
2.219505
2.05525
1.890995
1.728803
1.65005
1.57261
1.57261
1.562298
1.660551
1.817868
1.987186
2.21238
2.409074
2.552515
2.598267
2.598454
2.598454
2.55514
2.423136
2.260569
2.099314
1.923246
1.773429
1.672364
1.583111
1.590049
1.590049
1.684364
1.822743
2.011186
2.229818
2.429699
2.588704
2.616267
2.63258
2.596579
2.596579
2.478638
2.29507
2.133628
1.966747
1.806243
1.70724
1.628487
1.616674
1.616674
1.692427
1.829868
2.002749
2.242193
2.435137
2.600892
2.633518
2.662956
2.60483
2.60483
2.520452
2.338759
2.174879
2.001624
1.847494
1.750554
1.653988
1.647613
1.736678
1.736678
1.856307
2.044
2.252881
2.444512
2.602954
2.630518
2.661269
2.604642
2.513327
2.513327
2.359385
2.191192
1.998999
1.814868
1.674989
1.520671
1.458232
1.484483
1.589298
1.589298
1.751866
1.908433
2.089189
2.272944
2.385635
2.398011
2.299008
2.231318
2.231318
2.12144
2.134378
2.076626
1.926809
1.741553
1.667863
1.673489
1.903933
2.14169
2.14169
2.480513
2.662394
2.662019
2.661456
2.661456
2.661456
2.661644
2.662019
2.662206
2.662206
2.662581
2.615892
2.452387
2.293758
2.160254
2.085626
2.103627
2.174691
2.322821
2.322821
2.482013
2.604079
2.662769
2.662769
2.662769
2.641581
2.582329
2.405886
2.22288
2.22288
2.03125
1.854432
1.724865
1.6343
1.594549
1.644613
1.770054
1.953622
2.144691
2.144691
2.351697
2.545015
2.606704
2.595642
2.603892
2.498701
2.331071
2.165504
2.165504
1.97631
1.818056
1.696364
1.601861
1.555735
1.617237
1.734053
1.923996
2.114877
2.114877
2.321321
2.535452
2.608955
2.644206
2.602767
2.504889
2.351134
2.177316
2.009311
2.009311
1.853869
1.727303
1.629237
1.581423
1.631675
1.748678
1.929246
2.122377
2.341009
2.341009
2.535827
2.603517
2.639518
2.618142
2.537327
2.377948
2.211442
2.047375
1.878245
1.878245
1.724678
1.6418
1.575048
1.628112
1.730303
1.910683
2.101752
2.320383
2.320383
2.517639
2.605955
2.593392
2.60483
2.529452
2.38301
2.199817
2.046062
1.872995
1.872995
1.724115
1.63805
1.573548
1.620424
1.716052
1.889308
2.081501
2.290382
2.496451
2.496451
2.598267
2.602767
2.605767
2.533202
2.390136
2.21163
2.042312
1.878807
1.724303
1.724303
1.640488
1.583111
1.604674
1.710052
1.881245
2.070063
2.293008
2.478826
2.589829
2.589829
2.595829
2.613642
2.539577
2.382073
2.212005
2.036875
1.877307
1.715302
1.629987
1.629987
1.564923
1.589486
1.686802
1.823868
2.033499
2.255881
2.454638
2.580829
2.580829
2.629768
2.611767
2.507326
2.353759
2.173566
2.007999
1.848431
1.684176
1.583486
1.583486
1.504733
1.521796
1.634862
1.768554
1.933934
2.147691
2.340822
2.467013
2.527202
2.527202
2.527202
2.417136
2.271632
2.100252
1.918934
1.740241
1.579736
1.497608
1.408918
1.408918
1.416981
1.503796
1.664676
1.836056
2.077751
2.267882
2.406261
2.481076
2.478638
2.478638
2.388073
2.251006
2.074001
1.918746
1.758054
1.562485
1.493108
1.412668
1.412668
1.425606
1.518234
1.674051
1.860432
2.075126
2.293383
2.430637
2.522327
2.524577
2.524577
2.425386
2.300508
2.148628
1.970873
1.818243
1.659426
1.569798
1.495921
1.493671
1.493671
1.594924
1.753366
1.946872
2.167379
2.371197
2.54914
2.610267
2.61233
2.583454
2.583454
2.474513
2.306883
2.141128
1.984373
1.833993
1.745491
1.679114
1.681739
1.759366
1.759366
1.921371
2.115814
2.332759
2.549703
2.635018
2.662769
2.662769
2.662769
2.662769
2.599204
2.473575
2.299757
2.12744
1.977623
1.890433
1.797805
1.788992
1.876745
1.876745
2.020937
2.203567
2.419011
2.60558
2.662769
2.662581
2.662581
2.662769
2.631455
2.631455
2.497389
2.36501
2.173379
2.007624
1.901308
1.817868
1.803992
1.887245
2.010249
2.010249
2.197005
2.414136
2.570703
2.662769
2.662769
2.662581
2.662581
2.638206
2.503014
2.503014
2.331446
2.179754
2.021312
1.902808
1.81243
1.783742
1.864744
1.984186
1.984186
2.158003
2.36876
2.567328
2.662581
2.662956
2.662769
2.662581
2.636331
2.521952
2.521952
2.347384
2.173754
2.018124
1.899058
1.81018
1.774742
1.842806
1.964122
2.151253
2.151253
2.35751
2.559266
2.660331
2.662769
2.662581
2.662581
2.638206
2.520264
2.356385
2.356385
2.181817
2.015687
1.896808
1.816743
1.762366
1.828743
1.959435
2.131565
2.343259
2.343259
2.53414
2.654519
2.662769
2.662769
2.662769
2.62958
2.523077
2.354509
2.169441
2.169441
2.006874
1.911433
1.800805
1.765179
1.800242
1.932434
2.120315
2.303508
2.303508
2.513889
2.648706
2.662769
2.662581
2.662769
2.63483
2.52814
2.362572
2.167191
2.167191
2.026374
1.903746
1.819555
1.767617
1.809243
1.921746
2.106439
2.308571
2.508827
2.508827
2.638206
2.662769
2.662581
2.662769
2.637081
2.552328
2.38451
2.197755
2.036687
2.036687
1.904871
1.818618
1.759929
1.801367
1.908433
2.088064
2.283257
2.635018
2.662769
2.662769
2.662769
2.662769
2.630893
2.527577
2.375698
2.191942
2.033124
1.893995
1.80043
1.741366
1.741366
1.770242
1.898683
2.074001
2.253069
2.479201
2.624143
2.662956
2.662581
2.662581
2.662769
2.636143
2.54464
2.36501
2.188567
2.025624
1.874682
1.78918
1.72524
1.72524
1.755616
1.848619
2.029374
2.211442
2.423887
2.581016
2.662956
2.662581
2.662956
2.662956
2.622455
2.509014
2.345509
2.157441
2.012499
1.864182
1.775492
1.699364
1.732178
1.732178
1.817118
2.007624
2.193817
2.409636
2.573891
2.661831
2.662769
2.662769
2.640643
2.640643
2.542765
2.365947
2.209192
2.045125
1.887245
1.809055
1.716802
1.740428
1.740428
1.839244
2.021312
2.202442
2.419574
2.583454
2.662769
2.662769
2.662769
2.642331
2.642331
2.567516
2.401011
2.226443
2.068376
1.917058
1.819743
1.738553
1.763304
1.863994
1.863994
2.024499
2.201692
2.427074
2.599767
2.662769
2.662769
2.662769
2.650956
2.577641
2.577641
2.421262
2.267507
2.093689
1.936372
1.850681
1.770617
1.779242
1.866619
2.017561
2.017561
2.21463
2.420136
2.596017
2.662769
2.662769
2.662769
2.662769
2.584954
2.584954
2.432887
2.268069
2.109252
1.935434
1.837744
1.768742
1.769304
1.853682
2.001998
2.001998
2.190254
2.417136
2.575954
2.662956
2.662769
2.662956
2.662769
2.588517
2.438512
2.438512
2.273694
2.099314
1.939184
1.840931
1.767054
1.762366
1.839619
1.966935
2.136815
2.136815
2.341759
2.513889
2.61608
2.662769
2.662769
2.631268
2.52514
2.365572
2.175066
2.175066
1.976685
1.757866
1.618549
1.482608
1.467607
1.531547
1.627925
1.782054
2.022624
2.022624
2.231131
2.378135
2.432512
2.509389
2.460825
2.46945
2.446762
2.318321
2.318321
2.092189
1.952122
1.855369
1.953997
2.070251
2.264319
2.608017
2.662206
2.661831
2.661831
2.661644
2.661269
2.661269
2.661456
2.661644
2.661644
2.662206
2.662581
2.619455
2.619455
2.453137
2.304633
2.160066
2.090689
2.137753
2.215193
2.341947
2.492514
2.61458
2.61458
2.662581
2.662394
2.662769
2.662769
2.585891
2.413386
2.249694
2.066875
1.877495
1.877495
1.798742
1.684364
1.665613
1.72899
1.846556
2.041375
2.226443
2.416574
2.416574
2.593392
2.637268
2.662769
2.606892
2.516889
2.347947
2.191754
2.016249
1.854057
1.854057
1.734615
1.648175
1.610862
1.681364
1.800242
1.998061
2.19888
2.397636
2.585516
2.585516
2.606142
2.662956
2.618705
2.530202
2.378135
2.206567
2.036875
1.879932
1.749053
1.749053
1.661301
1.632612
1.669926
1.817118
2.007624
2.200192
2.391823
2.581204
2.62058
2.62058
2.663144
2.627892
2.557391
2.386385
2.22213
2.039125
1.881995
1.754866
1.670864
1.670864
1.618737
1.668988
1.778679
1.965435
2.164566
2.356197
2.556453
2.61008
2.61008
2.660144
2.60933
2.53039
2.35676
2.182754
2.004436
1.841119
1.708927
1.627925
1.627925
1.574486
1.619299
1.73199
1.909183
2.098189
2.311945
2.499264
2.594329
2.595829
2.595829
2.607455
2.490263
2.35751
2.168691
1.984748
1.832681
1.692614
1.593799
1.546547
1.546547
1.590236
1.695802
1.87112
2.06425
2.270694
2.458762
2.557766
2.61983
2.582891
2.582891
2.467763
2.310258
2.134003
1.952497
1.788805
1.645738
1.55161
1.487295
1.487295
1.525172
1.62755
1.794242
1.969748
2.182567
2.380948
2.487263
2.54464
2.499076
2.499076
2.39126
2.223818
2.047
1.873557
1.699552
1.547485
1.442857
1.386792
1.415106
1.415106
1.503233
1.664488
1.848806
2.061438
2.250631
2.357322
2.409448
2.386198
2.267694
2.267694
2.115439
1.942559
1.760866
1.594549
1.441919
1.352104
1.294352
1.310103
1.403668
1.403668
1.564735
1.743991
1.962997
2.163816
2.284195
2.354697
2.341759
2.233193
2.233193
2.085439
1.919871
1.746241
1.55536
1.432544
1.340853
1.288539
1.30354
1.403293
1.403293
1.563798
1.759179
1.974623
2.176379
2.31232
2.387885
2.384323
2.288132
2.145628
2.145628
1.977998
1.811868
1.652113
1.501733
1.423731
1.357354
1.384542
1.490671
1.661301
1.661301
1.861744
2.087126
2.30182
2.445825
2.527577
2.555515
2.4537
2.323383
2.164191
2.164191
1.998999
1.846556
1.698427
1.613862
1.549172
1.567548
1.670864
1.839806
2.002561
2.002561
2.249131
2.46495
2.597329
2.644768
2.656581
2.599954
2.491576
2.323383
2.323383
2.159691
1.996748
1.848431
1.754491
1.686239
1.695802
1.788055
1.937684
2.122752
2.122752
2.342322
2.534515
2.63033
2.662769
2.662769
2.633143
2.586079
2.413574
2.244069
2.244069
2.0665
1.928309
1.857057
1.756179
1.746053
1.845431
1.990373
2.163441
2.377948
2.377948
2.572016
2.662956
2.662769
2.662581
2.663144
2.60633
2.4597
2.29432
2.127627
2.127627
1.957747
1.868119
1.778492
1.767054
1.858369
1.992436
2.174879
2.389198
2.389198
2.577829
2.662956
2.662769
2.662769
2.662769
2.635393
2.501139
2.336884
2.164004
2.164004
2.010249
1.908058
1.823118
1.805868
1.88537
2.024312
2.211067
2.412636
2.595642
2.595642
2.662956
2.662581
2.662394
2.662581
2.643268
2.559266
2.390136
2.221755
2.061438
2.061438
1.960935
1.87412
1.849369
1.932059
2.057875
2.248006
2.458575
2.62208
2.662581
2.662581
2.662394
2.662394
2.662394
2.662769
2.591329
2.455762
2.28682
2.12969
2.018499
2.018499
1.926809
1.894558
1.97631
2.099689
2.295633
2.496076
2.63408
2.662394
2.662394
2.662394
2.662394
2.662581
2.662769
2.637643
2.520452
2.352822
2.189317
2.079251
2.079251
1.991873
1.957372
2.020374
2.14694
2.308946
2.527952
2.651331
2.662581
2.662394
2.662394
2.662206
2.662394
2.662581
2.652456
2.576704
2.403261
2.242756
2.133065
2.041
2.041
2.001811
2.0635
2.173191
2.359947
2.553078
2.659956
2.662581
2.662206
2.662019
2.662019
2.662206
2.662394
2.662769
2.595267
2.447325
2.28082
2.160628
2.071938
2.071938
2.020187
2.085814
2.200192
2.389573
2.566391
2.662769
2.662581
2.662206
2.662019
2.662019
2.662019
2.662394
2.662769
2.627143
2.489513
2.325634
2.204317
2.112439
2.065751
2.065751
2.119565
2.224193
2.411699
2.574454
2.662581
2.662581
2.662206
2.662206
2.662206
2.662206
2.662394
2.662581
2.631643
2.514077
2.338384
2.196067
2.101189
2.044187
2.085251
2.085251
2.193254
2.370072
2.54989
2.660144
2.662394
2.662206
2.662206
2.662206
2.662206
2.662206
2.662581
2.626018
2.523264
2.369135
2.229068
2.130065
2.069688
2.118065
2.118065
2.220443
2.383385
2.556266
2.662769
2.662394
2.662394
2.662206
2.662019
2.662394
2.662394
2.662581
2.630705
2.520077
2.36051
2.219693
2.131565
2.056938
2.085626
2.174691
2.174691
2.335009
2.527765
2.649456
2.662394
2.662206
2.662019
2.662394
2.662394
2.662769
2.662769
2.630143
2.494576
2.345134
2.190254
2.075501
2.019062
2.043625
2.145066
2.304445
2.304445
2.488014
2.63483
2.662769
2.662206
2.662019
2.662206
2.662394
2.662581
2.623205
2.623205
2.495326
2.328259
2.171879
2.083376
2.008561
2.029937
2.12369
2.28082
2.28082
2.471325
2.634643
2.662581
2.662019
2.662206
2.662206
2.662769
2.63108
2.509389
2.348697
2.348697
2.185942
2.091064
2.011186
2.020937
2.113002
2.267507
2.451075
2.62733
2.662769
2.662769
2.662394
2.662206
2.662394
2.662394
2.662581
2.616455
2.489326
2.315883
2.175629
2.175629
2.086189
2.003874
1.991123
2.064438
2.182192
2.30707
2.505639
2.620393
2.620393
2.662769
2.662769
2.662769
2.633893
2.473388
2.302195
2.128565
1.986436
1.830618
1.830618
1.902621
2.025999
2.111877
2.103439
2.182567
2.29357
2.527577
2.662394
2.662019
2.662019
2.661456
2.661081
2.661081
2.661269
2.661644
2.661831
2.662206
2.662769
2.657706
2.657706
2.602954
2.565078
2.580454
2.618892
2.662769
2.662394
2.662019
2.662206
2.662019
2.662019
2.661831
2.662206
2.662581
2.635205
2.490638
2.285507
2.101564
1.982123
1.982123
1.862307
1.827806
1.904683
2.028999
2.209942
2.413949
2.582141
2.662769
2.662769
2.662769
2.662581
2.662769
2.628643
2.491951
2.317196
2.14244
1.979123
1.866807
1.778117
1.778117
1.757116
1.831181
1.955685
2.143565
2.344384
2.54239
2.655081
2.662769
2.662769
2.662769
2.662956
2.597142
2.459888
2.28982
2.113377
1.953247
1.842619
1.749428
1.71624
1.71624
1.793117
1.919309
2.096501
2.299383
2.491576
2.621705
2.662956
2.662956
2.662956
2.648518
2.591142
2.435137
2.262069
2.076626
1.912371
1.800242
1.696927
1.665238
1.665238
1.728053
1.854057
2.035
2.230943
2.43945
2.600142
2.645143
2.662956
2.634643
2.634643
2.55139
2.393323
2.217255
2.035187
1.875807
1.763491
1.663551
1.627362
1.689614
1.689614
1.804368
1.987936
2.179004
2.386385
2.567891
2.615705
2.662956
2.603704
2.522889
2.522889
2.358447
2.187067
2.013811
1.850307
1.71774
1.624737
1.583673
1.635237
1.752803
1.752803
1.932809
2.114127
2.320946
2.507889
2.599767
2.600704
2.594517
2.462888
2.462888
2.301258
2.128377
1.946497
1.779054
1.6508
1.550297
1.495358
1.543172
1.646675
1.646675
1.824431
2.011561
2.21013
2.401386
2.494576
2.543328
2.493076
2.367072
2.199817
2.199817
2.023937
1.839806
1.669363
1.530609
1.430481
1.370854
1.415481
1.517296
1.679114
1.679114
1.861369
2.069126
2.259069
2.349259
2.398761
2.356197
2.232443
2.066313
1.88912
1.88912
1.697677
1.535859
1.39073
1.304852
1.269226
1.287977
1.370292
1.538297
1.538297
1.724678
1.936372
2.132128
2.227943
2.283632
2.247631
2.137378
1.986998
1.811493
1.811493
1.63505
1.482045
1.333916
1.275976
1.258913
1.267539
1.331103
1.491983
1.683426
1.683426
1.903183
2.103252
2.21913
2.289257
2.264507
2.150503
2.005561
1.834556
1.657551
1.657551
1.496296
1.356041
1.288727
1.263976
1.279914
1.361667
1.532672
1.726365
1.954747
1.954747
2.156503
2.28982
2.36651
2.355072
2.263569
2.129128
1.967498
1.806243
1.654926
1.654926
1.506608
1.430856
1.37948
1.408731
1.519734
1.688676
1.888745
2.119002
2.119002
2.330696
2.46645
2.548578
2.55364
2.458575
2.324508
2.161941
1.998623
1.841681
1.841681
1.698427
1.611799
1.543172
1.567173
1.672551
1.831743
2.021687
2.242381
2.4522
2.4522
2.579141
2.600329
2.602017
2.558891
2.419386
2.247069
2.073063
1.911808
1.755241
1.755241
1.663551
1.582923
1.590611
1.685301
1.839244
2.020187
2.232256
2.435324
2.571078
2.571078
2.608205
2.608392
2.547453
2.405886
2.229631
2.055813
1.883307
1.72599
1.72599
1.627175
1.541109
1.544485
1.6313
1.776804
1.961872
2.180317
2.378323
2.521389
2.521389
2.592267
2.599579
2.504514
2.365197
2.194754
2.019437
1.848994
1.689614
1.588736
1.588736
1.500796
1.495358
1.582361
1.731615
1.910308
2.120315
2.323383
2.480701
2.556641
2.556641
2.568266
2.476013
2.340259
2.172441
2.001998
1.830993
1.670864
1.570173
1.483733
1.483733
1.479608
1.563048
1.700677
1.884058
2.092189
2.297695
2.465513
2.540515
2.567516
2.567516
2.485389
2.349634
2.176754
2.009311
1.842244
1.676301
1.590424
1.498546
1.498546
1.480733
1.563423
1.694302
1.88312
2.090876
2.29507
2.465888
2.543328
2.571266
2.571266
2.494014
2.363884
2.203192
2.033312
1.863244
1.702739
1.597924
1.513171
1.487858
1.487858
1.567548
1.700114
1.887808
2.100439
2.297883
2.474888
2.558891
2.587391
2.518202
2.518202
2.38751
2.221193
2.05225
1.87862
1.721678
1.616862
1.530234
1.505296
1.575048
1.575048
1.699739
1.890058
2.095001
2.300133
2.487076
2.571641
2.612705
2.544265
2.544265
2.414511
2.248194
2.081126
1.908808
1.750178
1.641237
1.547672
1.510734
1.585361
1.585361
1.703115
1.892308
2.092564
2.30032
2.482388
2.567703
2.609142
2.548953
2.422574
2.422574
2.252506
2.089001
1.913683
1.748116
1.634862
1.541109
1.504921
1.570923
1.685676
1.685676
1.862494
2.050937
2.250631
2.446012
2.53789
2.589079
2.53039
2.404198
2.242193
2.242193
2.071938
1.897933
1.744178
1.626987
1.543922
1.506796
1.563423
1.683614
1.683614
1.870182
2.063688
2.27632
2.478826
2.572954
2.623955
2.575579
2.462513
2.303508
2.303508
2.133815
1.95306
1.79218
1.671801
1.576361
1.529297
1.585173
1.698614
1.885558
1.885558
2.081501
2.300133
2.497951
2.589829
2.60708
2.596392
2.485576
2.340071
2.169066
2.169066
1.991498
1.829493
1.702364
1.611237
1.554422
1.605049
1.717927
1.896433
2.093689
2.093689
2.29507
2.501514
2.600892
2.589454
2.600142
2.508452
2.357322
2.185942
2.010811
2.010811
1.846556
1.702739
1.606549
1.551047
1.599986
1.704615
1.882183
2.0665
2.0665
2.284007
2.487638
2.587204
2.61083
2.606892
2.509202
2.35901
2.189879
2.013249
2.013249
1.845431
1.711552
1.622862
1.55836
1.587986
1.689427
1.864182
2.048125
2.267132
2.267132
2.464388
2.576891
2.605205
2.610455
2.510702
2.367635
2.19963
2.024499
1.867182
1.867182
1.720365
1.624737
1.539047
1.558173
1.658676
1.832493
2.010062
2.236193
2.44845
2.44845
2.562641
2.61533
2.592079
2.4597
2.264132
2.037812
1.812993
1.607862
1.607862
1.447169
1.321353
1.257413
1.256851
1.288352
1.433481
1.630362
1.860432
2.247819
2.247819
2.577454
2.662769
2.614767
2.479388
2.294883
2.148816
2.134003
2.134565
2.248194
2.248194
2.381135
2.367072
2.355822
2.396698
2.497389
2.615142
2.662581
2.662581
2.662206
2.662206
2.662206
2.662206
2.662394
2.649643
2.53864
2.318508
2.116002
1.933746
1.79968
1.79968
1.665051
1.631675
1.693739
1.792367
1.948184
2.142066
2.323196
2.440949
2.502826
2.502826
2.498139
2.395198
2.256631
2.083564
1.907683
1.739678
1.582923
1.489545
1.489545
1.402543
1.406106
1.492546
1.649113
1.814118
2.031437
2.224943
2.375323
2.456512
2.456512
2.460825
2.367072
2.231318
2.060875
1.888183
1.720552
1.561735
1.467607
1.38773
1.38773
1.383605
1.473232
1.622862
1.805305
2.021124
2.22138
2.378135
2.456325
2.470013
2.470013
2.379822
2.250256
2.084314
1.912746
1.743803
1.586486
1.491045
1.40573
1.393355
1.393355
1.482795
1.617612
1.805868
2.025812
2.221193
2.384885
2.461575
2.484263
2.406636
2.105689
2.105689
1.937309
1.761054
1.601111
1.503233
1.416606
1.39973
1.478858
1.616862
1.797992
1.797992
2.000686
2.20788
2.381323
2.454638
2.480513
2.412824
2.268257
2.101752
2.101752
1.932621
1.759366
1.595111
1.492546
1.404043
1.379855
1.461232
1.587423
1.776242
1.776242
1.976498
2.174691
2.356197
2.439825
2.469638
2.39501
2.273319
2.112252
1.935809
1.935809
1.759554
1.595674
1.486545
1.404605
1.368792
1.438356
1.567548
1.753179
1.953997
1.953997
2.154253
2.336134
2.417136
2.4597
2.388635
2.254569
2.060688
1.926621
1.754304
1.754304
1.572986
1.455419
1.373104
1.343104
1.410418
1.509046
1.721865
1.925871
1.925871
2.118252
2.300883
2.391635
2.433449
2.365385
2.242568
2.093689
1.912558
1.734241
1.734241
1.576548
1.453919
1.372167
1.329228
1.362417
1.526484
1.691677
1.888183
2.087876
2.087876
2.284195
2.380198
2.434012
2.379822
2.265257
2.098564
1.936747
1.763679
1.607112
1.607112
1.498171
1.416231
1.363167
1.437231
1.554798
1.748866
1.949497
2.182754
2.384323
2.384323
2.480701
2.529452
2.486513
2.38451
2.237131
2.071376
1.897183
1.740428
1.740428
1.622112
1.536984
1.496296
1.553485
1.666176
1.859869
2.060126
2.277257
2.486701
2.486701
2.585891
2.604267
2.599767
2.506951
2.37401
2.21538
2.044375
1.896433
1.778492
1.778492
1.693927
1.654551
1.714927
1.836994
2.024687
2.222318
2.4492
2.618705
2.662769
2.662769
2.662394
2.662581
2.647393
2.582141
2.429699
2.258881
2.108877
1.981561
1.901871
1.901871
1.855932
1.902433
2.010811
2.178816
2.384698
2.591516
2.662769
2.662394
2.662394
2.662206
2.662394
2.662581
2.653581
2.576704
2.402698
2.244819
2.105314
2.012874
2.012874
1.949497
1.981748
2.086376
2.261882
2.452762
2.62508
2.662394
2.662394
2.662394
2.662394
2.662394
2.662581
2.662769
2.580641
2.422574
2.262257
2.107189
2.017187
1.943122
1.943122
1.969373
2.069876
2.220255
2.405886
2.598829
2.662769
2.662581
2.662394
2.662581
2.662581
2.662769
2.653956
2.564891
2.39426
2.223818
2.065376
1.973873
1.900558
1.915558
1.915558
2.001061
2.176379
2.352822
2.564328
2.649081
2.662581
2.662581
2.662394
2.662394
2.662769
2.641393
2.53264
2.363884
2.198692
2.04025
1.948372
1.866245
1.88162
1.88162
1.974998
2.13569
2.30032
2.522139
2.632768
2.662581
2.662394
2.662394
2.662581
2.662581
2.636706
2.514264
2.344009
2.167191
2.006311
1.936184
1.847494
1.851057
1.942934
1.942934
2.094814
2.268819
2.494014
2.633518
2.662769
2.662581
2.662581
2.662581
2.632768
2.632768
2.523077
2.356947
2.181254
2.023562
1.930934
1.846556
1.843744
1.932621
1.932621
2.079813
2.267882
2.488576
2.630143
2.662769
2.662581
2.662394
2.662956
2.636518
2.636518
2.536015
2.378135
2.204317
2.03875
1.950435
1.866619
1.857994
1.948559
2.083751
2.083751
2.269757
2.490638
2.62958
2.662581
2.662394
2.662581
2.662769
2.651706
2.557391
2.557391
2.38676
2.224568
2.064626
1.972748
1.878432
1.855744
1.954372
2.082438
2.267132
2.267132
2.485201
2.62958
2.662581
2.662394
2.662581
2.662581
2.654706
2.572016
2.408886
2.408886
2.240131
2.077376
1.973123
1.888558
1.862307
1.949309
2.077188
2.264319
2.264319
2.4672
2.623205
2.662394
2.662581
2.662581
2.662581
2.661081
2.571453
2.412074
2.412074
2.242568
2.068001
1.966373
1.874495
1.848431
1.909933
2.039875
2.229631
2.426324
2.426324
2.596017
2.662769
2.662581
2.662769
2.662769
2.656206
2.556453
2.385635
2.21688
2.21688
2.056
1.952122
1.857619
1.827431
1.901683
2.026562
2.219693
2.419199
2.597892
2.597892
2.662769
2.662581
2.662394
2.662394
2.662769
2.583454
2.440949
2.243693
2.243693
2.091064
1.975373
1.883495
1.847494
1.914246
2.031625
2.228318
2.413199
2.594141
2.594141
2.662581
2.662581
2.662581
2.662769
2.662769
2.599204
2.448825
2.272382
2.116565
2.116565
2.010062
1.898308
1.842619
1.913683
2.033875
2.216693
2.405886
2.583266
2.662956
2.662956
2.662581
2.662581
2.662581
2.662956
2.608205
2.460263
2.277445
2.115064
1.997873
1.997873
1.904683
1.855932
1.911246
2.026374
2.20188
2.396323
2.588142
2.662956
2.662394
2.662394
2.662581
2.662581
2.662769
2.601454
2.468888
2.295445
2.127627
1.996936
1.996936
1.905433
1.849181
1.897933
2.005561
2.189879
2.38301
2.576704
2.662206
2.662581
2.662581
2.662769
2.662581
2.662769
2.60558
2.466825
2.278007
2.12369
2.003499
1.913308
1.913308
1.848619
1.882933
1.980248
2.12294
2.30107
2.512202
2.643268
2.662956
2.662581
2.662581
2.662769
2.650768
2.557578
2.353009
2.120315
1.931497
1.72449
1.614987
1.504733
1.504733
1.505858
1.583486
1.778679
1.944059
2.146003
2.351322
2.484263
2.575016
2.656394
2.656394
2.662769
2.630705
2.454262
2.29882
2.165129
2.192879
2.150878
2.225318
2.225318
2.514639
2.662581
2.662394
2.662019
2.662019
2.661644
2.661456
2.661456
2.661456
2.661456
2.661831
2.662206
2.662581
2.646456
2.547078
2.346822
2.219693
2.110564
2.084314
2.084314
2.126503
2.250444
2.350009
2.564703
2.638581
2.662769
2.662206
2.662769
2.660894
2.660894
2.569391
2.405886
2.231693
2.074001
1.909933
1.81393
1.744741
1.761991
1.852931
1.852931
2.008936
2.173941
2.392761
2.565266
2.656206
2.662769
2.662581
2.631268
2.631268
2.545578
2.372323
2.214443
2.041187
1.88012
1.78693
1.71324
1.735928
1.830431
1.830431
1.973873
2.165879
2.383573
2.566016
2.660706
2.662769
2.662769
2.647393
2.567891
2.567891
2.39426
2.243131
2.071188
1.907121
1.821993
1.738741
1.750366
1.840181
1.986436
1.986436
2.180692
2.396886
2.577829
2.660894
2.662956
2.662581
2.657519
2.587016
2.434949
2.434949
2.263569
2.099689
1.924934
1.838306
1.756929
1.750554
1.836431
1.988123
2.181067
2.181067
2.38001
2.557391
2.662956
2.662769
2.662956
2.659019
2.584766
2.425574
2.425574
2.257194
2.082438
1.923434
1.827056
1.71099
1.734615
1.813368
1.95081
2.13494
2.13494
2.350384
2.54464
2.653581
2.662769
2.662769
2.653581
2.585704
2.418636
2.250631
2.250631
2.079626
1.920996
1.819555
1.73199
1.704802
1.78843
1.915746
2.100064
2.310821
2.310821
2.505451
2.602579
2.662956
2.662769
2.63408
2.558703
2.391635
2.212568
2.036687
2.036687
1.87262
1.771179
1.681176
1.6448
1.714552
1.844306
2.031625
2.224193
2.224193
2.421449
2.584954
2.63333
2.657331
2.602392
2.481638
2.323571
2.139253
1.953435
1.953435
1.784492
1.675364
1.579548
1.539422
1.616487
1.736303
1.914058
2.122002
2.315696
2.315696
2.484076
2.564891
2.608392
2.532452
2.384135
2.234131
2.057875
1.87337
1.71249
1.71249
1.604111
1.507921
1.467232
1.533984
1.662988
1.842244
2.045312
2.254569
2.439637
2.439637
2.523264
2.576891
2.490638
2.375135
2.21763
2.047563
1.870932
1.713052
1.713052
1.607674
1.518609
1.484108
1.554422
1.673676
1.863244
2.066125
2.280445
2.4492
2.4492
2.555703
2.61083
2.556266
2.4417
2.289445
1.951747
1.809805
1.698802
1.611987
1.580673
1.580673
1.644238
1.773054
1.976498
2.187442
2.388073
2.584954
2.630893
2.662581
2.658643
2.658643
2.588142
2.4612
2.310633
2.131565
1.98006
1.864744
1.781117
1.741928
1.741928
1.803243
1.917621
2.110752
2.296945
2.525515
2.646081
2.662769
2.662581
2.662769
2.662769
2.657144
2.569391
2.431012
2.255881
2.097064
1.975748
1.891745
1.80943
1.889495
1.889495
1.999936
2.165879
2.358072
2.562828
2.657706
2.662769
2.662581
2.662581
2.662581
2.662581
2.597704
2.459888
2.283257
2.127815
1.993748
1.904308
1.845994
1.887808
1.996561
1.996561
2.172817
2.354884
2.555703
2.651893
2.662581
2.662581
2.662769
2.662769
2.662769
2.598454
2.471138
2.29282
2.129503
1.990936
1.892683
1.827243
1.864369
1.957185
1.957185
2.126503
2.319633
2.52964
2.643643
2.662769
2.662769
2.662769
2.662956
2.592079
2.592079
2.456887
2.270882
2.116377
1.948934
1.864557
1.791992
1.823681
1.942184
2.100064
2.100064
2.266944
2.488951
2.635205
2.662769
2.662581
2.662769
2.662769
2.587766
2.43945
2.43945
2.254381
2.085251
1.938997
1.850494
1.791617
1.814493
1.899995
2.060875
2.060875
2.250256
2.471325
2.623393
2.662769
2.662769
2.662581
2.662956
2.584954
2.433824
2.433824
2.262444
2.108877
1.95456
1.87112
1.780367
1.79518
1.89062
2.047563
2.244444
2.244444
2.459137
2.617017
2.662769
2.662769
2.662581
2.662769
2.599954
2.456137
2.292258
2.292258
2.13269
1.965247
1.87487
1.796867
1.811493
1.903933
2.055438
2.242756
2.461575
2.461575
2.62208
2.662769
2.662581
2.662581
2.662769
2.617205
2.477138
2.302008
2.146003
2.146003
1.978373
1.886308
1.811493
1.81093
1.909371
2.055813
2.231318
2.450137
2.450137
2.618705
2.662956
2.662769
2.662581
2.662769
2.628268
2.489326
2.312696
2.14694
2.14694
1.999374
1.899245
1.810555
1.807555
1.888933
2.040812
2.21988
2.432512
2.602017
2.602017
2.662769
2.662581
2.662769
2.662956
2.63033
2.496639
2.326384
2.155191
2.009124
2.009124
1.884995
1.804743
1.800055
1.875057
2.003499
2.189317
2.407386
2.581016
2.662956
2.662956
2.662769
2.662581
2.662956
2.60783
2.469638
2.295445
2.130627
1.959997
1.959997
1.871495
1.785242
1.764616
1.849369
1.976685
2.161566
2.370447
2.564703
2.662769
2.662769
2.662769
2.662769
2.662581
2.61533
2.490451
2.321508
2.150503
1.992061
1.89737
1.89737
1.80493
1.781679
1.860244
1.977248
2.160441
2.366697
2.557766
2.662769
2.662581
2.662581
2.662769
2.662956
2.634268
2.516327
2.348134
2.173941
2.031625
1.927184
1.818431
1.818431
1.789929
1.866245
1.990186
2.174316
2.388448
2.569766
2.656018
2.662769
2.662581
2.662581
2.662769
2.632018
2.536765
2.354697
2.193442
2.04175
1.929809
1.824056
1.824056
1.794805
1.862307
1.988123
2.172817
2.359197
2.562641
2.661081
2.662581
2.662769
2.662769
2.662581
2.63408
2.541078
2.378323
2.200192
2.031812
1.919309
1.830056
1.79218
1.79218
1.853119
1.978748
2.156316
2.353197
2.557016
2.659394
2.662769
2.662769
2.662769
2.662769
2.648331
2.557016
2.38376
2.204505
2.04175
1.931121
1.834556
1.774367
1.828931
1.828931
1.954747
2.142628
2.328446
2.529265
2.649831
2.662769
2.662956
2.662956
2.662956
2.61908
2.474888
2.334634
2.14319
1.974248
1.834181
1.725428
1.653988
1.653238
1.653238
1.70724
1.847681
2.037437
2.209005
2.356197
2.437762
2.495514
2.463825
2.336321
2.336321
2.157816
2.042687
1.921746
1.941997
1.944059
1.856307
1.740241
1.823306
1.960935
1.960935
2.326571
2.595267
2.662394
2.661831
2.661269
2.661081
2.661269
2.661456
2.661644
2.661644
2.662019
2.662394
2.640455
2.565078
2.417136
2.314196
2.303695
2.367822
2.367822
2.479201
2.597892
2.662581
2.662394
2.662206
2.662581
2.662394
2.662769
2.589267
2.589267
2.428012
2.241631
2.0635
1.897745
1.787117
1.703864
1.752241
1.851057
2.015687
2.015687
2.215568
2.421449
2.585704
2.654706
2.662769
2.662769
2.612517
2.500014
2.327696
2.327696
2.149191
1.990373
1.840556
1.742866
1.679676
1.706115
1.814868
1.968248
2.159316
2.159316
2.37776
2.565266
2.63558
2.662956
2.662769
2.61458
2.519702
2.326759
2.155378
2.155378
2.010436
1.851994
1.761804
1.688676
1.709677
1.81618
1.979123
2.170754
2.170754
2.379447
2.560016
2.63483
2.662769
2.662956
2.626955
2.536015
2.367822
2.189504
2.189504
2.028062
1.874495
1.781304
1.700864
1.716615
1.806243
1.966185
2.158941
2.361072
2.361072
2.547453
2.62808
2.662956
2.662769
2.61683
2.520264
2.335571
2.168879
1.997311
1.997311
1.836994
1.743991
1.666926
1.671239
1.764616
1.917246
2.096689
2.307258
2.514452
2.514452
2.617955
2.662956
2.662956
2.601642
2.501139
2.316633
2.158566
1.975185
1.814305
1.814305
1.724115
1.644613
1.6538
1.740616
1.884995
2.066875
2.27782
2.480888
2.480888
2.611205
2.639893
2.654894
2.590579
2.467013
2.305945
2.127065
1.959435
1.790492
1.790492
1.693552
1.601111
1.598674
1.677989
1.821056
1.999561
2.215943
2.409636
2.549515
2.549515
2.614767
2.611767
2.54314
2.406636
2.226068
2.056563
1.882745
1.714927
1.610299
1.610299
1.513359
1.495546
1.567548
1.699739
1.881057
2.086751
2.271819
2.428199
2.511264
2.511264
2.519889
2.438137
2.297883
2.12294
1.941059
1.765929
1.599986
1.500046
1.500046
1.396543
1.365042
1.467232
1.597549
1.777929
1.983248
2.191754
2.332009
2.426887
2.426887
2.448262
2.37251
2.243506
2.081126
1.904121
1.729928
1.572048
1.48092
1.386417
1.386417
1.370854
1.455044
1.582361
1.768929
1.982873
2.179191
2.359947
2.446387
2.487638
2.487638
2.419949
2.290945
2.12444
1.963372
1.796117
1.64255
1.545047
1.461982
1.432356
1.432356
1.515046
1.650425
1.847494
2.057688
2.272944
2.47095
2.567328
2.613642
2.560578
2.560578
2.44245
2.293195
2.128565
1.970873
1.827056
1.72449
1.638425
1.614987
1.614987
1.685301
1.826118
2.012499
2.217443
2.432324
2.596579
2.656394
2.662769
2.648331
2.648331
2.594517
2.453137
2.288882
2.131565
1.960747
1.850494
1.774554
1.727678
1.78768
1.78768
1.909558
2.098001
2.294508
2.498139
2.635018
2.662956
2.662769
2.662769
2.621143
2.621143
2.508639
2.339884
2.161191
1.994498
1.87487
1.779617
1.734803
1.793305
1.902996
1.902996
2.095189
2.266944
2.482201
2.634643
2.662769
2.662769
2.662769
2.620205
2.620205
2.495326
2.332009
2.149941
1.995436
1.851431
1.756554
1.703677
1.755991
1.859682
1.859682
2.045312
2.236756
2.443574
2.593767
2.659581
2.662769
2.662956
2.593767
2.465138
2.465138
2.30032
2.117315
1.956622
1.829868
1.73649
1.678176
1.722053
1.826306
1.999186
1.999186
2.193067
2.399136
2.582704
2.629955
2.662956
2.648893
2.588142
2.443949
2.272382
2.272382
2.095939
1.938622
1.797992
1.704052
1.642925
1.674426
1.776054
1.943122
2.133253
2.133253
2.344384
2.541265
2.603704
2.662769
2.629205
2.556641
2.409636
2.232068
2.232068
2.064626
1.908808
1.674989
1.612737
1.650238
1.742491
1.907308
2.096127
2.307633
2.505639
2.505639
2.606704
2.605017
2.605392
2.549515
2.400073
2.232818
2.0485
1.89062
1.744366
1.744366
1.64705
1.573173
1.602237
1.701052
1.865119
2.051875
2.266569
2.463075
2.582141
2.582141
2.597142
2.606704
2.533765
2.391448
2.218193
2.041375
1.884058
1.735365
1.633175
1.633175
1.567173
1.585736
1.682301
1.842244
2.026374
2.244444
2.447325
2.567516
2.617392
2.617392
2.60858
2.527952
2.386573
2.210692
2.039125
1.87712
1.721678
1.634112
1.634112
1.555735
1.57186
1.668238
1.824431
2.012874
2.231318
2.435137
2.564516
2.623955
2.623955
2.608392
2.533952
2.403636
2.231693
2.055625
1.891183
1.738741
1.65005
1.569235
1.569235
1.575236
1.664863
1.809805
1.995811
2.214443
2.419011
2.555703
2.61083
2.609517
2.609517
2.54539
2.404761
2.235443
2.063875
1.901683
1.738366
1.640488
1.557797
1.55836
1.55836
1.642738
1.784305
1.967873
2.180879
2.37626
2.521577
2.596579
2.602954
2.501701
2.501701
2.363884
2.193442
2.021687
1.850869
1.687927
1.598486
1.511296
1.503421
1.503421
1.589674
1.732553
1.911246
2.126127
2.327134
2.483513
2.566953
2.585516
2.503201
2.503201
2.36726
2.196817
2.026562
1.856119
1.70349
1.611237
1.526484
1.514671
1.594924
1.594924
1.729553
1.915558
2.130815
2.331446
2.495326
2.577829
2.601642
2.527577
2.395761
2.395761
2.229443
2.068001
1.898495
1.73649
1.629237
1.546922
1.529109
1.602611
1.736678
1.736678
1.925871
2.132128
2.331634
2.496451
2.593017
2.612142
2.536202
2.411324
2.411324
2.248944
2.080751
1.907308
1.746616
1.643863
1.551985
1.528734
1.601861
1.730865
1.730865
1.918746
2.124815
2.320383
2.499639
2.588329
2.611017
2.544265
2.418824
2.250256
2.250256
2.084689
1.911246
1.747553
1.64405
1.54711
1.517109
1.593236
1.711927
1.88837
1.88837
2.097439
2.30332
2.484451
2.572016
2.606892
2.548953
2.423136
2.257569
2.087689
2.087689
1.915183
1.755616
1.6508
1.56286
1.533234
1.599049
1.72074
1.911808
2.112064
2.112064
2.312508
2.485389
2.563578
2.602017
2.551015
2.430262
2.279507
2.12594
2.12594
1.943309
1.774179
1.652113
1.529672
1.437606
1.447732
1.531734
1.705177
1.893245
1.893245
2.041
2.191754
2.260382
2.328446
2.275382
2.114127
1.970873
1.947434
1.986998
1.986998
1.898308
1.703115
1.54786
1.484858
1.630737
1.918559
2.271257
2.62808
2.662019
2.662019
2.661644
2.661644
2.661456
2.661644
2.661644
2.662019
2.662581
2.632955
2.482388
2.482388
2.312883
2.164566
2.072876
2.068001
2.136253
2.295445
2.444325
2.586454
2.653956
2.653956
2.662769
2.662956
2.650206
2.578766
2.409261
2.234506
2.039312
1.859307
1.859307
1.728053
1.6298
1.574673
1.623612
1.725615
1.902996
2.094626
2.305008
2.498326
2.498326
2.599767
2.596767
2.602017
2.501514
2.358072
2.175629
2.006686
1.851244
1.722803
1.722803
1.624737
1.567735
1.604861
1.710052
1.884807
2.076251
2.296195
2.498139
2.600892
2.600892
2.608017
2.609142
2.55064
2.410198
2.246694
2.076063
1.916871
1.771554
1.676864
1.676864
1.615737
1.652488
1.758241
1.925496
2.112814
2.330133
2.536202
2.604267
2.604267
2.662956
2.652831
2.589454
2.458387
2.296383
2.11619
1.955872
1.820118
1.726365
1.726365
1.657926
1.682676
1.781867
1.947997
2.134753
2.355259
2.555328
2.621705
2.662956
2.662956
2.662956
2.597892
2.482388
2.309133
2.135128
1.972373
1.820681
1.73199
1.656988
1.656988
1.682489
1.774179
1.930746
2.117502
2.333696
2.53039
2.608392
2.662956
2.661269
2.661269
2.601079
2.481451
2.31232
2.13719
1.97931
1.827618
1.733865
1.65305
1.65305
1.669738
1.765366
1.915183
2.095001
2.306883
2.506014
2.603142
2.661269
2.649268
2.649268
2.597142
2.465513
2.292258
2.124253
1.958685
1.802305
1.71174
1.630925
1.635425
1.635425
1.723178
1.866245
2.04775
2.257006
2.454825
2.591329
2.603704
2.60933
2.561516
2.561516
2.425386
2.240506
2.064626
1.890995
1.720927
1.6268
1.536984
1.529484
1.610487
1.610487
1.748303
1.931309
2.147503
2.337446
2.46645
2.546703
2.55064
2.456512
2.456512
2.312508
2.142066
1.97706
1.79893
1.633175
1.531172
1.446982
1.434981
1.524421
1.524421
1.664488
1.842806
2.059563
2.259256
2.413761
2.497389
2.515952
2.434949
2.303133
2.303133
2.141128
1.968623
1.805868
1.643488
1.548797
1.47117
1.463107
1.554422
1.696927
1.696927
1.883682
2.099689
2.303883
2.465138
2.55289
2.579891
2.507889
2.38076
2.213318
2.213318
2.053188
1.887245
1.745116
1.644988
1.569048
1.559673
1.644613
1.788992
1.978748
1.978748
2.20563
2.425199
2.598267
2.638581
2.662956
2.620205
2.567141
2.417699
2.417699
2.251944
2.085626
1.949309
1.864182
1.776429
1.761241
1.842619
1.985498
2.177504
2.177504
2.394073
2.580266
2.662956
2.662769
2.662581
2.662394
2.659019
2.586641
2.4462
2.4462
2.281007
2.113564
2.015499
1.915746
1.893245
1.968435
2.092939
2.278944
2.483513
2.483513
2.62883
2.662769
2.662394
2.662394
2.662581
2.662769
2.627705
2.491014
2.319446
2.319446
2.156503
2.045875
1.949497
1.912558
1.982498
2.092939
2.28082
2.470013
2.470013
2.624518
2.662769
2.662581
2.662394
2.662394
2.662581
2.624518
2.485201
2.310446
2.310446
2.146378
2.031625
1.926809
1.888933
1.950622
2.062751
2.245756
2.441512
2.611205
2.611205
2.662769
2.662581
2.662581
2.662394
2.662769
2.613267
2.482576
2.306883
2.144315
2.144315
2.023374
1.935809
1.880495
1.928684
2.048125
2.228693
2.409823
2.598267
2.662769
2.662769
2.662394
2.662581
2.662581
2.662769
2.60858
2.483701
2.31532
2.157254
2.030124
2.030124
1.944247
1.88687
1.939747
2.049813
2.229256
2.413011
2.595829
2.662581
2.662581
2.662394
2.662394
2.662581
2.662956
2.632768
2.512014
2.342134
2.184254
2.046438
2.046438
1.962435
1.909183
1.949122
2.0455
2.222318
2.416949
2.601454
2.662956
2.662581
2.662581
2.662394
2.662581
2.662581
2.644206
2.548015
2.373635
2.217818
2.083376
1.999936
1.999936
1.929809
1.963935
2.073813
2.248194
2.440574
2.609892
2.662769
2.662581
2.662206
2.662206
2.662206
2.662581
2.658831
2.581954
2.418261
2.252881
2.11619
2.028999
2.028999
1.963747
2.000874
2.101002
2.261882
2.447325
2.628455
2.662769
2.662581
2.662206
2.662206
2.662394
2.662394
2.662769
2.60708
2.4627
2.302758
2.148253
2.052063
1.987373
1.987373
2.011936
2.117502
2.285695
2.462325
2.632393
2.662769
2.662581
2.662394
2.662394
2.662394
2.662394
2.662769
2.595454
2.469826
2.30257
2.14169
2.054875
1.977998
2.001436
2.001436
2.098752
2.260007
2.437387
2.62058
2.662581
2.662581
2.662394
2.662206
2.662206
2.662394
2.662769
2.592267
2.437574
2.277445
2.124815
2.026374
1.958872
1.975373
1.975373
2.0635
2.214818
2.404761
2.592267
2.662581
2.662581
2.662394
2.662206
2.662581
2.662581
2.662769
2.62883
2.492514
2.326946
2.167566
2.072876
1.990936
2.085626
2.243131
2.420136
2.420136
2.607642
2.662581
2.662581
2.662394
2.662394
2.662394
2.662769
2.63258
2.63258
2.515764
2.357697
2.195317
2.098752
2.018874
2.017936
2.103814
2.251381
2.437199
2.437199
2.611017
2.662581
2.662394
2.662206
2.662019
2.662394
2.662581
2.626018
2.547265
2.547265
2.379635
2.22213
2.127065
2.030124
2.016812
2.115439
2.251194
2.426699
2.61233
2.61233
2.662581
2.662206
2.662206
2.662206
2.662206
2.662581
2.640455
2.557766
2.393698
2.393698
2.233756
2.136065
2.040812
2.024874
2.104189
2.239193
2.422949
2.610455
2.662581
2.662581
2.662394
2.662206
2.662206
2.662206
2.662581
2.651143
2.559828
2.389948
2.389948
2.235631
2.135128
2.04775
2.028437
2.104377
2.236568
2.405511
2.586829
2.662769
2.662769
2.662394
2.662394
2.662206
2.662206
2.662769
2.653018
2.565453
2.387698
2.180879
2.180879
2.035
1.886683
1.808493
1.873745
2.001061
2.133253
2.28832
2.475263
2.602767
2.602767
2.655269
2.662769
2.662581
2.662206
2.662581
2.630518
2.4462
2.226068
2.104377
2.104377
2.155191
2.271069
2.571266
2.662394
2.662019
2.661644
2.661456
2.661269
2.661269
2.661269
2.661456
2.661269
2.661644
2.661831
2.662019
2.662394
2.627517
2.52814
2.52814
2.389198
2.308008
2.323946
2.402698
2.54689
2.62883
2.662769
2.662394
2.662206
2.662206
2.662206
2.662394
2.662394
2.634455
2.51614
2.336321
2.164191
2.04475
1.949685
1.949685
1.908058
1.96206
2.070251
2.242381
2.433449
2.603704
2.662769
2.662394
2.662394
2.662394
2.662394
2.662769
2.621143
2.479201
2.299383
2.145066
2.023937
1.914808
1.914808
1.865682
1.920996
2.033687
2.212755
2.400823
2.580079
2.662769
2.662581
2.662581
2.662581
2.662581
2.662769
2.608767
2.478076
2.301633
2.14019
2.017374
1.919309
1.862494
1.862494
1.906933
2.017749
2.20188
2.394635
2.586079
2.662956
2.662394
2.662394
2.662581
2.662581
2.662394
2.615705
2.486701
2.303883
2.148441
2.021499
1.927934
1.867932
1.901683
1.901683
1.997686
2.173379
2.362572
2.569953
2.659769
2.662581
2.662581
2.662581
2.662769
2.662769
2.623205
2.496451
2.318133
2.152191
2.011186
1.916496
1.852182
1.88687
1.88687
1.989623
2.155753
2.339884
2.551578
2.651706
2.662769
2.662394
2.662581
2.662769
2.662769
2.618142
2.478263
2.299945
2.137003
1.996748
1.892683
1.824056
1.852369
1.947997
1.947997
2.108127
2.293945
2.501701
2.632205
2.662769
2.662581
2.662769
2.662956
2.581766
2.581766
2.434574
2.261694
2.102689
1.946122
1.848244
1.768179
1.777179
1.873182
2.031812
2.031812
2.206005
2.417136
2.582516
2.641956
2.662769
2.662769
2.625268
2.528327
2.350384
2.350384
2.167754
2.011936
1.850494
1.746616
1.663551
1.672364
1.753928
1.910308
1.910308
2.092376
2.304258
2.493639
2.607642
2.602017
2.611205
2.568641
2.429699
2.252131
2.252131
2.076626
1.912933
1.758054
1.668988
1.584986
1.593611
1.679864
1.835118
2.009874
2.009874
2.232068
2.433824
2.568828
2.609517
2.60708
2.553453
2.417324
2.253256
2.083564
2.083564
1.919121
1.761991
1.669926
1.597174
1.611987
1.700302
1.850869
2.034437
2.259256
2.259256
2.4567
2.595267
2.646643
2.662956
2.602767
2.503577
2.339134
2.189317
2.189317
2.035
1.88387
1.79818
1.71549
1.712677
1.826306
1.988873
2.171504
2.410198
2.410198
2.584016
2.662206
2.662769
2.662769
2.662769
2.63483
2.54164
2.385448
2.227943
2.227943
2.083189
2.008749
1.934497
1.925496
2.009686
2.154441
2.355447
2.559078
2.662769
2.662769
2.662206
2.662206
2.662394
2.662394
2.662769
2.639331
2.568641
2.406823
2.239568
2.239568
2.151441
2.0635
2.0545
2.144878
2.274444
2.443199
2.629768
2.662581
2.662394
2.662394
2.662394
2.662019
2.662394
2.662394
2.662956
2.60633
2.463825
2.302945
2.302945
2.188942
2.093502
2.081688
2.156503
2.283257
2.465888
2.611205
2.662769
2.662206
2.662206
2.662019
2.662206
2.662394
2.662394
2.662769
2.603142
2.46645
2.297132
2.189692
2.189692
2.091439
2.041187
2.12744
2.258881
2.446575
2.612705
2.662769
2.662394
2.662394
2.662394
2.662019
2.662394
2.662581
2.662956
2.578391
2.438324
2.287945
2.181629
2.083376
2.083376
2.041562
2.097814
2.203567
2.401761
2.583266
2.662769
2.662581
2.662206
2.662206
2.662206
2.662206
2.662394
2.662769
2.587766
2.455762
2.28307
2.176754
2.077564
2.077564
2.042875
2.098939
2.207505
2.38151
2.570703
2.662769
2.662394
2.662206
2.662019
2.662019
2.662394
2.662581
2.662956
2.609517
2.481638
2.311571
2.179754
2.081126
2.052813
2.052813
2.11169
2.228693
2.406074
2.564328
2.654331
2.662206
2.662206
2.662019
2.662206
2.662206
2.662394
2.662769
2.62208
2.508639
2.350009
2.230193
2.132315
2.059188
2.116002
2.116002
2.233193
2.416199
2.583266
2.662956
2.662394
2.662206
2.662019
2.662206
2.662206
2.662394
2.662769
2.62058
2.53039
2.373822
2.252694
2.160254
2.098752
2.138503
2.138503
2.230006
2.428387
2.592079
2.662769
2.662394
2.662206
2.662206
2.662206
2.662206
2.662206
2.662581
2.647768
2.554015
2.37851
2.254569
2.164941
2.106064
2.151253
2.244631
2.244631
2.396323
2.567703
2.662956
2.662394
2.662206
2.662019
2.662206
2.662019
2.662581
2.662581
2.650393
2.561141
2.400823
2.257006
2.143565
2.094251
2.135315
2.237318
2.237318
2.396698
2.558703
2.636893
2.662394
2.662206
2.662206
2.662019
2.662206
2.662581
2.662581
2.648331
2.556641
2.399698
2.262444
2.164754
2.074001
2.103814
2.220068
2.39201
2.39201
2.560391
2.662769
2.662394
2.662394
2.662019
2.662019
2.662206
2.662581
2.638581
2.638581
2.556266
2.430824
2.286445
2.200192
2.119377
2.152191
2.21688
2.392198
2.564141
2.564141
2.662581
2.662394
2.662206
2.662019
2.662019
2.662206
2.662394
2.662769
2.662769
2.593392
2.451825
2.30482
2.217443
2.136628
2.159128
2.240881
2.38226
2.54764
2.54764
2.662581
2.662581
2.662019
2.662206
2.662019
2.662206
2.662394
2.662769
2.615892
2.615892
2.487263
2.322633
2.20263
2.146003
2.160066
2.248381
2.401948
2.572204
2.645706
2.645706
2.662394
2.662206
2.662019
2.662019
2.662206
2.662394
2.662769
2.622643
2.497201
2.497201
2.347197
2.255319
2.147128
2.147503
2.247256
2.402323
2.569391
2.660706
2.660706
2.662581
2.662019
2.662019
2.662019
2.662019
2.662394
2.662581
2.591142
2.523639
2.523639
2.369885
2.272944
2.171316
2.148066
2.189317
2.354697
2.546515
2.655081
2.662394
2.662394
2.662019
2.662206
2.662019
2.662206
2.662581
2.638768
2.491388
2.269757
2.076626
2.076626
1.96131
1.810368
1.778492
1.831368
1.97781
2.103439
2.35676
2.590767
2.662394
2.662394
2.662019
2.661831
2.662206
2.662581
2.662956
2.656956
2.592642
2.608767
2.649643
2.649643
2.662769
2.662581
2.662394
2.662394
2.662206
2.661831
2.661644
2.661269
2.661269
2.661269
2.661269
2.661456
2.661456
2.662019
2.662206
2.662769
2.613642
2.518014
2.518014
2.363884
2.283257
2.333134
2.416761
2.640268
2.662769
2.662206
2.662206
2.662206
2.662206
2.662206
2.662394
2.655081
2.571453
2.450887
2.294508
2.193817
2.095376
2.056563
2.091814
2.091814
2.22738
2.423136
2.605017
2.662769
2.662394
2.662394
2.662019
2.662206
2.662394
2.662394
2.662769
2.582329
2.434949
2.266569
2.167004
2.074376
2.046438
2.105314
2.211442
2.211442
2.372885
2.571078
2.662956
2.662394
2.662206
2.662206
2.662394
2.662581
2.662581
2.662769
2.601454
2.479576
2.301633
2.164566
2.083189
2.052813
2.114127
2.228881
2.228881
2.404948
2.558516
2.643268
2.662394
2.662206
2.662206
2.662206
2.662394
2.662769
2.662769
2.61233
2.483138
2.329009
2.197567
2.095939
2.022812
2.101564
2.216318
2.403073
2.403073
2.577829
2.662769
2.662581
2.662206
2.662206
2.662206
2.662394
2.662769
2.576891
2.576891
2.47095
2.315883
2.193817
2.104189
2.041
2.067063
2.172629
2.37101
2.37101
2.554203
2.659769
2.662394
2.662206
2.662206
2.662206
2.662394
2.662769
2.616455
2.616455
2.467388
2.290945
2.180879
2.088251
2.025624
2.0575
2.160628
2.302383
2.518577
2.518577
2.642518
2.662581
2.662394
2.662019
2.662206
2.662581
2.662956
2.592454
2.44995
2.44995
2.269757
2.120877
2.018312
1.958122
1.998249
2.095376
2.266569
2.433449
2.598079
2.598079
2.662769
2.662394
2.662394
2.662581
2.662769
2.613642
2.528327
2.356947
2.356947
2.197567
2.044187
1.937872
1.837931
1.892495
1.97781
2.138128
2.326571
2.535265
2.535265
2.61983
2.662769
2.662581
2.662769
2.662956
2.599017
2.447325
2.266194
2.114877
2.114877
1.970123
1.867932
1.790867
1.802493
1.896433
2.081126
2.274632
2.490263
2.631643
2.631643
2.662769
2.662769
2.662581
2.662956
2.606142
2.463638
2.292258
2.114877
1.983811
1.983811
1.894558
1.820681
1.841869
1.938622
2.071188
2.277632
2.505451
2.634643
2.662956
2.662956
2.662394
2.662581
2.662956
2.639518
2.53939
2.381135
2.218193
2.069876
2.069876
1.981185
1.936747
1.956435
2.048125
2.211442
2.392385
2.578766
2.662769
2.662206
2.662206
2.662394
2.662206
2.662394
2.662581
2.629955
2.542203
2.396886
2.248944
2.160066
2.160066
2.055813
2.091064
2.188567
2.342322
2.532077
2.648893
2.662394
2.662394
2.662206
2.662206
2.662019
2.662206
2.662394
2.659581
2.593392
2.493826
2.339321
2.245006
2.14694
2.14694
2.13794
2.215005
2.368197
2.548765
2.658643
2.662394
2.662019
2.662019
2.662206
2.662206
2.662019
2.662394
2.662581
2.621143
2.477701
2.323008
2.232818
2.149378
2.149378
2.138503
2.209567
2.316821
2.510702
2.643268
2.662394
2.662206
2.662019
2.662019
2.662019
2.662206
2.662581
2.662769
2.596579
2.46645
2.28982
2.173566
2.101752
2.090876
2.090876
2.173754
2.301633
2.470388
2.602954
2.662581
2.662206
2.662206
2.662019
2.662206
2.662206
2.662581
2.662769
2.581954
2.445262
2.295445
2.187067
2.056
2.055813
2.143753
2.143753
2.275007
2.462138
2.621705
2.662581
2.662394
2.662206
2.662206
2.662394
2.662394
2.662581
2.641018
2.571641
2.444137
2.287195
2.190817
2.089189
2.05075
2.098001
2.098001
2.253256
2.443199
2.61458
2.662769
2.662206
2.662206
2.662581
2.662206
2.662394
2.662394
2.662769
2.597517
2.440762
2.293195
2.191567
2.098377
2.073813
2.13269
2.227193
2.227193
2.405136
2.594329
2.662769
2.662394
2.662206
2.662206
2.662394
2.662581
2.662769
2.662769
2.589829
2.455762
2.286257
2.168129
2.093876
2.065563
2.131377
2.235443
2.419199
2.419199
2.553265
2.662769
2.662394
2.662206
2.662019
2.662206
2.662394
2.662769
2.662769
2.617392
2.493076
2.338759
2.22138
2.096314
2.06425
2.138128
2.252319
2.443574
2.443574
2.595267
2.662769
2.662206
2.662206
2.662019
2.662206
2.662206
2.662581
2.60708
2.60708
2.523077
2.366885
2.246131
2.148816
2.095939
2.114502
2.261132
2.439075
2.60558
2.60558
2.662581
2.662019
2.662019
2.662019
2.662206
2.662206
2.662769
2.645331
2.533952
2.533952
2.38151
2.267882
2.175066
2.126127
2.170566
2.238256
2.413761
2.590767
2.590767
2.662769
2.662581
2.662206
2.662206
2.662206
2.662206
2.662581
2.639893
2.560766
2.560766
2.390136
2.228131
2.161941
2.098189
2.145253
2.251006
2.427074
2.541078
2.662769
2.662769
2.662394
2.662206
2.662019
2.662206
2.662394
2.662769
2.662769
2.570516
2.437199
2.437199
2.28907
2.173754
2.112064
2.166441
2.270319
2.451637
2.595454
2.662769
2.662394
2.662394
2.662206
2.662019
2.662019
2.662206
2.662581
2.645143
2.586266
2.458012
2.320196
2.320196
2.223255
2.151816
2.143753
2.272757
2.451825
2.60633
2.662769
2.662019
2.662019
2.662019
2.662019
2.662206
2.662206
2.662581
2.662956
2.590954
2.47395
2.331446
2.331446
2.237693
2.178629
2.183129
2.283257
2.4462
2.608017
2.662769
2.662206
2.662206
2.662206
2.662019
2.662019
2.662019
2.662206
2.662769
2.620018
2.515389
2.369135
2.273882
2.273882
2.194942
2.210317
2.306883
2.477888
2.601829
2.662581
2.662206
2.662019
2.661644
2.661644
2.662019
2.662019
2.662394
2.662581
2.63108
2.555703
2.404011
2.307445
2.307445
2.236006
2.241256
2.329946
2.490638
2.632018
2.662581
2.662206
2.662019
2.661831
2.661831
2.661831
2.662019
2.662206
2.662581
2.638956
2.568641
2.409448
2.309695
2.201317
2.201317
2.169816
2.209567
2.319446
2.43945
2.603892
2.662769
2.662581
2.662581
2.662581
2.662581
2.662769
2.62283
2.497201
2.371947
2.251381
2.260382
2.334634
2.306508
2.251944
2.251944
2.357322
2.488763
2.655081
2.662394
2.661831
2.661081
2.660894
2.660894
2.660894
2.660894
2.661081
2.661269
2.661644
2.662019
2.662206
2.662581
2.662394
2.662769
2.662769
2.662769
2.662581
2.662394
2.662019
2.661831
2.661644
2.661644
2.661644
2.661644
2.661644
2.662019
2.662206
2.662581
2.61308
2.498514
2.386385
2.276507
2.270507
2.347384
2.347384
2.478638
2.617955
2.662769
2.662206
2.662019
2.661644
2.661831
2.661831
2.662206
2.662206
2.662581
2.662956
2.594141
2.474325
2.353009
2.274257
2.224943
2.30182
2.450512
2.450512
2.605392
2.662769
2.662394
2.662019
2.661831
2.661831
2.661831
2.662019
2.662019
2.662581
2.662581
2.591516
2.511264
2.413011
2.318321
2.281569
2.352634
2.4642
2.4642
2.619455
2.662394
2.662394
2.662019
2.661831
2.661831
2.661831
2.662206
2.662581
2.662581
2.662581
2.626393
2.518014
2.413949
2.319633
2.294883
2.345696
2.4657
2.587391
2.587391
2.662769
2.662394
2.662019
2.661831
2.661831
2.661831
2.662019
2.662394
2.662581
2.662581
2.627705
2.52514
2.406636
2.300133
2.260944
2.327883
2.443387
2.601267
2.662769
2.662769
2.662394
2.662206
2.661831
2.661831
2.662019
2.662019
2.662206
2.662769
2.662769
2.63108
2.534515
2.403448
2.308008
2.257194
2.312696
2.425011
2.586829
2.662956
2.662956
2.662394
2.662019
2.661831
2.661831
2.662019
2.662019
2.662394
2.662581
2.617955
2.617955
2.506764
2.394823
2.287195
2.22288
2.278944
2.377573
2.559266
2.642331
2.662394
2.662019
2.662019
2.661831
2.662019
2.662206
2.662581
2.662769
2.594517
2.441324
2.318133
2.318133
2.215943
2.155753
2.194004
2.301258
2.46945
2.607642
2.662581
2.662394
2.662019
2.662019
2.662206
2.662206
2.662206
2.662581
2.63483
2.522702
2.351322
2.220818
2.108502
2.108502
2.04775
2.086751
2.189879
2.358072
2.539577
2.641956
2.662394
2.662394
2.662019
2.662019
2.662206
2.662581
2.662769
2.60633
2.46945
2.310071
2.174129
2.078501
2.015124
2.015124
2.053375
2.151441
2.318883
2.505451
2.63783
2.662581
2.662581
2.662206
2.662206
2.662206
2.662394
2.662956
2.620768
2.506951
2.342509
2.212193
2.121252
2.05375
2.05375
2.089939
2.194942
2.374385
2.562828
2.662769
2.662206
2.662206
2.662019
2.662019
2.662019
2.662206
2.662394
2.662769
2.617017
2.495889
2.360697
2.273694
2.205442
2.235818
2.235818
2.342509
2.509764
2.625268
2.662394
2.662206
2.662019
2.661831
2.662019
2.662019
2.662019
2.662394
2.662394
2.662956
2.595267
2.486326
2.378323
2.311571
2.339509
2.423887
2.423887
2.573141
2.659581
2.662394
2.662206
2.661831
2.661644
2.661831
2.661831
2.661831
2.662019
2.662394
2.662769
2.61158
2.52889
2.400636
2.324508
2.344197
2.431762
2.431762
2.570141
2.658456
2.662581
2.662019
2.661831
2.661831
2.661644
2.661831
2.662206
2.662206
2.662394
2.662769
2.611955
2.496076
2.394823
2.30632
2.306133
2.386573
2.538452
2.538452
2.632205
2.662581
2.662019
2.662019
2.662019
2.662019
2.662019
2.662206
2.662394
2.662394
2.662581
2.590579
2.453512
2.361447
2.270319
2.273507
2.358822
2.489138
2.609704
2.609704
2.662581
2.662394
2.662019
2.661831
2.661831
2.662019
2.662019
2.662394
2.662394
2.656206
2.587954
2.44545
2.344572
2.263007
2.235068
2.305195
2.453137
2.606517
2.606517
2.662769
2.662206
2.662019
2.661831
2.661831
2.661831
2.662206
2.662581
2.652081
2.652081
2.582141
2.432512
2.324883
2.232443
2.218755
2.29282
2.434949
2.594517
2.662581
2.662581
2.662206
2.662206
2.662206
2.661831
2.662019
2.662394
2.662394
2.656018
2.583266
2.583266
2.436074
2.336509
2.244631
2.227568
2.290757
2.420324
2.583266
2.662769
2.662769
2.662394
2.662019
2.662019
2.661831
2.662019
2.662206
2.662394
2.662769
2.592642
2.592642
2.450887
2.340446
2.255506
2.231693
2.294883
2.415449
2.574266
2.662019
2.662394
2.662394
2.662019
2.661831
2.661831
2.662019
2.662206
2.662581
2.662769
2.597704
2.467388
2.467388
2.372885
2.262632
2.220443
2.292258
2.405699
2.579329
2.662769
2.662394
2.662019
2.662019
2.661831
2.662019
2.662206
2.662206
2.662206
2.662769
2.599204
2.473388
2.358822
2.358822
2.260007
2.228881
2.28382
2.397261
2.566766
2.655643
2.662394
2.662206
2.662206
2.661831
2.661644
2.661831
2.662019
2.662394
2.662581
2.604642
2.481826
2.366885
2.366885
2.273507
2.22738
2.281757
2.388073
2.570141
2.648143
2.662581
2.662206
2.662019
2.662019
2.662019
2.662019
2.662019
2.662206
2.662769
2.601454
2.469075
2.350009
2.243318
2.243318
2.184442
2.245944
2.350947
2.528702
2.639518
2.662581
2.662019
2.661831
2.661831
2.661831
2.661831
2.662206
2.662394
2.662769
2.601829
2.495326
2.365197
2.255694
2.255694
2.209567
2.252319
2.353197
2.52589
2.63183
2.662581
2.662206
2.662019
2.661831
2.661831
2.662019
2.662206
2.662581
2.662581
2.619267
2.515952
2.379635
2.282507
2.218193
2.218193
2.260194
2.359197
2.53939
2.638206
2.662394
2.662206
2.662019
2.661831
2.662019
2.662019
2.662206
2.662394
2.662769
2.625268
2.53864
2.401948
2.305383
2.232443
2.259631
2.259631
2.358072
2.521952
2.641018
2.662581
2.662206
2.662019
2.661831
2.661831
2.662019
2.662019
2.662206
2.662769
2.63558
2.54389
2.401011
2.308571
2.237318
2.262257
2.262257
2.354322
2.523639
2.62883
2.662394
2.662394
2.662019
2.661831
2.662019
2.662206
2.662206
2.662206
2.662581
2.63408
2.552515
2.411136
2.313071
2.236943
2.261882
2.350947
2.350947
2.510702
2.634643
2.662581
2.662019
2.662019
2.661831
2.662019
2.662019
2.662394
2.662394
2.662581
2.630893
2.532452
2.37851
2.272569
2.167191
2.164191
2.20113
2.315133
2.315133
2.441137
2.61608
2.662581
2.662394
2.662394
2.662581
2.662581
2.635955
2.635955
2.496264
2.371947
2.243881
2.245194
2.30557
2.274069
2.210505
2.288695
2.458762
2.458762
2.648518
2.662394
2.661644
2.661081
2.660706
2.660706
2.660894
2.661081
2.661269
2.661269
2.661456
2.662019
2.662206
2.662394
2.662769
2.662581
2.662581
2.662581
2.662206
2.662206
2.662019
2.661644
2.661456
2.661456
2.661644
2.662019
2.662019
2.662394
2.660894
2.660894
2.583266
2.416949
2.29132
2.193067
2.178066
2.260944
2.39501
2.563953
2.653018
2.653018
2.662581
2.662206
2.662019
2.662019
2.662019
2.662394
2.662769
2.62658
2.62658
2.504889
2.325071
2.227005
2.133815
2.12144
2.200005
2.338571
2.519514
2.642143
2.642143
2.662581
2.662206
2.662019
2.662019
2.662206
2.662206
2.662769
2.60933
2.497951
2.497951
2.334821
2.240318
2.136815
2.113752
2.19813
2.338759
2.516327
2.645143
2.662581
2.662581
2.662206
2.662206
2.661831
2.662206
2.662394
2.662769
2.632205
2.504889
2.343822
2.343822
2.243318
2.14694
2.125377
2.194004
2.319071
2.493639
2.632393
2.662581
2.662581
2.662206
2.662206
2.662019
2.662206
2.662394
2.662581
2.62508
2.492139
2.330884
2.330884
2.205442
2.116002
2.078876
2.152941
2.273507
2.454825
2.609517
2.662769
2.662206
2.662206
2.662206
2.662019
2.662206
2.662581
2.662769
2.611767
2.474138
2.306508
2.193817
2.193817
2.086001
2.050375
2.12069
2.242568
2.410949
2.591142
2.662769
2.662581
2.662206
2.662206
2.662206
2.662394
2.662581
2.657331
2.573891
2.435699
2.276882
2.155378
2.053938
2.053938
2.009311
2.0575
2.173566
2.351322
2.542765
2.644393
2.662394
2.662394
2.662394
2.662206
2.662394
2.662769
2.625268
2.537327
2.354322
2.183692
2.062751
1.955497
1.955497
1.900558
1.954185
2.053938
2.22513
2.417511
2.591142
2.662769
2.662581
2.662581
2.662581
2.662769
2.662956
2.572579
2.412449
2.233006
2.067813
1.943684
1.836994
1.779429
1.779429
1.825181
1.926996
2.105877
2.289257
2.490263
2.62958
2.662769
2.662581
2.662956
2.662956
2.616267
2.520639
2.365197
2.189692
2.034437
1.899433
1.797805
1.734803
1.787867
1.787867
1.89737
2.079626
2.271069
2.47395
2.597329
2.662769
2.662769
2.662769
2.662769
2.635205
2.551578
2.393136
2.221568
2.073063
1.953435
1.843931
1.800242
1.841494
1.841494
1.951747
2.138503
2.333509
2.55439
2.654331
2.662581
2.662581
2.662581
2.662581
2.662581
2.633893
2.554203
2.380198
2.21838
2.112064
2.03125
1.965998
2.019249
2.115439
2.115439
2.251194
2.489326
2.640831
2.662394
2.662206
2.662206
2.662394
2.662394
2.662581
2.662581
2.642331
2.558516
2.398011
2.231318
2.147503
2.101752
2.140565
2.243693
2.409448
2.409448
2.55064
2.627705
2.662581
2.662206
2.662206
2.662206
2.662769
2.662769
2.583266
2.583266
2.445075
2.303695
2.188004
2.076813
2.147691
2.247069
2.409448
2.563016
2.662769
2.662769
2.662581
2.662019
2.662206
2.662019
2.662394
2.662394
2.629955
2.580641
2.444887
2.444887
2.293008
2.196067
2.109814
2.097064
2.176941
2.357884
2.545203
2.646831
2.662581
2.662581
2.662394
2.662206
2.662206
2.662206
2.662769
2.656581
2.558703
2.397448
2.246319
2.246319
2.143565
2.060313
2.070438
2.148253
2.290945
2.473575
2.637455
2.662769
2.662394
2.662394
2.662206
2.662019
2.662581
2.662581
2.635205
2.529452
2.36876
2.209755
2.209755
2.105689
2.018687
2.022624
2.104752
2.253256
2.425949
2.607455
2.662581
2.662394
2.662394
2.662394
2.662206
2.662394
2.662581
2.627517
2.500014
2.348884
2.181067
2.081688
2.081688
1.985873
1.992061
2.075126
2.213505
2.389385
2.573516
2.662581
2.662394
2.662206
2.662206
2.662206
2.662394
2.662769
2.605017
2.498514
2.335946
2.175254
2.076438
1.983436
1.983436
1.96881
2.047375
2.194754
2.373635
2.567703
2.659206
2.662394
2.662394
2.662394
2.662206
2.662581
2.662956
2.626768
2.512764
2.342134
2.181254
2.080939
1.991498
1.991498
1.983811
2.049438
2.120127
2.335384
2.566016
2.662956
2.662581
2.662206
2.662394
2.662394
2.662581
2.662769
2.63483
2.542015
2.38601
2.183879
2.065376
2.002749
1.993561
1.993561
2.067063
2.19813
2.349447
2.517827
2.652831
2.662581
2.662206
2.662206
2.662394
2.662394
2.662769
2.644018
2.564703
2.396323
2.243318
2.127627
1.97256
1.977623
2.073813
2.073813
2.200567
2.38676
2.568266
2.61908
2.662581
2.662206
2.662206
2.662394
2.662394
2.662394
2.615892
2.547828
2.413761
2.254569
2.155941
2.061625
1.993373
2.013249
2.013249
2.186879
2.37476
2.557766
2.659206
2.662394
2.662394
2.662206
2.662206
2.662581
2.662581
2.662769
2.582704
2.397636
2.262069
2.168316
2.074751
2.03875
2.087501
2.154628
2.154628
2.345321
2.557016
2.662956
2.662394
2.662394
2.662019
2.662206
2.662581
2.660706
2.660706
2.568266
2.433824
2.248756
2.109627
2.031437
1.996186
2.0635
2.165504
2.165504
2.329759
2.483701
2.645143
2.662581
2.662206
2.662394
2.662394
2.662769
2.662956
2.662956
2.602954
2.468325
2.308758
2.188754
2.049625
2.012874
2.094251
2.201692
2.386385
2.386385
2.555515
2.640643
2.662581
2.662206
2.662019
2.662206
2.662394
2.652456
2.598642
2.598642
2.509389
2.358447
2.240693
2.130815
2.059375
2.062751
2.214255
2.400448
2.562266
2.562266
2.662769
2.662206
2.662206
2.662206
2.662206
2.662206
2.662581
2.64308
2.64308
2.518577
2.375135
2.266007
2.169441
2.114689
2.149191
2.212005
2.37926
2.579329
2.579329
2.662769
2.662394
2.662019
2.662206
2.662206
2.662206
2.662581
2.654706
2.567516
2.567516
2.422199
2.246506
2.175254
2.127252
2.171316
2.252881
2.419199
2.53789
2.662769
2.662769
2.662394
2.662394
2.662206
2.662019
2.662206
2.662581
2.662769
2.592079
2.466263
2.466263
2.308383
2.180317
2.114127
2.174691
2.274257
2.451637
2.597142
2.662769
2.662206
2.662206
2.662019
2.661831
2.662019
2.662206
2.662394
2.651331
2.593204
2.483138
2.483138
2.344572
2.222693
2.133253
2.076063
2.162316
2.28832
2.446575
2.591704
2.662769
2.662769
2.662581
2.662581
2.662581
2.662769
2.635955
2.499264
2.303695
2.292633
2.391448
2.391448
2.390698
2.235818
2.174879
2.190067
2.379635
2.645893
2.662206
2.661456
2.660894
2.660894
2.660706
2.660894
2.660894
2.661081
2.661456
2.661644
2.661831
2.662394
2.662581
2.662581
2.662956
2.660331
2.662769
2.662581
2.662581
2.662019
2.662019
2.661644
2.661644
2.661644
2.661831
2.662019
2.662394
2.662581
2.639893
2.535077
2.365572
2.230193
2.230193
2.122002
2.151441
2.231506
2.384885
2.557391
2.658831
2.662581
2.662206
2.662019
2.662019
2.661831
2.662019
2.662394
2.643831
2.601079
2.47245
2.321508
2.211255
2.128752
2.128752
2.069876
2.180504
2.343071
2.518014
2.638956
2.662581
2.662394
2.662206
2.662019
2.662019
2.662206
2.662394
2.662581
2.600142
2.480888
2.331821
2.233943
2.149003
2.136815
2.136815
2.201505
2.329946
2.521014
2.649831
2.662394
2.662206
2.662019
2.662019
2.662019
2.662019
2.662394
2.662581
2.63258
2.508639
2.340634
2.241818
2.14619
2.130627
2.130627
2.203567
2.336509
2.500952
2.629205
2.662581
2.662206
2.662019
2.662206
2.662019
2.662019
2.662394
2.662769
2.625643
2.501326
2.337634
2.232818
2.135128
2.118065
2.188754
2.188754
2.313633
2.484263
2.629393
2.662581
2.662019
2.662019
2.662206
2.662394
2.662394
2.662394
2.662769
2.625643
2.501326
2.337634
2.221005
2.119377
2.091439
2.161566
2.280632
2.280632
2.446387
2.61458
2.662581
2.662206
2.662206
2.662206
2.662206
2.662394
2.662394
2.662769
2.600329
2.458762
2.293383
2.191379
2.080564
2.038
2.096689
2.205255
2.205255
2.38601
2.571828
2.662769
2.662394
2.662206
2.662206
2.662206
2.662581
2.643268
2.643268
2.559453
2.374197
2.202817
2.092939
1.990748
1.935997
1.987936
2.086001
2.255506
2.255506
2.448637
2.612517
2.662769
2.662581
2.662581
2.662394
2.662956
2.583829
2.43945
2.43945
2.259631
2.092752
1.97781
1.861744
1.815243
1.869244
1.975935
2.149941
2.149941
2.341947
2.537702
2.656956
2.662769
2.662769
2.662581
2.639518
2.55214
2.400073
2.400073
2.228693
2.071376
1.95831
1.854994
1.799117
1.850494
1.97181
2.146565
2.339884
2.339884
2.54614
2.657144
2.662769
2.662394
2.662581
2.662769
2.599767
2.461388
2.286445
2.286445
2.136628
2.018312
1.922496
1.870745
1.922496
2.024312
2.217068
2.416574
2.607267
2.607267
2.662581
2.662581
2.662206
2.662394
2.662769
2.662956
2.592829
2.4612
2.311945
2.311945
2.192692
2.103064
2.04775
2.092189
2.20113
2.376822
2.557766
2.662769
2.662769
2.662394
2.662019
2.662019
2.662019
2.662394
2.662581
2.662956
2.600329
2.480513
2.480513
2.347947
2.245006
2.190067
2.233568
2.334071
2.511639
2.63483
2.662581
2.662394
2.662394
2.662019
2.661831
2.662019
2.662206
2.662581
2.662581
2.634268
2.551578
2.422574
2.422574
2.310258
2.212005
2.21613
2.344759
2.517077
2.633893
2.662581
2.662206
2.662206
2.662206
2.661831
2.661831
2.662019
2.662394
2.662581
2.590767
2.558328
2.417699
2.417699
2.317196
2.241068
2.254381
2.27632
2.463638
2.629955
2.662581
2.662206
2.662019
2.662019
2.662019
2.662019
2.662019
2.662394
2.662581
2.627892
2.54389
2.334821
2.274819
2.274819
2.203005
2.22513
2.318696
2.460825
2.575954
2.628268
2.662394
2.662019
2.661831
2.661831
2.662019
2.662206
2.662581
2.662769
2.633705
2.558703
2.407573
2.285695
2.152753
2.152753
2.164754
2.296945
2.456325
2.602017
2.662581
2.662394
2.662206
2.662019
2.662019
2.662019
2.662019
2.662206
2.662581
2.577079
2.53864
2.390886
2.302945
2.209192
2.209192
2.223443
2.275757
2.339134
2.582141
2.662581
2.662206
2.662019
2.662019
2.662019
2.662019
2.662206
2.662394
2.642331
2.571641
2.407011
2.244069
2.190067
2.208067
2.293945
2.441324
2.441324
2.594329
2.662769
2.662581
2.662019
2.662019
2.661831
2.661831
2.662019
2.662019
2.662769
2.652456
2.579516
2.426699
2.333134
2.234131
2.192879
2.194379
2.424262
2.424262
2.584954
2.662769
2.662206
2.662206
2.662206
2.661831
2.662206
2.662206
2.662394
2.662394
2.656394
2.578016
2.373447
2.321696
2.240693
2.227193
2.298258
2.428012
2.524202
2.524202
2.630143
2.662394
2.662206
2.662019
2.662206
2.661831
2.662394
2.662581
2.662956
2.662956
2.588329
2.4492
2.345696
2.21088
2.12894
2.278944
2.415074
2.567891
2.567891
2.655081
2.662394
2.662206
2.661831
2.661831
2.662019
2.662206
2.662394
2.632955
2.632955
2.538077
2.435324
2.345509
2.246131
2.22213
2.279695
2.316633
2.518202
2.646268
2.646268
2.662394
2.662206
2.661831
2.661831
2.662019
2.662206
2.662581
2.658831
2.565078
2.565078
2.424824
2.266007
2.153128
2.164191
2.226818
2.344947
2.522702
2.636518
2.662769
2.662769
2.662394
2.662019
2.661831
2.662019
2.662206
2.662394
2.630143
2.584579
2.584579
2.435887
2.323383
2.237693
2.181817
2.180129
2.30107
2.54164
2.646831
2.662581
2.662581
2.662206
2.662019
2.662019
2.662019
2.662019
2.662581
2.662769
2.600142
2.4447
2.4447
2.303695
2.250256
2.20638
2.257756
2.383198
2.550265
2.587954
2.660706
2.662019
2.662019
2.662019
2.661831
2.662019
2.662394
2.662581
2.662769
2.614767
2.495326
2.37926
2.37926
2.264882
2.158753
2.221943
2.357884
2.53039
2.638956
2.662581
2.662206
2.661831
2.661831
2.662019
2.662019
2.662206
2.662394
2.662769
2.602017
2.481451
2.365947
2.365947
2.254381
2.197192
2.239568
2.338384
2.492701
2.633518
2.662769
2.662206
2.662019
2.662019
2.661831
2.662019
2.662019
2.662581
2.662769
2.61383
2.492701
2.355822
2.244069
2.244069
2.185754
2.228693
2.328821
2.491763
2.621518
2.662581
2.662019
2.661831
2.661831
2.661831
2.662019
2.662206
2.662206
2.662581
2.613642
2.495326
2.372323
2.261694
2.200942
2.200942
2.227755
2.302383
2.445262
2.559828
2.650206
2.662394
2.662394
2.662206
2.662581
2.662581
2.662581
2.611392
2.493264
2.294508
2.176379
2.05375
2.106252
2.260569
2.260569
2.392198
2.401386
2.495889
2.584766
2.654894
2.662019
2.661644
2.661269
2.661081
2.661081
2.660894
2.661081
2.661269
2.661644
2.662019
2.662394
2.662394
2.662769
2.662769
2.662769
2.662769
2.662581
2.662206
2.662019
2.661831
2.661644
2.661644
2.661644
2.661831
2.661831
2.662394
2.662394
2.63258
2.527202
2.353197
2.228881
2.12519
2.118815
2.19888
2.19888
2.351509
2.524577
2.644768
2.662769
2.662394
2.662206
2.662206
2.662206
2.662206
2.662581
2.647768
2.560016
2.404948
2.246131
2.151441
2.059938
2.072688
2.147691
2.147691
2.295258
2.476763
2.636893
2.662581
2.662206
2.662206
2.662394
2.662394
2.662581
2.662581
2.637455
2.551015
2.395761
2.242943
2.14094
2.044375
2.05
2.12669
2.279695
2.279695
2.4642
2.629205
2.662581
2.662581
2.662206
2.662206
2.662394
2.662206
2.647581
2.647581
2.561141
2.411324
2.249506
2.145253
2.058438
2.056
2.134378
2.267694
2.267694
2.441887
2.620955
2.662394
2.662394
2.662206
2.662206
2.662394
2.662581
2.653018
2.653018
2.560391
2.405324
2.240506
2.138878
2.047937
2.042687
2.113564
2.248756
2.420887
2.420887
2.583454
2.662769
2.662581
2.662019
2.662206
2.662394
2.662581
2.636706
2.559266
2.559266
2.398761
2.232068
2.13119
2.019249
2.007061
2.083564
2.21838
2.39126
2.579141
2.579141
2.662769
2.662581
2.662206
2.662394
2.662394
2.662769
2.635205
2.542203
2.380198
2.380198
2.207505
2.106439
2.003686
1.977435
2.034812
2.166629
2.338384
2.543703
2.543703
2.644581
2.662581
2.662394
2.662206
2.662581
2.662769
2.624892
2.506014
2.320008
2.320008
2.151628
2.057688
1.952684
1.925121
1.979123
2.071188
2.228131
2.46195
2.623205
2.623205
2.662769
2.662394
2.662581
2.662581
2.661081
2.579516
2.429137
2.246694
2.071563
2.071563
1.922871
1.840369
1.805305
1.872995
1.980998
2.150878
2.30932
2.532452
2.656581
2.656581
2.662769
2.662769
2.662769
2.588892
2.524202
2.372885
2.201692
2.044375
2.044375
1.925871
1.800242
1.746053
1.833806
1.95606
2.14544
2.344384
2.533015
2.609892
2.609892
2.662769
2.662769
2.662769
2.642143
2.572391
2.406823
2.248944
2.092564
1.992998
1.992998
1.890433
1.851057
1.890808
2.015499
2.21088
2.420324
2.600704
2.662581
2.662581
2.662581
2.662394
2.662581
2.662394
2.644018
2.576516
2.419199
2.267132
2.158753
2.066125
2.066125
2.027687
2.088251
2.195692
2.37926
2.560203
2.662769
2.662206
2.662206
2.662019
2.662019
2.662019
2.662581
2.662394
2.662956
2.583266
2.454262
2.337634
2.242193
2.242193
2.191004
2.239006
2.345321
2.52964
2.63033
2.662394
2.662019
2.662019
2.662019
2.662019
2.662019
2.662019
2.662206
2.662581
2.62808
2.544453
2.418074
2.317196
2.249319
2.249319
2.292633
2.384885
2.557016
2.646831
2.662394
2.662206
2.662019
2.661831
2.662019
2.662019
2.661831
2.662394
2.662581
2.63183
2.55064
2.415449
2.306508
2.233006
2.257381
2.257381
2.351509
2.518952
2.63258
2.662394
2.662206
2.662019
2.661831
2.661831
2.662019
2.662019
2.662394
2.662769
2.61983
2.514827
2.377948
2.278007
2.200567
2.221005
2.221005
2.30407
2.46645
2.622455
2.662581
2.662206
2.662019
2.661831
2.662019
2.662206
2.662206
2.662394
2.662581
2.620955
2.523077
2.342322
2.257381
2.194004
2.214818
2.300508
2.300508
2.458575
2.576704
2.656394
2.662206
2.662019
2.662019
2.661644
2.662019
2.662394
2.662394
2.662769
2.628643
2.533765
2.378135
2.268819
2.161566
2.207692
2.294508
2.462513
2.462513
2.602017
2.662769
2.662206
2.662019
2.661831
2.661831
2.662019
2.662206
2.662581
2.662581
2.635768
2.561141
2.409448
2.314196
2.221755
2.19888
2.28607
2.466075
2.466075
2.62208
2.662581
2.662394
2.662019
2.662019
2.661831
2.662019
2.662206
2.662394
2.662394
2.626205
2.560016
2.437012
2.343634
2.265819
2.261319
2.328071
2.432887
2.614392
2.614392
2.662581
2.662206
2.662019
2.661831
2.661831
2.662019
2.662019
2.662394
2.662956
2.662956
2.592454
2.439637
2.346822
2.268444
2.266194
2.348322
2.483326
2.582891
2.661831
2.661831
2.662019
2.662019
2.661831
2.661831
2.662019
2.662394
2.662394
2.662769
2.662769
2.601642
2.472263
2.37251
2.237506
2.259444
2.333134
2.489326
2.61008
2.662581
2.662581
2.662394
2.662019
2.662019
2.662019
2.661831
2.662019
2.662581
2.662956
2.603892
2.603892
2.486701
2.392761
2.287382
2.235818
2.294132
2.459512
2.612892
2.662769
2.662019
2.662019
2.662019
2.662019
2.662019
2.661831
2.662206
2.662581
2.655269
2.577079
2.492326
2.492326
2.38976
2.296945
2.257944
2.321321
2.39501
2.576704
2.662769
2.662394
2.662019
2.662019
2.661831
2.661831
2.662019
2.662206
2.662394
2.662769
2.599954
2.344384
2.259444
2.259444
2.229631
2.29957
2.410198
2.557578
2.628455
2.662581
2.662206
2.662019
2.661831
2.661831
2.662019
2.662206
2.662394
2.662769
2.609142
2.492514
2.388448
2.256444
2.234693
2.234693
2.310446
2.444325
2.591329
2.662581
2.662206
2.662206
2.662019
2.661831
2.661831
2.661831
2.662206
2.662394
2.662581
2.62583
2.527577
2.429699
2.314383
2.248381
2.284382
2.284382
2.436637
2.583266
2.662581
2.662206
2.662206
2.662019
2.661831
2.661831
2.662206
2.662206
2.662394
2.662581
2.579516
2.527202
2.421824
2.325821
2.268632
2.314008
2.314008
2.378323
2.560391
2.661081
2.662206
2.662019
2.661831
2.661831
2.661831
2.662019
2.662019
2.662206
2.662769
2.632955
2.518202
2.39201
2.311945
2.265069
2.321883
2.409636
2.409636
2.560766
2.618517
2.662206
2.662206
2.661831
2.661831
2.662019
2.662019
2.662394
2.662394
2.662581
2.636518
2.548578
2.431199
2.29957
2.252131
2.311008
2.415074
2.581579
2.581579
2.662769
2.662394
2.662019
2.662019
2.661831
2.661644
2.662019
2.662394
2.662394
2.662581
2.62958
2.523077
2.38751
2.237131
2.102502
2.080189
2.13869
2.294508
2.294508
2.4582
2.591516
2.659206
2.662769
2.662394
2.662581
2.662956
2.631455
2.62433
2.62433
2.61458
2.574266
2.426512
2.251194
2.177691
2.278944
2.508077
2.641956
2.662019
2.662019
2.661456
2.661081
2.661081
2.660894
2.661081
2.661081
2.661269
2.661644
2.661831
2.661831
2.662206
2.662394
2.662769
2.609892
2.623018
2.621518
2.662769
2.662394
2.662206
2.662206
2.662019
2.661831
2.661644
2.661831
2.662019
2.662394
2.662394
2.629205
2.629205
2.500201
2.345696
2.236756
2.154066
2.172629
2.264507
2.421449
2.576516
2.662769
2.662769
2.662206
2.662206
2.662019
2.662206
2.662206
2.662206
2.662769
2.583079
2.45895
2.45895
2.302945
2.199255
2.113002
2.12594
2.216318
2.373635
2.545578
2.655081
2.662394
2.662394
2.662206
2.662019
2.662019
2.662206
2.662394
2.662769
2.589829
2.47095
2.324321
2.324321
2.221005
2.13419
2.149753
2.220068
2.38001
2.560766
2.659956
2.662581
2.662581
2.662206
2.662019
2.662206
2.662019
2.662394
2.662769
2.623955
2.501326
2.340822
2.340822
2.242943
2.158941
2.163628
2.234131
2.387135
2.55214
2.660894
2.662206
2.662206
2.662206
2.662206
2.662206
2.662019
2.662206
2.662581
2.629018
2.512389
2.37476
2.28457
2.28457
2.178629
2.174879
2.244631
2.401386
2.558891
2.660519
2.662394
2.662206
2.662019
2.662019
2.662019
2.662019
2.662394
2.662769
2.636143
2.561703
2.401198
2.302195
2.207317
2.207317
2.194567
2.267132
2.410198
2.570891
2.662956
2.662394
2.662206
2.662019
2.662019
2.661831
2.662206
2.662019
2.662769
2.647206
2.572954
2.409823
2.312133
2.200005
2.200005
2.189129
2.255319
2.380385
2.552703
2.656206
2.662581
2.662206
2.662019
2.662019
2.662019
2.662206
2.662206
2.662581
2.628268
2.53114
2.358259
2.247444
2.13719
2.120877
2.120877
2.180129
2.305945
2.462513
2.630518
2.662581
2.662394
2.662206
2.662019
2.662206
2.662206
2.662581
2.662769
2.582516
2.437762
2.262632
2.157816
2.05675
2.022249
2.072688
2.072688
2.194004
2.365197
2.566203
2.656956
2.662394
2.662206
2.662206
2.662206
2.662206
2.662769
2.655643
2.572579
2.427262
2.242568
2.142066
2.044
2.006686
2.051687
2.051687
2.194754
2.36426
2.557953
2.662769
2.662394
2.662206
2.662206
2.662394
2.662581
2.662581
2.662769
2.595642
2.476951
2.334446
2.215943
2.124627
2.085439
2.147878
2.271444
2.271444
2.456887
2.624143
2.662769
2.662206
2.662019
2.662019
2.662019
2.662206
2.662394
2.662394
2.662769
2.622455
2.506764
2.404386
2.30482
2.257944
2.326571
2.450137
2.596954
2.596954
2.662769
2.662394
2.661831
2.661831
2.661644
2.661831
2.662019
2.662206
2.662206
2.662206
2.662769
2.618705
2.547828
2.443199
2.398386
2.44845
2.556828
2.656769
2.656769
2.662581
2.662019
2.661831
2.661831
2.661456
2.661456
2.661644
2.662019
2.662394
2.662394
2.662581
2.639331
2.602017
2.507139
2.450512
2.492139
2.584391
2.660894
2.662581
2.662581
2.662019
2.661831
2.661456
2.661456
2.661644
2.661831
2.661831
2.662206
2.662581
2.662581
2.643643
2.593579
2.499076
2.427449
2.454262
2.565453
2.655456
2.662581
2.662581
2.662206
2.661831
2.661831
2.661831
2.661831
2.661644
2.662019
2.662206
2.662581
2.662581
2.630143
2.566766
2.46195
2.38901
2.415636
2.500576
2.627517
2.662581
2.662394
2.662394
2.662019
2.661831
2.661644
2.661644
2.662206
2.662019
2.662394
2.662581
2.634643
2.634643
2.55514
2.449762
2.379447
2.410949
2.509014
2.624705
2.662581
2.662206
2.661831
2.661831
2.661644
2.661644
2.661644
2.662019
2.662019
2.662394
2.662581
2.642331
2.586079
2.586079
2.478451
2.399136
2.420511
2.507326
2.615892
2.662769
2.662206
2.662019
2.662019
2.661644
2.661831
2.661644
2.661831
2.661831
2.662394
2.662769
2.648143
2.600704
2.600704
2.506389
2.426699
2.450137
2.530952
2.638393
2.662769
2.662206
2.661831
2.661644
2.661644
2.661644
2.661644
2.661644
2.661831
2.662019
2.662394
2.662581
2.598829
2.545015
2.545015
2.452762
2.46795
2.530952
2.639143
2.662769
2.662206
2.661831
2.661644
2.661644
2.661644
2.661456
2.661644
2.661831
2.662206
2.662394
2.662769
2.598454
2.537515
2.537515
2.440387
2.443012
2.521952
2.634268
2.662956
2.662394
2.662019
2.661831
2.661644
2.661644
2.661456
2.661831
2.662019
2.662206
2.662394
2.662769
2.60633
2.533577
2.460263
2.460263
2.449387
2.532452
2.631455
2.662769
2.662206
2.662019
2.661831
2.661644
2.661644
2.661644
2.661644
2.661831
2.662019
2.662206
2.662769
2.607642
2.583829
2.478263
2.469075
2.469075
2.54014
2.636518
2.662581
2.662206
2.661644
2.661831
2.661456
2.661644
2.661644
2.661644
2.661831
2.662019
2.662394
2.662394
2.638768
2.589454
2.503389
2.492326
2.492326
2.567516
2.636331
2.662581
2.662206
2.661831
2.661644
2.661644
2.661644
2.661644
2.661644
2.661831
2.661831
2.662206
2.662581
2.637455
2.586829
2.495701
2.494576
2.554765
2.554765
2.63333
2.662769
2.662206
2.662019
2.661456
2.661644
2.661644
2.661456
2.661831
2.661831
2.662019
2.662394
2.662581
2.62133
2.576704
2.475826
2.443012
2.489888
2.599392
2.599392
2.662581
2.662394
2.662019
2.661831
2.661644
2.661456
2.661644
2.662019
2.662019
2.662206
2.662206
2.662769
2.619455
2.579329
2.478826
2.435887
2.500201
2.599204
2.599204
2.662769
2.662206
2.662019
2.661644
2.661644
2.661644
2.661831
2.661831
2.662019
2.662019
2.662206
2.662394
2.634455
2.599017
2.517639
2.470013
2.527577
2.61458
2.662769
2.662769
2.662394
2.662019
2.661644
2.661644
2.661269
2.661456
2.661831
2.662206
2.662394
2.662394
2.662394
2.645706
2.603517
2.53339
2.480138
2.530015
2.607642
2.662956
2.662956
2.662394
2.662019
2.661831
2.661644
2.661644
2.661644
2.661831
2.661831
2.662206
2.662206
2.662581
2.657706
2.604455
2.471325
2.519327
2.602017
2.662956
2.662394
2.662019
2.661644
2.661644
2.661644
2.661644
2.661456
2.661831
2.662019
2.662206
2.662394
2.649831
2.589642
2.589642
2.521765
2.4612
2.500576
2.586829
2.662769
2.662394
2.662206
2.661831
2.661644
2.661644
2.661644
2.661644
2.661644
2.661831
2.662206
2.662581
2.631268
2.572766
2.45145
2.45145
2.373447
2.375323
2.400448
2.529265
2.622267
2.662769
2.662206
2.662206
2.662206
2.662206
2.662019
2.662394
2.662581
2.624518
2.544265
2.415824
2.443387
2.482013
2.482013
2.451825
2.411699
2.511077
2.63108
2.662206
2.661644
2.661456
2.660894
2.660706
2.660706
2.660519
2.660519
2.660706
2.661081
2.661269
2.661644
2.662019
2.662019
2.662394
2.662394
2.662394
2.662206
2.662019
2.662019
2.661831
2.661644
2.661456
2.661269
2.661456
2.661456
2.661456
2.662019
2.662019
2.662394
2.652643
2.600142
2.499451
2.407386
2.416386
2.416386
2.493264
2.612517
2.662769
2.662394
2.662206
2.661831
2.661644
2.661644
2.662019
2.662019
2.662019
2.662394
2.662769
2.639518
2.563391
2.453137
2.353947
2.373073
2.373073
2.454825
2.591704
2.662769
2.662394
2.662019
2.661831
2.661831
2.661644
2.661831
2.661831
2.662019
2.662394
2.662581
2.638393
2.565641
2.466825
2.37401
2.379635
2.461763
2.461763
2.585329
2.662769
2.662206
2.662019
2.662019
2.661831
2.661644
2.661831
2.662019
2.662019
2.662206
2.662394
2.643831
2.570703
2.468138
2.374948
2.375885
2.452575
2.583829
2.583829
2.660331
2.662394
2.662206
2.661831
2.661644
2.661644
2.661644
2.662206
2.662394
2.662394
2.662581
2.649081
2.566391
2.466638
2.376635
2.364635
2.438699
2.570516
2.570516
2.652269
2.662206
2.662206
2.661831
2.661644
2.661831
2.661831
2.662019
2.662206
2.662206
2.662581
2.646268
2.562828
2.459325
2.35976
2.344197
2.417699
2.556641
2.635393
2.635393
2.662581
2.662206
2.661831
2.661831
2.661831
2.661831
2.662206
2.662206
2.662769
2.662769
2.629955
2.53939
2.427074
2.324134
2.30182
2.358822
2.497764
2.625455
2.662581
2.662581
2.662206
2.661831
2.661831
2.661831
2.661831
2.662206
2.662206
2.662769
2.662769
2.607267
2.464575
2.355634
2.240881
2.221568
2.267132
2.397636
2.561891
2.658643
2.658643
2.662394
2.662206
2.662019
2.662019
2.661831
2.662394
2.662769
2.62958
2.530765
2.530765
2.361259
2.247819
2.124065
2.080376
2.153691
2.281757
2.437574
2.607642
2.662769
2.662769
2.662394
2.662019
2.662019
2.662394
2.662394
2.662581
2.604642
2.4717
2.311945
2.311945
2.206755
2.078688
2.054313
2.112627
2.231881
2.407386
2.585516
2.662769
2.662394
2.662394
2.662206
2.662019
2.662206
2.662394
2.662769
2.624518
2.510702
2.36201
2.36201
2.247631
2.145066
2.113189
2.178254
2.287757
2.470763
2.627705
2.662581
2.662019
2.662019
2.662206
2.662019
2.662019
2.662206
2.662581
2.662581
2.62733
2.527765
2.425386
2.425386
2.321508
2.28082
2.341384
2.454638
2.602767
2.662581
2.662206
2.662019
2.661831
2.661831
2.661644
2.661644
2.661831
2.662206
2.662581
2.662769
2.627892
2.572391
2.468138
2.468138
2.415636
2.457075
2.562641
2.657706
2.662581
2.662206
2.662019
2.661644
2.661644
2.661644
2.661644
2.661644
2.661831
2.662019
2.662394
2.648893
2.599767
2.529827
2.529827
2.45595
2.492889
2.588142
2.659394
2.662581
2.662206
2.661831
2.661644
2.661456
2.661456
2.661644
2.661644
2.662019
2.662206
2.662581
2.646831
2.595829
2.511077
2.442075
2.442075
2.466263
2.561516
2.653018
2.662394
2.662394
2.661831
2.661831
2.661456
2.661831
2.661831
2.661831
2.662019
2.662394
2.662581
2.638018
2.584954
2.478451
2.416199
2.428387
2.428387
2.518577
2.632768
2.662581
2.662394
2.662019
2.661831
2.661831
2.662019
2.662019
2.661831
2.662019
2.662394
2.662581
2.638018
2.574079
2.459888
2.37851
2.403073
2.403073
2.488763
2.614205
2.662581
2.662394
2.662019
2.662019
2.661644
2.661831
2.661644
2.661644
2.662206
2.662206
2.662769
2.630705
2.550265
2.44995
2.365572
2.385073
2.47395
2.47395
2.600892
2.662769
2.662394
2.662019
2.661831
2.661644
2.661831
2.661644
2.662019
2.662019
2.662206
2.662769
2.629205
2.544078
2.433074
2.350384
2.36501
2.44545
2.44545
2.583829
2.659394
2.662394
2.662019
2.662019
2.661456
2.661644
2.661831
2.662019
2.662019
2.662394
2.662581
2.63333
2.551578
2.444137
2.356947
2.360884
2.437199
2.581579
2.581579
2.654894
2.662394
2.662206
2.661831
2.661644
2.661831
2.661831
2.662019
2.662581
2.662581
2.662769
2.636706
2.550078
2.440762
2.348509
2.345509
2.420136
2.562266
2.649456
2.649456
2.662394
2.662019
2.661831
2.662019
2.661644
2.662019
2.662019
2.662394
2.662394
2.662581
2.637643
2.55364
2.443199
2.346071
2.333509
2.406823
2.553078
2.634268
2.634268
2.662581
2.662019
2.661831
2.661644
2.662019
2.661831
2.662019
2.662394
2.662769
2.662769
2.626018
2.539015
2.431949
2.328071
2.307258
2.375323
2.509577
2.62733
2.662581
2.662581
2.662206
2.662019
2.661644
2.661831
2.661831
2.662019
2.662206
2.662769
2.623955
2.623955
2.512952
2.404386
2.297508
2.279132
2.347197
2.481076
2.605955
2.662769
2.662394
2.662394
2.662019
2.661831
2.662019
2.662019
2.662019
2.662394
2.662769
2.617017
2.617017
2.490076
2.380198
2.266194
2.237693
2.299383
2.428949
2.584579
2.662769
2.662206
2.662206
2.662206
2.662019
2.662019
2.662019
2.662019
2.662206
2.662769
2.604079
2.469263
2.469263
2.356572
2.246131
2.226443
2.29432
2.415074
2.573704
2.662769
2.662394
2.662206
2.662206
2.661644
2.661831
2.661831
2.662206
2.662394
2.662581
2.62508
2.531327
2.418824
2.418824
2.303508
2.268819
2.327696
2.445262
2.594704
2.662769
2.662206
2.662019
2.662019
2.661831
2.662019
2.662019
2.662206
2.662394
2.662581
2.650956
2.567516
2.467388
2.467388
2.35676
2.314383
2.37401
2.491576
2.624143
2.662581
2.662206
2.661831
2.661831
2.661831
2.661644
2.661831
2.661831
2.662394
2.662394
2.662769
2.577641
2.488576
2.374385
2.374385
2.320571
2.368572
2.4687
2.611205
2.662769
2.662206
2.662019
2.661831
2.661831
2.661831
2.661831
2.662019
2.662206
2.662581
2.659019
2.570141
2.465513
2.353947
2.353947
2.300695
2.338196
2.439075
2.587391
2.662769
2.662581
2.662019
2.662019
2.661831
2.661831
2.661831
2.661831
2.662206
2.662394
2.662769
2.571078
2.486701
2.366322
2.303883
2.303883
2.342696
2.441512
2.590017
2.662581
2.662206
2.662019
2.661831
2.661644
2.661831
2.661831
2.661831
2.662019
2.662394
2.659581
2.565266
2.462138
2.344572
2.274069
2.314008
2.314008
2.404761
2.564703
2.644581
2.662394
2.662206
2.662019
2.661831
2.661831
2.662019
2.662019
2.662394
2.662581
2.639518
2.54689
2.419199
2.311945
2.221755
2.232068
2.232068
2.311196
2.439825
2.559266
2.637268
2.662769
2.662394
2.662394
2.662394
2.662769
2.662769
2.62208
2.506202
2.353384
2.159503
2.035937
2.062938
2.207692
2.312696
2.420699
2.574454
2.574454
2.655269
2.662019
2.661644
2.661081
2.661081
2.661081
2.661269
2.661456
2.661644
2.661644
2.662019
2.662394
2.662769
2.635955
2.588704
2.63033
2.662956
2.662394
2.662394
2.662394
2.662206
2.661831
2.661831
2.661831
2.662019
2.662206
2.662769
2.570703
2.570703
2.383198
2.20788
2.084314
1.980435
1.969185
2.046625
2.194754
2.362947
2.566203
2.566203
2.657331
2.662581
2.662394
2.662394
2.662394
2.659019
2.574641
2.416011
2.254756
2.254756
2.098939
1.989623
1.903933
1.903371
1.992623
2.144315
2.325258
2.541078
2.645893
2.645893
2.662394
2.662394
2.662394
2.662581
2.662956
2.593017
2.465888
2.312133
2.158566
2.158566
2.060313
1.960185
1.957935
2.035187
2.184067
2.361259
2.566203
2.652643
2.662581
2.662581
2.662394
2.662206
2.662581
2.662769
2.60933
2.46945
2.312696
2.156878
2.156878
2.044375
1.940497
1.932621
2.007624
2.14319
2.314008
2.531702
2.637268
2.662581
2.662581
2.662394
2.662394
2.662581
2.662956
2.590017
2.432137
2.264132
2.099501
1.997123
1.997123
1.889308
1.874307
1.938434
2.087501
2.261319
2.4732
2.624705
2.662769
2.662581
2.662581
2.662394
2.662769
2.662769
2.590954
2.44245
2.28982
2.128752
2.022249
1.931871
1.931871
1.921371
1.985873
2.125377
2.29732
2.530765
2.638581
2.662581
2.662394
2.662394
2.662206
2.662581
2.662581
2.651893
2.566953
2.413949
2.260756
2.160441
2.0665
2.0665
2.048312
2.117502
2.253631
2.425574
2.611955
2.662769
2.662581
2.662206
2.662019
2.662019
2.662206
2.662394
2.662769
2.626393
2.503764
2.334446
2.224943
2.117502
2.072688
2.072688
2.13044
2.248381
2.415074
2.592267
2.662769
2.662394
2.662206
2.662206
2.662206
2.662206
2.662394
2.658268
2.574641
2.410761
2.230943
2.109627
2.003311
1.947247
1.947247
1.997311
2.104377
2.270319
2.468138
2.627517
2.662769
2.662394
2.662394
2.662581
2.662581
2.662769
2.595454
2.446762
2.28082
2.110377
1.989248
1.88162
1.837181
1.888558
1.888558
1.999186
2.165691
2.364447
2.557391
2.661456
2.662769
2.662581
2.662769
2.656769
2.656769
2.574266
2.418824
2.251194
2.094251
1.97781
1.867932
1.825743
1.87262
1.977998
1.977998
2.153316
2.357697
2.560953
2.662769
2.662956
2.662581
2.662394
2.662956
2.617955
2.617955
2.503014
2.340259
2.179004
2.0665
1.966935
1.922309
1.97856
2.089376
2.089376
2.269944
2.476013
2.634268
2.662581
2.662394
2.662394
2.662206
2.662581
2.662769
2.662769
2.61308
2.476201
2.310821
2.203942
2.100439
2.043062
2.082251
2.176004
2.352447
2.352447
2.539765
2.650956
2.662394
2.662394
2.662394
2.662206
2.662394
2.662769
2.641956
2.641956
2.545578
2.389385
2.258881
2.157254
2.089189
2.12219
2.218568
2.38376
2.55214
2.55214
2.659019
2.662394
2.662206
2.662206
2.662394
2.662206
2.662769
2.63108
2.63108
1.873932
1.437981
1.590799
1.40723
1.402168
1.681176
1.860807
1.931309
2.153128
2.153128
2.179004
2.37401
2.583079
2.662769
2.641768
2.566016
2.343446
2.282882
2.167941
2.167941
2.014749
1.883307
1.811305
1.747741
1.761991
1.768366
2.001998
2.204317
2.415261
2.415261
2.587391
2.658831
2.662769
2.662769
2.594704
2.503951
2.398386
2.255881
2.11169
2.11169
1.95606
1.782617
1.647425
1.686051
1.811493
1.989811
2.170754
2.377573
2.377573
2.53939
2.618517
2.662769
2.602767
2.593579
2.475451
2.281757
2.136815
1.990936
1.990936
1.862119
1.747553
1.663551
1.677051
1.751303
1.905058
2.102127
2.310071
2.504139
2.504139
2.603142
2.608767
2.602579
2.594141
2.472263
2.285132
2.157629
2.016249
1.869057
1.869057
1.757304
1.676864
1.687927
1.765554
1.926059
2.104752
2.30257
2.516702
2.599392
2.599392
2.662956
2.659581
2.563953
2.501701
2.349447
2.190067
2.038375
1.879745
1.774742
1.774742
1.689614
1.704427
1.770242
1.916496
2.089376
2.295258
2.489138
2.598267
2.598267
2.659581
2.655269
2.607642
2.497764
2.335196
2.178442
2.019062
1.856869
1.742491
1.742491
1.650425
1.648175
1.708927
1.846744
2.032187
2.252694
2.448825
2.581579
2.584579
2.584579
2.599204
2.573141
2.46195
2.310446
2.13644
1.977435
1.81768
1.71399
1.625487
1.625487
1.609737
1.679489
1.805305
1.984373
2.199442
2.398198
2.542578
2.61308
2.614205
2.614205
2.552703
2.435324
2.267132
2.097064
1.933934
1.760866
1.650425
1.541109
1.541109
1.529859
1.600361
1.732365
1.895308
2.109439
2.308571
2.457825
2.548953
2.567703
2.567703
2.496076
2.36726
2.197755
2.030687
1.863807
1.702927
1.603736
1.505671
1.482608
1.482608
1.54411
1.662051
1.833806
2.043625
2.238443
2.393886
2.476388
2.502826
2.422949
2.422949
2.295258
2.131565
1.97106
1.78768
1.608987
1.500796
1.389605
1.368042
1.413418
1.413418
1.529109
1.690177
1.888745
2.080189
2.254381
2.343822
2.379072
2.302758
2.302758
2.182192
2.029749
1.867182
1.713802
1.558735
1.490108
1.396168
1.356416
1.412106
1.412106
1.535672
1.704052
1.903558
2.103064
2.268444
2.367635
2.410573
2.356572
2.246319
2.246319
2.086564
1.925309
1.751303
1.587048
1.47642
1.375167
1.335416
1.397855
1.524609
1.524609
1.695239
1.899433
2.106439
2.292633
2.389948
2.438324
2.388823
2.28532
2.128565
2.128565
1.975748
1.811493
1.643113
1.566048
1.48617
1.432544
1.48017
1.595299
1.595299
1.770054
1.979123
2.187254
2.372135
2.395198
2.473763
2.4492
2.344947
2.196817
2.196817
2.036687
1.87637
1.712302
1.594736
1.483545
1.429544
1.46892
1.576361
1.748678
1.748678
1.937684
2.138878
2.333884
2.431574
2.492889
2.446387
2.328259
2.184442
2.017561
2.017561
1.840744
1.677989
