253851.0
1.254788
1.254788
1.264726
1.387355
1.628675
1.855182
2.032375
2.138315
2.150503
2.089564
2.089564
1.943122
1.71549
1.452044
1.276914
1.255351
1.254038
1.254038
1.253851
1.254413
1.254413
1.259851
1.339166
1.570173
1.799117
1.976873
2.094251
2.118065
2.0665
1.921934
1.921934
1.700864
1.444732
1.272976
1.255163
1.254038
1.254038
1.253851
1.254226
1.258351
1.258351
1.32154
1.549922
1.780742
1.966373
2.083564
2.104564
2.058813
1.922496
1.70649
1.70649
1.449794
1.275601
1.255163
1.254038
1.253851
1.254038
1.254038
1.257788
1.257788
1.315728
1.538672
1.767991
1.950997
2.072876
2.112814
2.062376
1.926434
1.71624
1.71624
1.46667
1.280289
1.255726
1.254038
1.253851
1.253851
1.253851
1.257038
1.303727
1.303727
1.512609
1.748678
1.941809
2.063875
2.105127
2.063875
1.933746
1.72599
1.472295
1.472295
1.283289
1.255726
1.253851
1.253851
1.253851
1.254226
1.257038
1.300165
1.506984
1.506984
1.744928
1.933184
2.059938
2.101939
2.069126
1.942747
1.736303
1.491233
1.290414
1.290414
1.256663
1.254226
1.254226
1.254038
1.254038
1.256851
1.298102
1.504358
1.504358
1.737615
1.926434
2.058063
2.105877
2.074188
1.951372
1.741553
1.495733
1.288164
1.288164
1.256101
1.254038
1.254226
1.253851
1.253851
1.255726
1.285539
1.47717
1.713615
1.713615
1.910683
2.045875
2.096127
2.063313
1.943872
1.742491
1.492733
1.287227
1.255913
1.255913
1.254038
1.254038
1.253851
1.253851
1.255163
1.272414
1.431231
1.661301
1.855182
1.855182
1.994123
2.039125
2.010624
1.896808
1.688489
1.431981
1.269601
1.254788
1.254788
1.253851
1.254038
1.254038
1.254038
1.254226
1.259476
1.340291
1.563048
1.898308
1.952497
1.952497
1.923434
1.816368
1.622487
1.380605
1.261539
1.254413
1.254038
1.254038
1.254038
1.254038
1.254226
1.254038
1.256476
1.302602
1.499296
1.700302
1.844306
1.908996
1.891558
1.891558
1.787117
1.594924
1.359792
1.260038
1.254226
1.253851
1.254226
1.254038
1.254038
1.254038
1.253851
1.255726
1.295852
1.496671
1.709302
1.860619
1.929059
1.921559
1.826681
1.826681
1.651925
1.423543
1.269039
1.254976
1.253851
1.254038
1.254038
1.254038
1.254038
1.254226
1.261539
1.37423
1.620049
1.842056
2.001436
2.082626
2.082063
1.988311
1.988311
1.811493
1.583486
1.345541
1.260226
1.254413
1.253851
1.253851
1.254038
1.255726
1.255726
1.285539
1.477733
1.722803
1.945184
2.098752
2.176004
2.168316
2.076438
1.898308
1.898308
1.667488
1.412481
1.270914
1.255538
1.254226
1.254038
1.254226
1.257226
1.299977
1.299977
1.503983
1.749053
1.963372
2.12144
2.20263
2.198317
2.110189
1.936747
1.70349
1.70349
1.442482
1.276726
1.255726
1.254038
1.254038
1.254038
1.256851
1.297352
1.297352
1.503046
1.754866
1.969935
2.12669
2.212568
2.215568
2.134003
1.960935
1.725428
1.725428
1.465357
1.285727
1.256663
1.254413
1.254038
1.254226
1.257038
1.298852
1.505108
1.505108
1.740616
1.956435
2.125565
2.20938
2.21688
2.132315
1.95756
1.727678
1.468732
1.468732
1.285539
1.256288
1.254038
1.254038
1.254226
1.256663
1.286477
1.473232
1.718115
1.718115
1.938059
2.101752
2.199067
2.202817
2.123315
1.955872
1.735928
1.469107
1.469107
1.284789
1.256663
1.254413
1.253851
1.254038
1.256101
1.280102
1.451669
1.696927
1.696927
1.913683
2.084314
2.183129
2.199255
2.131002
1.960935
1.732365
1.474358
1.284977
1.284977
1.256101
1.254226
1.254038
1.254038
1.255913
1.277101
1.438919
1.684364
1.908246
1.908246
2.077751
2.180129
2.195879
2.128565
1.970123
1.743428
1.48317
1.286477
1.256288
1.256288
1.254226
1.253851
1.254038
1.255351
1.272226
1.423918
1.671239
1.896808
1.896808
2.065376
2.167379
2.186129
2.121065
1.961872
1.741741
1.486545
1.290977
1.256101
1.256101
1.254413
1.253851
1.254038
1.255351
1.270726
1.411543
1.651738
1.879557
2.068376
2.068376
2.179941
2.203192
2.13794
1.989998
1.774742
1.517859
1.304102
1.257788
1.254413
1.254413
1.254038
1.254226
1.255163
1.269414
1.410981
1.654738
1.880307
2.0575
2.174504
2.174504
2.201317
2.147878
2.004624
1.788992
1.53811
1.313478
1.258351
1.254413
1.253851
1.253851
1.254226
1.255538
1.267539
1.394293
1.636175
1.866619
2.054125
2.170566
2.170566
2.200942
2.153691
2.012311
1.79893
1.543735
1.31629
1.258351
1.254601
1.254038
1.254038
1.254038
1.254976
1.265851
1.395418
1.635425
1.863432
2.051687
2.169629
2.20638
2.20638
2.157066
2.025624
1.819931
1.568485
1.333728
1.259663
1.254601
1.253851
1.254038
1.254038
1.254976
1.265851
1.38923
1.62905
1.864182
2.045312
2.170754
2.21163
2.164754
2.164754
2.0365
1.821993
1.575236
1.335791
1.259851
1.254226
1.254038
1.254038
1.254038
1.254788
1.263414
1.368229
1.606549
1.835868
2.031625
2.156691
2.193254
2.156878
2.156878
2.039312
1.832306
1.601861
1.339728
1.261539
1.254788
1.254038
1.254038
1.254788
1.254788
1.264539
1.372542
1.606549
1.837556
2.040625
2.170004
2.21538
2.176941
2.0605
2.0605
1.859869
1.615174
1.362979
1.262289
1.254976
1.254038
1.254038
1.254976
1.261913
1.261913
1.356979
1.596424
1.832681
2.032187
2.164566
2.21013
2.179566
2.063875
2.063875
1.864182
1.617237
1.366542
1.263976
1.254788
1.254038
1.254226
1.254601
1.262664
1.262664
1.355104
1.597174
1.829681
2.029749
2.166441
2.217443
2.193067
2.082814
1.878807
1.878807
1.633362
1.378167
1.263976
1.254976
1.254038
1.253851
1.254413
1.261913
1.347791
1.347791
1.575048
1.811305
2.020937
2.151066
2.219693
2.199442
2.086189
1.89662
1.650613
1.650613
1.391855
1.267164
1.255351
1.254038
1.254038
1.254413
1.259288
1.329041
1.329041
1.55311
1.79293
2.000311
2.14619
2.205442
2.182379
2.075501
1.88687
1.644988
1.644988
1.386792
1.265851
1.254788
1.254226
1.254038
1.254226
1.258351
1.311603
1.527422
1.527422
1.768366
1.97031
2.124627
2.191379
2.173191
2.078126
1.89662
1.659613
1.39973
1.39973
1.269039
1.254976
1.254226
1.254038
1.254226
1.259288
1.319103
1.538672
1.788242
1.788242
1.996748
2.142815
2.21238
2.198505
2.104189
1.921371
1.681364
1.425043
1.272789
1.272789
1.255913
1.254413
1.254226
1.254413
1.259663
1.322478
1.542422
1.782804
1.782804
2.000124
2.155941
2.220255
2.21688
2.12069
1.938434
1.70349
1.441731
1.276351
1.276351
1.255913
1.254413
1.254226
1.254601
1.258913
1.316853
1.535109
1.776804
1.987186
1.987186
2.132878
2.226443
2.223818
2.137378
1.962247
1.719427
1.460482
1.281602
1.256288
1.256288
1.254226
1.254226
1.254226
1.257788
1.305602
1.515234
1.763679
1.982873
2.146378
2.146378
2.231881
2.230006
2.139815
1.963935
1.733303
1.479608
1.287977
1.256288
1.256288
1.254413
1.254226
1.254413
1.258351
1.304665
1.516546
1.753366
1.972185
2.140003
2.140003
2.222693
2.228131
2.156128
1.992811
1.773429
1.521796
1.310477
1.258351
1.254601
1.254601
1.254226
1.254413
1.259288
1.323415
1.552547
1.800055
2.011186
2.153503
2.21013
2.21013
2.159503
2.007061
1.770054
1.453169
1.267539
1.254038
1.254226
1.254601
1.254601
1.254601
1.254601
1.254601
1.254413
1.253851
1.261163
1.505858
1.780929
1.897183
1.897183
1.858932
1.781304
1.665051
1.598486
1.439106
1.392043
1.409105
1.410418
1.410606
1.410606
1.47492
1.586298
1.767991
1.983623
2.21313
2.397823
2.537327
2.584204
2.592829
2.592829
2.521952
2.342696
2.077188
1.795555
1.539422
1.328665
1.263039
1.257413
1.258163
1.258163
1.267726
1.350416
1.555172
1.794805
2.015124
2.182192
2.275569
2.284195
2.209755
2.209755
2.048125
1.830806
1.573173
1.335416
1.260601
1.255163
1.254226
1.254601
1.257413
1.257413
1.287602
1.468545
1.706865
1.928684
2.103252
2.205442
2.223443
2.161191
2.161191
2.012686
1.792367
1.532297
1.312915
1.258351
1.254601
1.254038
1.254226
1.255351
1.255351
1.271289
1.419043
1.667676
1.901871
2.075688
2.186504
2.20263
2.146378
2.001998
2.001998
1.789929
1.528359
1.30879
1.257788
1.254601
1.254038
1.254038
1.255351
1.268664
1.268664
1.406668
1.641237
1.866432
2.057313
2.176379
2.203755
2.148628
2.011374
1.79893
1.79893
1.54786
1.321728
1.258726
1.254601
1.254226
1.254038
1.255351
1.269601
1.269601
1.400668
1.642363
1.872807
2.059
2.179566
2.213505
2.159128
2.027124
1.816555
1.816555
1.565298
1.328853
1.259101
1.254601
1.254038
1.254038
1.254976
1.265851
1.38473
1.38473
1.621174
1.857619
2.0455
2.170754
2.20788
2.159316
2.026374
1.814305
1.56211
1.56211
1.331291
1.259851
1.254413
1.254038
1.254038
1.254976
1.264351
1.369542
1.617987
1.617987
1.854244
2.043062
2.162879
2.166066
2.040812
1.832306
1.582736
1.338603
1.260413
1.260413
1.254788
1.254038
1.254038
1.254788
1.263039
1.367104
1.605799
1.837368
2.029937
2.029937
2.160066
2.20263
2.158191
2.040062
1.835306
1.582923
1.339353
1.260226
1.254601
1.254601
1.254038
1.253851
1.254413
1.260226
1.339541
1.56886
1.800242
1.991498
1.991498
2.126127
2.163628
2.127065
2.007811
1.803055
1.554798
1.316665
1.258351
1.254226
1.254226
1.254226
1.254038
1.254226
1.257226
1.300915
1.508859
1.727678
1.926996
2.063688
2.063688
2.106814
2.077376
1.957747
1.753553
1.503608
1.289102
1.255913
1.254038
1.254038
1.254038
1.254038
1.254226
1.254976
1.269226
1.413981
1.638613
1.830618
1.968435
2.026937
2.026937
1.997311
1.887245
1.691114
1.444169
1.272226
1.254788
1.254038
1.253851
1.253851
1.254038
1.254038
1.254226
1.260976
1.357166
1.586673
1.778117
1.919121
1.976498
1.976498
1.966935
1.860432
1.668051
1.437794
1.272414
1.254976
1.254038
1.253851
1.254038
1.254038
1.254038
1.254413
1.264539
1.389605
1.634862
1.838681
1.997686
2.065188
2.059188
2.059188
1.969748
1.791992
1.554047
1.323415
1.258726
1.254226
1.253851
1.253851
1.254038
1.254038
1.256663
1.294352
1.502108
1.750366
1.971998
2.121252
2.195317
2.191004
2.191004
2.098564
1.919121
1.683239
1.431606
1.275789
1.256101
1.254226
1.254038
1.254976
1.254976
1.261351
1.340666
1.577861
1.818243
2.027124
2.183692
2.263757
2.258506
2.165691
2.165691
1.984373
1.746428
1.490483
1.298477
1.257788
1.254788
1.254601
1.254976
1.263414
1.263414
1.354541
1.585923
1.828181
2.041562
2.200192
2.273694
2.271257
2.176379
1.999936
1.999936
1.762741
1.504358
1.30279
1.258163
1.254788
1.254226
1.254788
1.262476
1.262476
1.349854
1.582173
1.81768
2.032562
2.194379
2.277632
2.271069
2.183692
2.009874
2.009874
1.776804
1.517109
1.310665
1.258726
1.254788
1.254226
1.255163
1.261913
1.341228
1.341228
1.56886
1.815055
2.029562
2.190817
2.271444
2.271819
2.184067
2.008936
1.774367
1.774367
1.518234
1.312165
1.258913
1.254788
1.254413
1.254976
1.261726
1.338041
1.56286
1.56286
1.80718
2.026562
2.190817
2.280632
2.288695
2.21313
2.036875
1.81093
1.546922
1.546922
1.324165
1.260226
1.254976
1.254601
1.254976
1.260601
1.329416
1.547297
1.547297
1.78918
2.010999
2.174504
2.273694
2.275944
2.203567
2.038375
1.810368
1.551985
1.551985
1.326416
1.260413
1.255163
1.254226
1.254601
1.258726
1.309352
1.527609
1.777367
1.777367
1.998436
2.162879
2.269569
2.281569
2.202817
2.04175
1.819931
1.565673
1.334478
1.334478
1.260976
1.255163
1.254413
1.254788
1.258726
1.312353
1.524234
1.764616
1.987373
1.987373
2.159503
2.261132
2.27782
2.21013
2.053938
1.826868
1.566985
1.334853
1.334853
1.260601
1.254788
1.254226
1.254601
1.258538
1.300727
1.504921
1.748678
1.971623
1.971623
2.149941
2.249881
2.267319
2.206005
2.05525
1.834369
1.581611
1.341603
1.261913
1.261913
1.255163
1.254413
1.254601
1.257976
1.30054
1.500608
1.745866
1.972935
2.149566
2.149566
2.258694
2.281569
2.221568
2.074938
1.856494
1.594924
1.356416
1.262851
1.255351
1.255351
1.254601
1.254601
1.257976
1.296602
1.48917
1.73049
1.961122
2.143378
2.246881
2.246881
2.271069
2.210505
2.081688
1.860619
1.608612
1.364292
1.263414
1.255351
1.255351
1.254413
1.254601
1.257413
1.290789
1.473982
1.722053
1.948372
2.129503
2.245194
2.245194
2.279132
2.227943
2.089939
1.878245
1.622487
1.377229
1.264914
1.255538
1.254413
1.254413
1.254601
1.257038
1.283289
1.462357
1.713052
1.939559
2.123315
2.245381
2.276882
2.276882
2.230756
2.101939
1.892495
1.640863
1.39073
1.267351
1.255726
1.254601
1.254601
1.254601
1.256476
1.281977
1.445857
1.696364
1.934122
2.126315
2.245944
2.281569
2.281569
2.241443
2.107939
1.900371
1.65155
1.39973
1.269789
1.255913
1.254413
1.254601
1.254601
1.256663
1.278602
1.440981
1.686802
1.924934
2.117877
2.246319
2.28682
2.247069
2.247069
2.119002
1.912183
1.662613
1.406855
1.270539
1.255913
1.254413
1.254226
1.256851
1.256851
1.276726
1.428606
1.682114
1.919309
2.112439
2.240693
2.285507
2.252131
2.131752
2.131752
1.923996
1.675364
1.421856
1.273539
1.256288
1.254601
1.254601
1.256101
1.274476
1.274476
1.426356
1.670676
1.906183
2.105689
2.241068
2.287757
2.258694
2.135128
2.135128
1.933559
1.685114
1.430481
1.275039
1.256288
1.254601
1.254788
1.255913
1.271289
1.271289
1.409855
1.653425
1.89212
2.093502
2.228318
2.281007
2.251944
2.141128
1.944059
1.944059
1.693364
1.448857
1.282164
1.256663
1.254601
1.254601
1.255726
1.269226
1.399918
1.399918
1.643863
1.882745
2.083001
2.229256
2.283257
2.261507
2.148628
1.952122
1.711927
1.711927
1.453732
1.284789
1.256851
1.254413
1.254413
1.255726
1.268476
1.394105
1.394105
1.63355
1.872057
2.079813
2.225505
2.285882
2.269569
2.159691
1.969373
1.726365
1.726365
1.46517
1.287602
1.257038
1.254788
1.254601
1.255538
1.266601
1.382105
1.62755
1.62755
1.863432
2.072876
2.219505
2.281945
2.270507
2.170004
1.976498
1.743428
1.485045
1.485045
1.294165
1.257788
1.254788
1.254601
1.255538
1.266039
1.375917
1.616299
1.856119
1.856119
2.068563
2.219318
2.281569
2.265819
2.174879
1.995436
1.746616
1.48917
1.291727
1.291727
1.256851
1.254601
1.254226
1.254788
1.261539
1.341228
1.577486
1.818431
1.818431
2.023749
2.174879
2.255881
2.248194
2.152753
1.972748
1.738178
1.487295
1.295477
1.295477
1.257788
1.254976
1.254413
1.254976
1.262289
1.348729
1.581423
1.825931
2.051875
2.051875
2.21163
2.28832
2.283445
2.189317
2.011374
1.772304
1.512421
1.308227
1.258538
1.258538
1.254976
1.254601
1.255163
1.263601
1.356416
1.588173
1.834743
2.045875
2.209005
2.209005
2.292633
2.288882
2.20113
2.025249
1.793117
1.530422
1.316665
1.258913
1.258913
1.254976
1.254601
1.255351
1.262664
1.350979
1.582923
1.822368
2.037062
2.197755
2.197755
2.288507
2.28982
2.205067
2.035375
1.79968
1.54186
1.32529
1.260038
1.255163
1.255163
1.254413
1.255163
1.262851
1.343291
1.57336
1.820306
2.03425
2.20113
2.291882
2.291882
2.29657
2.214068
2.042875
1.811305
1.548985
1.322103
1.260038
1.255163
1.254601
1.254601
1.255163
1.262289
1.341041
1.562485
1.810368
2.033687
2.194754
2.288132
2.288132
2.299945
2.228506
2.062001
1.846744
1.601111
1.365979
1.265664
1.256101
1.254976
1.254976
1.255538
1.261913
1.353604
1.588736
1.844119
2.075688
2.230006
2.301633
2.277445
2.277445
2.163441
1.931871
1.639925
1.327353
1.256288
1.254038
1.254413
1.254413
1.254413
1.254413
1.254413
1.254038
1.254038
1.257226
1.371417
1.766866
1.965998
1.988686
1.891933
1.891933
1.713615
1.521609
1.430856
1.306165
1.291727
1.375167
1.45992
1.537547
1.537547
1.677426
1.858369
2.082438
2.296195
2.501326
2.594329
2.651331
2.651893
2.599017
2.599017
2.455013
1.922684
1.640488
1.414356
1.290977
1.265289
1.267164
1.301102
1.446982
1.650425
1.650425
1.868119
2.085626
2.259069
2.36201
2.366322
2.298258
2.139253
1.915183
1.649675
1.649675
1.402543
1.270164
1.256663
1.254976
1.255351
1.260601
1.318165
1.524984
1.758054
1.758054
1.979685
2.161941
2.271819
2.29507
2.237318
2.095189
1.864744
1.610674
1.366354
1.366354
1.264351
1.255538
1.254413
1.254413
1.257601
1.287977
1.466295
1.71099
1.71099
1.944059
2.12519
2.251006
2.269382
2.221193
2.081876
1.856307
1.603174
1.362042
1.362042
1.262851
1.255163
1.254413
1.254226
1.256476
1.282727
1.458795
1.696739
1.921746
1.921746
2.112439
2.239756
2.274819
2.231881
2.096876
1.885182
1.630175
1.380792
1.265476
1.265476
1.255163
1.254413
1.254601
1.256476
1.279539
1.442482
1.687176
1.918184
2.114127
2.114127
2.232068
2.271819
2.22663
2.095001
1.879557
1.632612
1.37948
1.266789
1.266789
1.255351
1.254413
1.254413
1.255913
1.275226
1.433669
1.676114
1.909371
2.101189
2.101189
2.232256
2.272569
2.233568
2.094439
1.89137
1.635237
1.386792
1.266601
1.255538
1.255538
1.254413
1.254226
1.255538
1.271851
1.411731
1.653613
1.890808
2.093689
2.231693
2.231693
2.273507
2.241443
2.116752
1.909371
1.661301
1.405168
1.269601
1.255726
1.254413
1.254413
1.254226
1.255913
1.270914
1.40423
1.657551
1.881057
2.077564
2.215568
2.262444
2.262444
2.231131
2.101377
1.902808
1.654176
1.393167
1.267539
1.255351
1.254226
1.254226
1.254226
1.255163
1.264914
1.370667
1.606924
1.852369
2.047563
2.181629
2.225505
2.225505
2.193817
2.080564
1.875245
1.628112
1.371604
1.263414
1.254788
1.254038
1.253851
1.253851
1.254226
1.258726
1.326978
1.552172
1.780179
1.972748
2.110377
2.161941
2.135503
2.135503
2.018874
1.820118
1.570923
1.323415
1.258913
1.254413
1.253851
1.253851
1.253851
1.253851
1.255726
1.279914
1.456732
1.686239
1.88987
2.026562
2.083938
2.056
1.950622
1.950622
1.759929
1.503983
1.294727
1.256476
1.254038
1.254038
1.254038
1.254226
1.254226
1.254788
1.265289
1.396168
1.633925
1.838306
1.98456
2.041562
2.028812
1.928684
1.928684
1.737428
1.501733
1.290789
1.256101
1.254038
1.254038
1.253851
1.253851
1.254601
1.254601
1.264539
1.402918
1.648738
1.860619
2.023562
2.097439
2.095939
2.003499
1.827806
1.827806
1.608424
1.367854
1.263789
1.254601
1.254038
1.254038
1.254226
1.257976
1.31104
1.31104
1.533609
1.775679
1.991686
2.152566
2.240318
2.237693
2.143003
1.963372
1.963372
1.73124
1.482608
1.292477
1.257788
1.254788
1.254601
1.255538
1.265851
1.378917
1.378917
1.623237
1.866619
2.085626
2.243318
2.320758
2.316446
2.223255
2.045875
1.812618
1.812618
1.55311
1.335603
1.261726
1.255726
1.254976
1.256288
1.269976
1.39148
1.62755
1.62755
1.866245
2.078876
2.242568
2.338571
2.336696
2.242381
2.065563
1.837556
1.575048
1.575048
1.348354
1.263414
1.256101
1.255163
1.256476
1.270914
1.399918
1.638238
1.638238
1.878807
2.097626
2.261694
2.343259
2.340634
2.256631
2.087876
1.862869
1.614987
1.614987
1.368792
1.266601
1.256288
1.255163
1.256663
1.269601
1.386792
1.6238
1.866994
1.866994
2.088064
2.252881
2.343822
2.346259
2.263757
2.093314
1.859682
1.600549
1.362979
1.362979
1.266226
1.256101
1.255163
1.256101
1.267914
1.376667
1.605799
1.845431
2.065751
2.065751
2.228318
2.323946
2.331446
2.257569
2.093127
1.861182
1.605236
1.367104
1.367104
1.264914
1.256101
1.254976
1.255726
1.263789
1.360354
1.592486
1.838119
2.05825
2.05825
2.225693
2.326759
2.336509
2.263944
2.101752
1.876932
1.613487
1.37423
1.265851
1.265851
1.256101
1.254788
1.255726
1.263414
1.348916
1.575423
1.821618
2.051687
2.22063
2.22063
2.314196
2.322633
2.258131
2.098001
1.877495
1.617987
1.376667
1.266039
1.256101
1.256101
1.254976
1.255538
1.261351
1.334478
1.55461
1.79518
2.020937
2.190817
2.29957
2.29957
2.319446
2.258319
2.101564
1.879557
1.630362
1.383605
1.267726
1.256288
1.256288
1.255163
1.255726
1.261539
1.331666
1.55161
1.802868
2.03125
2.206192
2.308758
2.308758
2.330321
2.268257
2.113377
1.89737
1.643488
1.397855
1.268851
1.256288
1.254788
1.254788
1.255538
1.260976
1.323978
1.538672
1.78768
2.017561
2.197567
2.308196
2.334634
2.334634
2.278944
2.137565
1.920059
1.658488
1.40798
1.270726
1.256288
1.254976
1.255351
1.255351
1.260413
1.311978
1.519921
1.761804
1.998061
2.179566
2.293195
2.317758
2.317758
2.264882
2.129315
1.914433
1.664113
1.415481
1.274101
1.256851
1.255163
1.255538
1.255538
1.260226
1.316103
1.521796
1.770242
2.003311
2.190254
2.310821
2.335946
2.288507
2.288507
2.147503
1.933559
1.674614
1.423543
1.274664
1.256851
1.254976
1.254976
1.259476
1.259476
1.310103
1.511109
1.757679
1.991873
2.180879
2.299757
2.334821
2.293195
2.155378
2.155378
1.941622
1.689614
1.432356
1.278039
1.257413
1.254976
1.254976
1.259476
1.259476
1.30579
1.500983
1.749053
1.980998
2.173566
2.293195
2.326946
2.289632
2.160816
2.160816
1.946122
1.687364
1.437419
1.279352
1.257226
1.254976
1.254976
1.258351
1.299977
1.299977
1.497608
1.752053
1.982498
2.181629
2.312133
2.352634
2.312696
2.181817
1.975748
1.975748
1.725615
1.46967
1.289102
1.257976
1.255351
1.255538
1.258913
1.29604
1.487295
1.487295
1.734241
1.971248
2.169066
2.299945
2.344009
2.310821
2.192317
1.985873
1.73274
1.73274
1.469857
1.285539
1.257601
1.255163
1.255163
1.258538
1.292289
1.47042
1.47042
1.714927
1.95006
2.150691
2.281007
2.327696
2.297508
2.181442
1.983623
1.737803
1.737803
1.47867
1.295477
1.258351
1.255351
1.255163
1.258163
1.290602
1.470045
1.714552
1.714552
1.948184
2.149191
2.283257
2.341009
2.318883
2.203567
1.999936
1.753928
1.496671
1.496671
1.301665
1.259101
1.255163
1.255163
1.257976
1.287977
1.460857
1.701052
1.936934
1.936934
2.142628
2.283257
2.337634
2.316633
2.213693
2.012874
1.767429
1.508296
1.508296
1.306727
1.259476
1.255538
1.255351
1.257038
1.280852
1.444357
1.688676
1.925496
1.925496
2.132503
2.27632
2.333134
2.314758
2.198505
2.005186
1.768554
1.519171
1.313478
1.313478
1.260226
1.255351
1.255163
1.257601
1.283852
1.447357
1.688489
1.926996
2.134003
2.134003
2.275757
2.351322
2.334071
2.230756
2.041187
1.79968
1.536422
1.31929
1.260601
1.260601
1.255913
1.255351
1.257413
1.279727
1.436294
1.671614
1.911246
2.130252
2.130252
2.267694
2.337071
2.325071
2.227755
2.035187
1.793305
1.534172
1.320603
1.260413
1.260413
1.255538
1.255163
1.256851
1.272039
1.411731
1.656988
1.892495
2.105314
2.255131
2.255131
2.337071
2.338196
2.245944
2.060126
1.827243
1.567923
1.338978
1.262101
1.255726
1.255726
1.254976
1.256851
1.274476
1.417356
1.657926
1.886683
2.089564
2.239943
2.317758
2.317758
2.308008
2.216505
2.034437
1.80118
1.54186
1.319853
1.254976
1.254788
1.255913
1.255913
1.267539
1.386792
1.627362
1.869619
2.086001
2.247256
2.321133
2.320758
2.238631
2.238631
2.062938
1.828743
1.573923
1.346291
1.262476
1.256101
1.255351
1.256288
1.268476
1.268476
1.385855
1.622112
1.867182
2.087501
2.241068
2.331446
2.330696
2.252881
2.085814
2.085814
1.854807
1.596424
1.359792
1.264914
1.256288
1.255351
1.256476
1.269414
1.269414
1.38698
1.629987
1.87712
2.095376
2.260382
2.355447
2.354884
2.271444
2.100814
2.100814
1.87187
1.612549
1.373104
1.266226
1.256476
1.255351
1.256288
1.269601
1.377417
1.377417
1.606549
1.850681
2.071938
2.242381
2.337821
2.339696
2.260007
2.103814
1.872057
1.872057
1.614424
1.378355
1.267539
1.256476
1.255538
1.256476
1.267539
1.369729
1.606362
1.606362
1.846369
2.072876
2.245756
2.341947
2.35751
2.28457
2.12369
1.897745
1.897745
1.639925
1.397293
1.270726
1.257226
1.255538
1.256851
1.269601
1.392043
1.631487
1.631487
1.87112
2.089939
2.262632
2.36726
2.389573
2.325821
2.176941
1.958122
1.676676
1.676676
1.403293
1.266976
1.255163
1.254038
1.253851
1.254226
1.256476
1.275226
1.373667
1.373667
1.535859
1.668801
1.744928
1.753553
1.645175
1.507359
1.46892
1.437981
1.288914
1.288914
1.255913
1.254038
1.254038
1.254038
1.256663
1.351541
1.762741
2.256069
2.578954
2.578954
2.657144
2.656956
2.657144
2.657144
2.595079
2.377198
2.103627
1.834181
1.834181
1.592486
1.428231
1.350604
1.342916
1.435919
1.597361
1.815618
2.05375
2.262444
2.262444
2.425011
2.509952
2.497576
2.418636
2.257944
2.028437
1.759741
1.491045
1.295665
1.295665
1.259851
1.256101
1.256663
1.266601
1.360541
1.586861
1.827431
2.0515
2.233193
2.233193
2.345321
2.369322
2.30782
2.160628
1.939184
1.677614
1.428981
1.274851
1.257038
1.257038
1.254976
1.255351
1.260038
1.311978
1.514859
1.757491
1.992998
2.172441
2.172441
2.288882
2.317196
2.267694
2.127627
1.916308
1.664676
1.404793
1.269601
1.256101
1.256101
1.254788
1.254976
1.258913
1.30129
1.497983
1.751866
1.97706
2.167191
2.28982
2.28982
2.327883
2.278007
2.144128
1.932997
1.686614
1.427856
1.273726
1.256476
1.254788
1.254788
1.254976
1.257601
1.295102
1.481295
1.732928
1.968435
2.154816
2.271257
2.313446
2.313446
2.270694
2.144315
1.936372
1.679489
1.432544
1.276726
1.256476
1.254601
1.254601
1.254788
1.257413
1.286852
1.46742
1.716802
1.948372
2.147128
2.269194
2.320008
2.320008
2.272569
2.148628
1.945747
1.699364
1.440044
1.277289
1.257038
1.255163
1.255163
1.255163
1.257226
1.283289
1.455607
1.705552
1.935247
2.134378
2.262257
2.30557
2.274257
2.274257
2.151816
1.948559
1.699552
1.440419
1.278602
1.256663
1.254788
1.254601
1.256851
1.256851
1.276539
1.437981
1.677051
1.910683
2.109064
2.237131
2.290945
2.262632
2.14394
2.14394
1.939747
1.691302
1.433856
1.276914
1.256476
1.254413
1.254788
1.255913
1.255913
1.272601
1.40273
1.651175
1.882933
2.090314
2.226443
2.271257
2.241068
2.133815
2.133815
1.935622
1.682114
1.423543
1.272039
1.255538
1.254226
1.254226
1.254788
1.263414
1.263414
1.358292
1.589111
1.827056
2.018687
2.162879
2.21388
2.183879
2.070438
1.870182
1.870182
1.622675
1.367854
1.262851
1.254788
1.253851
1.254038
1.254038
1.257038
1.296414
1.296414
1.497046
1.728053
1.933934
2.075313
2.13569
2.112252
2.006124
1.814118
1.814118
1.567923
1.325478
1.258538
1.254226
1.254038
1.253851
1.254038
1.255351
1.275789
1.275789
1.444169
1.674801
1.88237
2.029937
2.098377
2.082626
1.975373
1.781117
1.543172
1.543172
1.312353
1.257788
1.254226
1.254038
1.254038
1.254226
1.254788
1.268476
1.423356
1.423356
1.667863
1.879557
2.042312
2.117502
2.107939
2.014561
1.838681
1.607112
1.357541
1.357541
1.262664
1.254788
1.254038
1.253851
1.254226
1.257788
1.311228
1.534359
1.534359
1.783179
1.998061
2.161191
2.248569
2.249131
2.165316
1.992061
1.758616
1.506421
1.506421
1.308415
1.259101
1.255163
1.254976
1.256101
1.269976
1.396355
1.639175
1.902058
1.902058
2.116565
2.279507
2.356197
2.360322
2.270319
2.089939
1.859682
1.600924
1.373479
1.373479
1.267914
1.257226
1.255913
1.258726
1.288352
1.449794
1.691864
1.939559
2.155191
2.155191
2.314758
2.396698
2.392385
2.309508
2.141128
1.896433
1.639738
1.404418
1.272976
1.272976
1.258726
1.257038
1.259476
1.289289
1.460107
1.692239
1.938059
2.153316
2.153316
2.316446
2.406074
2.403636
2.319633
2.146753
1.918934
1.656051
1.417731
1.275414
1.275414
1.258538
1.256851
1.259663
1.286477
1.447357
1.689801
1.936372
2.154816
2.320008
2.320008
2.404198
2.401761
2.325446
2.160441
1.930184
1.661863
1.421293
1.277664
1.258351
1.258351
1.256663
1.259101
1.278602
1.430481
1.668613
1.908808
2.126878
2.300883
2.387323
2.387323
2.391635
2.314945
2.157066
1.930746
1.669738
1.426544
1.278602
1.258163
1.258163
1.256101
1.257976
1.273914
1.408918
1.642363
1.886683
2.113002
2.285695
2.385448
2.385448
2.398948
2.321508
2.152378
1.930746
1.673301
1.431419
1.278602
1.257976
1.256101
1.256101
1.257413
1.270539
1.387355
1.624549
1.868307
2.097439
2.261319
2.37026
2.377198
2.377198
2.311008
2.163253
1.931871
1.667863
1.434419
1.278039
1.257601
1.255913
1.257038
1.257038
1.267726
1.373292
1.607299
1.853307
2.083751
2.262819
2.36951
2.38676
2.38676
2.309508
2.169816
1.946497
1.682301
1.435919
1.278977
1.257788
1.255913
1.257038
1.257038
1.266976
1.365979
1.601299
1.847869
2.075313
2.244819
2.357322
2.378697
2.332009
2.332009
2.178254
1.949309
1.695802
1.447919
1.284414
1.258726
1.256288
1.256851
1.266789
1.266789
1.365229
1.592486
1.838681
2.071001
2.249506
2.358447
2.380573
2.329384
2.185192
2.185192
1.96656
1.710802
1.458795
1.284977
1.259101
1.256101
1.256476
1.265476
1.354166
1.354166
1.586111
1.846181
2.064626
2.249319
2.36576
2.390886
2.342696
2.20338
2.20338
1.983061
1.729553
1.475108
1.297727
1.259851
1.255913
1.256476
1.264914
1.355104
1.355104
1.579736
1.821993
2.052063
2.242193
2.364447
2.391635
2.338759
2.19813
1.983998
1.983998
1.734991
1.482045
1.295665
1.260038
1.256288
1.256663
1.263789
1.344979
1.560985
1.560985
1.81543
2.044937
2.233006
2.356947
2.400261
2.351134
2.213318
2.008186
1.745866
1.745866
1.490108
1.301852
1.259851
1.256288
1.256476
1.263789
1.343479
1.557235
1.557235
1.797805
2.029374
2.221005
2.351884
2.399511
2.36276
2.230006
2.021312
1.768179
1.768179
1.508484
1.306915
1.260601
1.256663
1.256476
1.263601
1.335603
1.548797
1.789929
1.789929
2.028624
2.22288
2.355072
2.396136
2.362385
2.236943
2.031625
1.771929
1.519734
1.519734
1.317228
1.261913
1.256476
1.256476
1.262476
1.32379
1.535484
1.781117
2.028999
2.028999
2.22063
2.355634
2.401573
2.358822
2.248569
2.042312
1.791992
1.539984
1.322853
1.322853
1.262476
1.256663
1.256851
1.322665
1.528172
1.775492
2.008936
2.20713
2.353759
2.353759
2.398573
2.370635
2.247631
2.047937
1.80268
1.55011
1.32979
1.263414
1.256851
1.256851
1.256663
1.261351
1.311978
1.515984
1.768366
2.003686
2.203567
2.345509
2.398761
2.398761
2.375885
2.257944
2.056375
1.810555
1.55836
1.336728
1.262851
1.256663
1.256851
1.256851
1.261351
1.31329
1.514671
1.758991
1.998061
2.198692
2.346634
2.401573
2.372698
2.372698
2.262819
2.068751
1.827056
1.560423
1.336728
1.264164
1.257226
1.256663
1.256663
1.260601
1.304477
1.499108
1.742866
1.985873
2.195504
2.340446
2.406449
2.38976
2.38976
2.284945
2.091814
1.843181
1.587423
1.355854
1.266039
1.257038
1.256663
1.259663
1.259663
1.29754
1.47867
1.730865
1.967873
2.180129
2.318133
2.369885
2.358822
2.262069
2.262069
2.069876
1.818993
1.564735
1.342166
1.263789
1.256288
1.256101
1.258163
1.283664
1.283664
1.448294
1.695614
1.938247
2.158753
2.30407
2.375698
2.367822
2.273132
2.085251
2.085251
1.857432
1.594174
1.363354
1.267539
1.257601
1.256663
1.259663
1.295665
1.295665
1.47567
1.717365
1.961685
2.174504
2.328634
2.403636
2.394823
2.29732
2.109439
2.109439
1.87787
1.619299
1.380042
1.268664
1.257413
1.256476
1.258913
1.290602
1.464232
1.464232
1.709115
1.949309
2.160441
2.315696
2.393136
2.38676
2.298633
2.12069
1.889495
1.889495
1.629237
1.393543
1.272039
1.257788
1.256851
1.259101
1.292477
1.462545
1.700114
1.700114
1.938997
2.157441
2.31532
2.394635
2.398386
2.307633
2.131377
1.898495
1.898495
1.63655
1.400293
1.273726
1.257788
1.256663
1.258726
1.281789
1.440044
1.682676
1.682676
1.924184
2.151816
2.311383
2.394073
2.398761
2.316258
2.13869
1.905058
1.6478
1.6478
1.403855
1.274664
1.258163
1.256288
1.258351
1.283289
1.434981
1.670114
1.917246
1.917246
2.144503
2.321883
2.422199
2.437949
2.364072
2.190629
1.948184
1.688302
1.452044
1.452044
1.293602
1.261539
1.258726
1.263789
1.299602
1.452607
1.679114
1.901871
2.073626
2.073626
2.180504
2.214068
2.174129
2.073813
1.863994
1.561173
1.294352
1.254976
1.254976
1.254038
1.254038
1.254038
1.253851
1.258726
1.371417
1.565485
1.756741
1.940497
1.940497
2.106252
2.275194
2.369885
2.490638
2.568641
2.482201
2.260007
1.994123
1.716427
1.716427
1.532859
1.471545
1.504546
1.614237
1.815618
2.05375
2.270882
2.468325
2.583641
2.583641
2.617017
2.596204
2.579141
2.394823
2.155378
1.87487
1.600361
1.356416
1.268101
1.268101
1.259663
1.262101
1.289289
1.436294
1.663176
1.898495
2.12219
2.297695
2.297695
2.400073
2.411699
2.347009
2.187629
1.962247
1.700302
1.446419
1.279352
1.257788
1.257788
1.255913
1.256476
1.265476
1.351729
1.581986
1.828743
2.05225
2.230756
2.337259
2.337259
2.354884
2.295633
2.14694
1.930559
1.675739
1.421856
1.273726
1.257226
1.255351
1.255351
1.255913
1.262664
1.332791
1.554798
1.80343
2.031812
2.208817
2.320758
2.343822
2.343822
2.287382
2.14544
1.927371
1.669551
1.424293
1.275601
1.257226
1.255163
1.255163
1.255726
1.260226
1.32379
1.540359
1.789367
2.018499
2.195504
2.315133
2.342509
2.342509
2.285882
2.143378
1.930934
1.677426
1.424668
1.274851
1.257226
1.254976
1.255351
1.255351
1.259851
1.310853
1.518796
1.771929
1.997873
2.180879
2.302383
2.337446
2.287382
2.287382
2.149941
1.932434
1.678364
1.425231
1.275039
1.257038
1.254976
1.255163
1.258913
1.258913
1.30279
1.504171
1.750554
1.980435
2.170191
2.289632
2.329759
2.290195
2.155191
2.155191
1.946122
1.694864
1.432356
1.276351
1.257038
1.254788
1.255163
1.258913
1.258913
1.30204
1.490671
1.73124
1.964872
2.157629
2.284757
2.320008
2.27707
2.147503
2.147503
1.941247
1.689427
1.434606
1.278227
1.256851
1.254788
1.254976
1.257788
1.287227
1.287227
1.466857
1.715865
1.947809
2.142253
2.264694
2.307633
2.266569
2.138503
1.931309
1.931309
1.682114
1.422418
1.272039
1.256288
1.254601
1.254601
1.256288
1.275789
1.419981
1.419981
1.664863
1.898495
2.092001
2.226818
2.268257
2.231131
2.110002
1.900558
1.900558
1.645175
1.385667
1.265851
1.255163
1.254226
1.254226
1.254976
1.264164
1.360541
1.360541
1.591361
1.821431
2.010249
2.136253
2.182942
2.154066
2.035
1.827618
1.572986
1.572986
1.328853
1.259101
1.254413
1.254038
1.253851
1.254038
1.257038
1.29829
1.501546
1.501546
1.737053
1.937309
2.070813
2.12444
2.094626
1.981561
1.783179
1.540735
1.31104
1.31104
1.257601
1.254038
1.253851
1.253663
1.253851
1.256101
1.285352
1.467982
1.467982
1.705927
1.914808
2.056
2.115814
2.095939
1.991311
1.796305
1.556485
1.321165
1.321165
1.258726
1.254413
1.253851
1.253851
1.254226
1.257413
1.314415
1.545235
1.792555
1.792555
2.010062
2.162128
2.233193
2.222318
2.130627
1.95081
1.71624
1.465357
1.287227
1.287227
1.257788
1.255163
1.254788
1.256288
1.275039
1.428794
1.683614
1.936559
2.149378
2.149378
2.304258
2.37551
2.363509
2.268632
2.085814
1.844119
1.589111
1.365979
1.365979
1.268101
1.257601
1.257038
1.261913
1.31404
1.510734
1.754679
1.999561
2.20938
2.20938
2.36426
2.432137
2.419761
2.320008
2.137565
1.899995
1.638238
1.407605
1.275789
1.275789
1.259476
1.258351
1.263601
1.32154
1.520859
1.766491
2.007624
2.22438
2.384323
2.384323
2.459325
2.446762
2.343071
2.164004
1.928496
1.664676
1.428044
1.283102
1.261351
1.261351
1.258913
1.265476
1.32454
1.522547
1.770429
2.011561
2.227005
2.384698
2.453887
2.453887
2.447512
2.358259
2.175066
1.934497
1.665613
1.424481
1.281977
1.260413
1.260413
1.258351
1.262289
1.306727
1.497421
1.738553
1.981373
2.200005
2.356009
2.436074
2.436074
2.434012
2.344947
2.163253
1.927184
1.664676
1.424668
1.278789
1.259288
1.257601
1.257601
1.260788
1.298477
1.477545
1.717365
1.961497
2.179004
2.338571
2.426699
2.425949
2.425949
2.338759
2.160628
1.929434
1.668613
1.427669
1.278789
1.259101
1.257038
1.259476
1.259476
1.285164
1.449982
1.688489
1.932246
2.155941
2.323008
2.409636
2.410761
2.329946
2.329946
2.151816
1.919309
1.660176
1.420918
1.276726
1.258538
1.256663
1.258351
1.258351
1.278414
1.424481
1.663363
1.911808
2.132503
2.30032
2.391823
2.396323
2.319633
2.319633
2.153691
1.926059
1.668426
1.423543
1.276914
1.258538
1.256288
1.258163
1.276539
1.276539
1.412668
1.6508
1.893995
2.123502
2.29732
2.387885
2.396323
2.327321
2.164754
2.164754
1.937684
1.681739
1.435919
1.280852
1.258913
1.256663
1.257788
1.277664
1.410606
1.410606
1.644988
1.899058
2.123502
2.293195
2.399886
2.410198
2.342884
2.183879
2.183879
1.956435
1.697489
1.448482
1.287227
1.259288
1.257038
1.258726
1.275414
1.405918
1.405918
1.635987
1.889308
2.120502
2.291695
2.398386
2.411886
2.344384
2.179191
1.953435
1.953435
1.70499
1.465545
1.290414
1.259663
1.256663
1.258351
1.273539
1.403105
1.638613
1.882557
2.107002
2.28607
2.396511
2.416386
2.355822
2.20638
1.983998
1.725803
1.472295
1.472295
1.290977
1.260413
1.256663
1.257601
1.271289
1.385667
1.617049
1.868495
2.098564
2.098564
2.275944
2.391448
2.422011
2.36951
2.20938
1.994498
1.733115
1.48017
1.296414
1.296414
1.260601
1.256663
1.257788
1.269976
1.38173
1.617049
1.858557
2.092752
2.279132
2.279132
2.399698
2.426699
2.368947
2.229068
2.009499
1.752991
1.497796
1.304665
1.261351
1.261351
1.257226
1.258163
1.270539
1.376855
1.600736
1.852744
2.084126
2.266944
2.266944
2.391448
2.421637
2.371385
2.233193
2.016999
1.761429
1.506984
1.31104
1.262101
1.262101
1.257038
1.257601
1.268664
1.378167
1.603549
1.854994
2.085439
2.27632
2.391448
2.391448
2.424262
2.378135
2.243693
2.030312
1.770242
1.520671
1.314228
1.262851
1.256851
1.256851
1.257413
1.267539
1.361292
1.583673
1.837181
2.066313
2.252131
2.383573
2.419386
2.419386
2.380385
2.251944
2.039687
1.783554
1.530422
1.322103
1.261913
1.257038
1.257038
1.257413
1.265476
1.353229
1.576173
1.822368
2.060688
2.258881
2.386573
2.430637
2.430637
2.386198
2.257756
2.052813
1.794055
1.535109
1.322478
1.263039
1.257038
1.257601
1.257601
1.264914
1.342916
1.557797
1.809055
2.043062
2.239193
2.369885
2.413761
2.38301
2.38301
2.255506
2.048687
1.796492
1.539047
1.325853
1.262476
1.257038
1.257038
1.263601
1.263601
1.343104
1.56136
1.809993
2.048125
2.245194
2.378697
2.420324
2.38676
2.266382
2.266382
2.0635
1.81168
1.553297
1.334103
1.264914
1.256851
1.256851
1.262101
1.262101
1.334291
1.542422
1.789367
2.028624
2.235068
2.377948
2.426887
2.393698
2.288695
2.288695
2.078501
1.826868
1.567923
1.344416
1.263976
1.256851
1.256476
1.261726
1.320603
1.320603
1.515609
1.755804
1.989811
2.192504
2.337071
2.389198
2.361259
2.248381
2.051875
2.051875
1.806243
1.54486
1.330166
1.262476
1.256663
1.256288
1.259851
1.301477
1.487108
1.487108
1.736303
1.975748
2.187629
2.335196
2.398573
2.375885
2.269382
2.072501
2.072501
1.825181
1.57036
1.348916
1.265851
1.256851
1.256851
1.261539
1.311415
1.501733
1.501733
1.742303
1.989811
2.194942
2.347572
2.414136
2.393886
2.28907
2.100439
1.857244
1.857244
1.590049
1.359792
1.265664
1.257038
1.256288
1.259476
1.302415
1.48317
1.73124
1.73124
1.962435
2.182192
2.334821
2.401011
2.395573
2.285882
2.097439
1.863994
1.605049
1.605049
1.374042
1.269789
1.257976
1.257226
1.260976
1.30354
1.490483
1.73724
1.73724
1.979123
2.193067
2.347572
2.415449
2.401011
2.306133
2.12144
1.878245
1.613487
1.613487
1.380417
1.269039
1.258163
1.256476
1.259851
1.297352
1.475108
1.724115
1.96356
1.96356
2.178816
2.329946
2.410011
2.402511
2.307633
2.123502
1.884058
1.625487
1.389792
1.389792
1.270726
1.257976
1.256851
1.259851
1.29979
1.48167
1.733678
1.990936
2.20113
2.20113
2.358447
2.424636
2.423324
2.342509
2.169254
1.938997
1.691489
1.448857
1.283477
1.283477
1.258351
1.255538
1.255163
1.258538
1.273351
1.386605
1.557047
1.70649
1.70649
1.782054
1.81243
1.767429
1.672176
1.438919
1.272414
1.255163
1.254413
1.254413
1.254413
1.253851
1.253663
1.253851
1.254413
1.303165
1.602611
1.945934
2.398198
2.638018
2.638018
2.656769
2.656581
2.656769
2.629018
2.447887
2.162316
1.894183
1.644988
1.496296
1.496296
1.450357
1.473232
1.589674
1.768742
1.981748
2.202817
2.421824
2.561141
2.596954
2.596954
2.600704
2.507326
2.30782
2.0455
1.762366
1.501921
1.313102
1.264164
1.264164
1.259288
1.261726
1.296227
1.468732
1.703115
1.951184
2.171129
2.339509
2.433637
2.433637
2.432887
2.352447
2.183879
1.947434
1.671239
1.425793
1.275789
1.257976
1.256101
1.256101
1.257038
1.271851
1.39823
1.638425
1.881807
2.103627
2.274444
2.372885
2.38001
2.38001
2.310446
2.144503
1.915746
1.653613
1.403855
1.271476
1.257226
1.255538
1.256476
1.256476
1.267726
1.374604
1.607487
1.860057
2.085814
2.253069
2.354134
2.368947
2.368947
2.298258
2.14019
1.919496
1.6523
1.40948
1.274851
1.257413
1.255726
1.256288
1.256288
1.266414
1.362792
1.601674
1.846931
2.071001
2.254756
2.356385
2.37401
2.307633
2.307633
2.148441
1.929621
1.672364
1.428606
1.277101
1.257788
1.255538
1.256288
1.265476
1.265476
1.359792
1.588548
1.833243
2.061813
2.242568
2.357322
2.374573
2.309508
2.162503
2.162503
1.940497
1.681926
1.431794
1.278414
1.257601
1.255726
1.256101
1.263601
1.347229
1.347229
1.573735
1.818431
2.053375
2.22513
2.332946
2.361072
2.30932
2.159878
2.159878
1.940684
1.685489
1.441356
1.281039
1.257976
1.255726
1.256101
1.263226
1.341791
1.341791
1.565673
1.813555
2.042875
2.234131
2.343634
2.372698
2.318133
2.171691
1.954747
1.954747
1.700489
1.441356
1.280102
1.257601
1.255538
1.255726
1.261163
1.325853
1.538297
1.538297
1.786555
2.016062
2.205442
2.322633
2.353759
2.304633
2.164191
1.945934
1.692614
1.692614
1.438919
1.278789
1.257226
1.254976
1.255163
1.259288
1.304665
1.502296
1.746616
1.746616
1.980435
2.159128
2.281007
2.316258
2.266569
2.120127
1.903183
1.64405
1.64405
1.388855
1.267914
1.255726
1.254413
1.254413
1.256288
1.275414
1.422231
1.671426
1.671426
1.899995
2.090314
2.212005
2.246506
2.208442
2.068188
1.848244
1.595674
1.345541
1.345541
1.260226
1.254601
1.254038
1.254038
1.254601
1.261726
1.352104
1.589861
1.829306
1.829306
2.020937
2.14319
2.182192
2.148253
2.016624
1.80418
1.550672
1.320603
1.257976
1.257976
1.254226
1.254226
1.253851
1.254226
1.258726
1.31704
1.540922
1.773992
1.962622
1.962622
2.093127
2.146003
2.11769
1.996748
1.812055
1.569235
1.336916
1.260038
1.260038
1.254413
1.254226
1.254226
1.254788
1.263414
1.374042
1.619299
1.859307
2.0665
2.0665
2.206005
2.267319
2.250631
2.137003
1.943497
1.697114
1.446044
1.283664
1.257226
1.257226
1.254788
1.254976
1.257601
1.288914
1.472295
1.723178
1.96356
2.174129
2.323571
2.323571
2.37701
2.357697
2.249319
2.052063
1.79968
1.55011
1.331291
1.262851
1.256851
1.256851
1.256663
1.261913
1.31254
1.513921
1.764429
2.004624
2.20563
2.349634
2.349634
2.411699
2.391073
2.275194
2.076063
1.842994
1.579923
1.353416
1.266226
1.257413
1.257413
1.257413
1.263039
1.325853
1.531922
1.779804
2.019249
2.22438
2.37551
2.435887
2.435887
2.413386
2.308758
2.106439
1.853682
1.591174
1.358292
1.266414
1.257601
1.257038
1.257038
1.261351
1.31104
1.509609
1.759179
2.002936
2.20713
2.354697
2.416949
2.402136
2.402136
2.304445
2.107377
1.861369
1.596611
1.369167
1.268101
1.257601
1.257226
1.257226
1.261726
1.307852
1.499296
1.745866
1.977623
2.20488
2.349822
2.416949
2.405136
2.405136
2.305758
2.11169
1.87562
1.617237
1.374042
1.269226
1.258163
1.257226
1.261726
1.261726
1.308415
1.502296
1.742116
1.984186
2.196255
2.351509
2.408886
2.307258
2.124627
1.881995
1.881995
1.623987
1.38548
1.269039
1.257976
1.256663
1.260038
1.296227
1.476608
1.719615
1.719615
1.959997
2.175629
2.336321
2.401386
2.39426
2.297508
2.123315
1.88012
1.6313
1.6313
1.391292
1.269789
1.257788
1.256288
1.259288
1.287789
1.455044
1.697489
1.697489
1.941622
2.155003
2.312883
2.396886
2.401948
2.308383
2.130627
1.896058
1.637112
1.637112
1.390918
1.270914
1.257788
1.256288
1.257976
1.284039
1.439106
1.687176
1.931684
1.931684
2.149941
2.313821
2.399511
2.398573
2.311383
2.136253
1.899621
1.637487
1.399543
1.399543
1.271289
1.257601
1.255913
1.258163
1.282539
1.437419
1.672739
1.917434
2.143003
2.143003
2.303508
2.393886
2.393698
2.320758
2.145253
1.908433
1.645738
1.408918
1.273164
1.273164
1.257976
1.256288
1.258163
1.278977
1.420918
1.6538
1.901871
2.126878
2.126878
2.307445
2.387885
2.393511
2.318133
2.150691
1.922496
1.655863
1.413418
1.274851
1.274851
1.258351
1.256288
1.257788
1.275226
1.411168
1.655113
1.901871
2.132503
2.299195
2.299195
2.392573
2.400448
2.332946
2.159128
1.940122
1.674614
1.426919
1.277476
1.257976
1.257976
1.256288
1.257788
1.273914
1.407793
1.642738
1.890433
2.119002
2.29207
2.389948
2.389948
2.393886
2.329571
2.174129
1.944434
1.677051
1.428981
1.278039
1.258163
1.258163
1.256101
1.257601
1.272789
1.400105
1.638425
1.878432
2.104377
2.28307
2.390886
2.390886
2.399886
2.338571
2.181629
1.95381
1.694302
1.445857
1.283102
1.258913
1.256288
1.256288
1.257413
1.270351
1.392417
1.6268
1.872807
2.097626
2.277257
2.38751
2.405699
2.405699
2.337446
2.184067
1.963372
1.704239
1.453732
1.283664
1.258726
1.256288
1.256851
1.256851
1.269414
1.387355
1.611237
1.864932
2.099314
2.275569
2.381885
2.407386
2.407386
2.342134
2.200755
1.979685
1.720552
1.465357
1.291352
1.259288
1.256288
1.257038
1.257038
1.269039
1.37648
1.604674
1.846369
2.082063
2.267507
2.37626
2.400636
2.345134
2.345134
2.206755
1.986436
1.724303
1.475857
1.295477
1.259851
1.256476
1.257038
1.266601
1.266601
1.360541
1.584798
1.840744
2.071376
2.259631
2.382823
2.412449
2.352634
2.21313
2.21313
2.000874
1.743991
1.480358
1.295102
1.260038
1.256101
1.257038
1.265851
1.363542
1.363542
1.578423
1.826118
2.065938
2.257569
2.37626
2.404761
2.354697
2.222693
2.222693
2.007436
1.750554
1.497608
1.30279
1.260226
1.256288
1.256663
1.264914
1.350979
1.350979
1.565485
1.815805
2.051312
2.237318
2.363509
2.410011
2.364447
2.230943
2.016812
2.016812
1.762741
1.509609
1.311228
1.260976
1.256288
1.256851
1.264914
1.349291
1.573735
1.573735
1.818243
2.055063
2.250444
2.381698
2.413949
2.36726
2.234881
2.021124
1.770617
1.770617
1.515421
1.311978
1.260226
1.256288
1.256476
1.262289
1.32529
1.531359
1.531359
1.783179
2.018124
2.206942
2.330884
2.377573
2.345696
2.20638
2.003124
1.752616
1.752616
1.496483
1.303352
1.259851
1.255913
1.255726
1.260601
1.31854
1.525734
1.781304
1.781304
2.015874
2.219318
2.351697
2.398761
2.356947
2.252319
2.039312
1.787117
1.531547
1.531547
1.32079
1.262101
1.256288
1.256476
1.261539
1.316478
1.526109
1.781304
2.027874
2.027874
2.22213
2.361822
2.411511
2.383385
2.265069
2.065938
1.820118
1.554047
1.554047
1.340291
1.264164
1.256663
1.256663
1.261913
1.330166
1.529297
1.771367
2.008186
2.008186
2.215568
2.354134
2.413011
2.386198
2.269569
2.070438
1.823118
1.560423
1.335416
1.335416
1.263789
1.257038
1.257038
1.260976
1.31479
1.516546
1.759929
2.004436
2.209567
2.209567
2.350759
2.410198
2.383573
2.274819
2.074938
1.825931
1.569423
1.344979
1.263789
1.263789
1.257038
1.256476
1.260976
1.311978
1.509046
1.753366
1.995061
2.201692
2.350947
2.350947
2.413574
2.39501
2.28232
2.087689
1.848056
1.583861
1.356229
1.266414
1.266414
1.257788
1.257413
1.263601
1.331291
1.527984
1.767617
1.999749
2.206567
2.367635
2.367635
2.443199
2.436074
2.336884
2.131565
1.86737
1.572235
1.316103
1.256851
1.254226
1.254226
1.254038
1.253851
1.254038
1.255351
1.268476
1.361479
1.543922
1.677614
1.664301
1.664301
1.661488
1.6373
1.705364
1.589486
1.360167
1.260226
1.254038
1.254038
1.254413
1.254413
1.257788
1.38923
1.845619
2.247631
2.53789
2.651518
2.656956
2.656769
2.656769
2.656769
2.657331
2.575954
2.327883
2.051875
1.792367
1.561548
1.426919
1.373479
1.373479
1.397855
1.526484
1.736303
1.946122
2.159691
2.361634
2.491201
2.534328
2.499076
2.499076
2.391635
2.20338
1.952872
1.684364
1.431981
1.280477
1.259476
1.257788
1.261351
1.261351
1.302977
1.47867
1.72974
1.971623
2.186504
2.337634
2.410949
2.401761
2.310821
2.310821
2.12669
1.891183
1.624549
1.38098
1.267914
1.256851
1.255726
1.257038
1.276164
1.276164
1.419231
1.658863
1.905058
2.12444
2.284195
2.364635
2.365572
2.282882
2.282882
2.106627
1.868307
1.606362
1.364292
1.264726
1.256101
1.255163
1.256101
1.268664
1.268664
1.394105
1.6328
1.878807
2.103252
2.273507
2.361634
2.363697
2.286257
2.118252
2.118252
1.879557
1.613862
1.376292
1.267539
1.256476
1.255163
1.256288
1.269039
1.391667
1.391667
1.614049
1.867745
2.089001
2.257006
2.355447
2.356572
2.279507
2.115627
1.88387
1.88387
1.623612
1.385667
1.267914
1.256476
1.255351
1.256288
1.267539
1.375167
1.375167
1.605986
1.849556
2.080001
2.245944
2.343071
2.363697
2.28682
2.121065
1.894558
1.894558
1.631487
1.393167
1.269414
1.256663
1.255538
1.256288
1.267539
1.370667
1.598674
1.598674
1.845431
2.070626
2.240318
2.345509
2.360322
2.293383
2.13644
1.911058
1.645175
1.645175
1.398605
1.271851
1.256851
1.255351
1.256288
1.265289
1.357354
1.586298
1.836619
1.836619
2.062188
2.240131
2.344947
2.359947
2.297883
2.138315
1.909558
1.650613
1.650613
1.403105
1.270726
1.256476
1.255351
1.255913
1.264539
1.336353
1.555735
1.803992
1.803992
2.034062
2.217068
2.326009
2.341759
2.27707
2.124627
1.897183
1.638988
1.388292
1.388292
1.267351
1.256101
1.254601
1.254976
1.259288
1.310665
1.516359
1.759179
1.987186
1.987186
2.162503
2.274257
2.289632
2.229068
2.077188
1.848056
1.585173
1.344229
1.260413
1.260413
1.254788
1.254038
1.254226
1.255726
1.273726
1.421668
1.660926
1.88762
1.88762
2.065938
2.176004
2.202817
2.144315
1.998811
1.785617
1.524421
1.301477
1.257038
1.257038
1.254413
1.253851
1.254038
1.254788
1.261913
1.364292
1.606737
1.835118
2.018124
2.018124
2.130252
2.158003
2.114127
1.97256
1.751678
1.503608
1.296977
1.256476
1.254226
1.254226
1.254038
1.254038
1.254601
1.259663
1.344416
1.583861
1.817493
2.010249
2.13569
2.13569
2.176566
2.137003
2.002936
1.798555
1.552172
1.320603
1.258913
1.254601
1.254601
1.254038
1.254226
1.255351
1.273164
1.425981
1.686239
1.923996
2.123127
2.259631
2.259631
2.306133
2.276695
1.934497
1.694114
1.445107
1.282539
1.257788
1.255163
1.255726
1.261163
1.261163
1.332603
1.554422
1.80193
2.038375
2.233943
2.358634
2.399511
2.370635
2.244256
2.244256
2.044937
1.793117
1.532297
1.324165
1.263414
1.257038
1.257413
1.266601
1.266601
1.354729
1.588548
1.826681
2.067438
2.268819
2.398386
2.439262
2.409636
2.287007
2.287007
2.084501
1.840556
1.581611
1.354354
1.267539
1.258163
1.258163
1.266601
1.346291
1.346291
1.564735
1.818806
2.0575
2.261882
2.403261
2.447512
2.420136
2.299195
2.101564
2.101564
1.853119
1.589861
1.368042
1.269976
1.258538
1.258913
1.268101
1.353041
1.56361
1.56361
1.809805
2.044187
2.246694
2.391073
2.445637
2.418074
2.30407
2.103814
2.103814
1.856494
1.594549
1.368229
1.269601
1.258351
1.258351
1.265476
1.347979
1.557797
1.557797
1.802118
2.043625
2.244819
2.388261
2.447137
2.422386
2.305758
2.097439
1.850494
1.850494
1.591174
1.368417
1.269039
1.257976
1.258726
1.266039
1.333353
1.549547
1.791617
1.791617
2.030874
2.244069
2.383948
2.436825
2.416386
2.293758
2.098939
1.860994
1.597736
1.597736
1.368042
1.268664
1.257413
1.257226
1.262476
1.318728
1.517296
1.764804
1.764804
2.008374
2.218568
2.367635
2.431387
2.413386
2.307633
2.111877
1.870182
1.609362
1.609362
1.371979
1.268289
1.257788
1.257226
1.261726
1.317228
1.514296
1.759179
1.998061
1.998061
2.200755
2.365197
2.428387
2.417511
2.318321
2.126127
1.872057
1.614987
1.377792
1.377792
1.269226
1.257788
1.256851
1.260788
1.306727
1.497421
1.752428
1.987936
2.19888
2.19888
2.352634
2.428574
2.418824
2.325071
2.141878
1.899808
1.6358
1.39373
1.39373
1.270164
1.258351
1.257226
1.260976
1.299415
1.48767
1.729553
1.981935
2.196067
2.196067
2.354134
2.431012
2.436262
2.342884
2.149941
1.912558
1.644425
1.40348
1.273539
1.273539
1.258726
1.257226
1.261163
1.294727
1.478108
1.727678
1.978748
2.195129
2.358634
2.358634
2.434949
2.425011
2.331634
2.152003
1.919496
1.65005
1.40723
1.274851
1.258538
1.258538
1.257038
1.260413
1.297352
1.47117
1.717552
1.959435
2.180504
2.343634
2.421262
2.421262
2.421824
2.340822
2.166066
1.926246
1.667301
1.418668
1.275976
1.259101
1.259101
1.257038
1.259288
1.290039
1.464045
1.705927
1.958872
2.171879
2.338384
2.426324
2.426324
2.426324
2.359572
2.181254
1.938809
1.673489
1.437794
1.280289
1.258726
1.257038
1.257038
1.259663
1.288164
1.458607
1.701052
1.941247
2.174504
2.336134
2.425199
2.436637
2.436637
2.354134
2.185192
1.95456
1.691114
1.445107
1.284414
1.259663
1.257226
1.260413
1.260413
1.288914
1.451107
1.692052
1.936747
2.156316
2.330696
2.424262
2.428199
2.428199
2.357322
2.190254
1.95381
1.692614
1.459732
1.287977
1.259851
1.257601
1.259663
1.259663
1.285914
1.446044
1.690927
1.935997
2.161003
2.334071
2.435887
2.4522
2.376072
2.376072
2.210692
1.989811
1.724865
1.465357
1.292477
1.260226
1.257601
1.259288
1.281039
1.281039
1.435919
1.677614
1.917808
2.14694
2.324696
2.427262
2.44845
2.37326
2.207692
2.207692
1.979685
1.720365
1.473795
1.294915
1.260601
1.257226
1.258538
1.276726
1.276726
1.416418
1.651738
1.907121
2.134565
2.317008
2.431199
2.448262
2.382448
2.224943
2.224943
2.001998
1.738928
1.489358
1.301477
1.260413
1.257226
1.259101
1.276539
1.40648
1.40648
1.64255
1.893995
2.129315
2.311945
2.428199
2.451825
2.400636
2.245381
2.020562
2.020562
1.763491
1.502296
1.30954
1.261163
1.257413
1.258913
1.275226
1.40723
1.64555
1.64555
1.89512
2.134753
2.311383
2.434199
2.4477
2.382073
2.232068
2.015124
1.757866
1.757866
1.510734
1.314415
1.263226
1.257413
1.258351
1.270351
1.384542
1.604111
1.604111
1.851807
2.084126
2.267132
2.385448
2.413386
2.35901
2.221193
2.004249
1.745491
1.745491
1.492733
1.297915
1.260226
1.256288
1.257601
1.266601
1.365979
1.599799
1.846369
1.846369
2.078688
2.273319
2.403073
2.424636
2.375323
2.244631
2.0365
1.775867
1.523484
1.523484
1.32004
1.262664
1.257226
1.258538
1.270164
1.372542
1.605236
1.858557
2.092189
2.092189
2.281569
2.412449
2.450137
2.401198
2.271444
2.054875
1.80418
1.53811
1.324915
1.324915
1.263601
1.257788
1.258163
1.267726
1.368792
1.590049
1.836994
2.080376
2.080376
2.279507
2.401011
2.440762
2.404386
2.27857
2.061438
1.81693
1.55386
1.339728
1.339728
1.264351
1.257601
1.257976
1.268476
1.365042
1.597174
1.842806
2.077376
2.272944
2.272944
2.405699
2.449012
2.411324
2.290195
2.077001
1.823118
1.563798
1.337291
1.265101
1.265101
1.257788
1.257413
1.266976
1.351916
1.56811
1.826493
2.067063
2.258319
2.400636
2.400636
2.441137
2.412824
2.288132
2.086939
1.838494
1.572048
1.352479
1.269414
1.259101
1.259101
1.258913
1.271851
1.379667
1.603362
1.846369
2.077564
2.278944
2.432137
2.432137
2.483888
2.458762
2.353197
2.144315
1.88162
1.598111
1.353416
1.261351
1.254976
1.254976
1.254413
1.254601
1.258163
1.286477
1.415481
1.596424
1.758804
1.878807
1.917434
1.917434
1.894933
1.858557
1.89887
1.781679
1.520109
1.288164
1.255351
1.254226
1.254601
1.254601
1.260788
1.449982
1.925309
2.334071
2.603329
2.657144
2.656769
2.656769
2.656769
2.656769
2.647018
2.540328
2.29957
2.034812
1.761054
1.548985
1.430481
1.390355
1.390355
1.435544
1.577861
1.772304
1.998436
2.233568
2.414699
2.52889
2.560016
2.527765
2.527765
2.399323
2.200005
1.935809
1.657363
1.406855
1.275039
1.259851
1.259101
1.268664
1.268664
1.333541
1.531547
1.769866
2.010811
2.224568
2.364072
2.437012
2.414136
2.303508
2.303508
2.113002
1.861557
1.603549
1.372167
1.267164
1.257601
1.256476
1.259851
1.300165
1.300165
1.477545
1.71999
1.966935
2.184629
2.336696
2.404573
2.393511
2.290007
2.290007
2.101564
1.859869
1.598486
1.364854
1.266226
1.256851
1.256101
1.258538
1.288352
1.288352
1.452419
1.704239
1.943497
2.159316
2.322821
2.390886
2.379822
2.28607
2.102127
2.102127
1.857807
1.602986
1.369729
1.265101
1.257038
1.255913
1.257788
1.281977
1.439481
1.439481
1.683051
1.935622
2.158003
2.303883
2.388635
2.384698
2.286445
2.113564
1.881057
1.881057
1.610112
1.372729
1.267726
1.256851
1.255913
1.258163
1.278977
1.431419
1.431419
1.667113
1.906933
2.126878
2.282507
2.371572
2.378697
2.283632
2.110564
1.879182
1.879182
1.612174
1.376667
1.266789
1.256663
1.255726
1.256851
1.274476
1.408918
1.648738
1.648738
1.894558
2.121065
2.280257
2.378323
2.382448
2.296945
2.119752
1.890245
1.623237
1.623237
1.38023
1.268289
1.256476
1.255163
1.256663
1.268476
1.381542
1.6298
1.878057
1.878057
2.086189
2.256069
2.353572
2.360322
2.281382
2.107752
1.872995
1.607112
1.607112
1.363354
1.266039
1.256101
1.255351
1.255913
1.264914
1.358479
1.584423
1.828556
1.828556
2.05675
2.231131
2.329571
2.336884
2.257006
2.086189
1.848994
1.583673
1.350604
1.255351
1.255351
1.254413
1.254976
1.258913
1.314415
1.530609
1.770617
1.982873
2.154816
2.253069
2.253069
2.266194
2.189129
2.026374
1.791805
1.526484
1.30879
1.257788
1.254413
1.254038
1.254038
1.254038
1.256101
1.274476
1.430856
1.683051
1.89512
2.06425
2.168316
2.182004
2.182004
2.121815
1.958122
1.721115
1.458795
1.278789
1.255726
1.254226
1.253851
1.253851
1.254226
1.254413
1.263601
1.374979
1.618549
1.850307
2.026937
2.133065
2.154441
2.154441
2.100252
1.939184
1.718302
1.461982
1.277289
1.255538
1.254413
1.254038
1.253851
1.253851
1.254601
1.262289
1.377792
1.621362
1.856119
2.041562
2.161003
2.190629
2.142815
2.142815
1.999186
1.788242
1.542235
1.31629
1.258726
1.254788
1.254038
1.254226
1.256663
1.256663
1.287227
1.485045
1.745116
1.994123
2.190254
2.308758
2.348134
2.304633
2.304633
2.165504
1.953622
1.70724
1.456357
1.285727
1.258538
1.255726
1.256663
1.266976
1.266976
1.375729
1.610112
1.865494
2.099314
2.28682
2.403823
2.434199
2.39201
2.251006
2.251006
2.036125
1.784117
1.532859
1.326041
1.264539
1.258351
1.259476
1.280102
1.417918
1.417918
1.6493
1.89362
2.130065
2.317196
2.442262
2.479763
2.434012
2.30257
2.081126
2.081126
1.820118
1.560048
1.346104
1.268101
1.259476
1.259663
1.277851
1.408543
1.408543
1.639175
1.893808
2.129128
2.320758
2.451637
2.488201
2.437949
2.303695
2.095189
2.095189
1.839056
1.579736
1.359229
1.271101
1.259476
1.260976
1.276726
1.406668
1.635612
1.635612
1.881057
2.118065
2.313633
2.442075
2.483888
2.443012
2.310446
2.094064
1.837931
1.837931
1.577298
1.354729
1.268664
1.258913
1.259101
1.272789
1.383605
1.612737
1.859682
1.859682
2.094814
2.295258
2.423887
2.46495
2.428387
2.305758
2.094064
1.840369
1.840369
1.580111
1.357916
1.267914
1.258538
1.258538
1.269039
1.360167
1.587048
1.831743
1.831743
2.070251
2.267882
2.404198
2.453325
2.422386
2.297883
2.088251
1.838306
1.575986
1.575986
1.352666
1.267164
1.258163
1.257976
1.266789
1.349291
1.560235
1.802868
2.0485
2.0485
2.255131
2.390886
2.437949
2.408324
2.293383
2.088814
1.830806
1.57186
1.350979
1.350979
1.265289
1.257226
1.257038
1.263226
1.332228
1.536422
1.784867
2.03125
2.238631
2.238631
2.377198
2.437012
2.409261
2.29507
2.093689
1.844306
1.580486
1.354541
1.354541
1.266601
1.257601
1.257038
1.262664
1.328665
1.537547
1.784679
2.025249
2.233006
2.233006
2.37851
2.438324
2.414886
2.30557
2.105127
1.858369
1.594736
1.370292
1.268101
1.268101
1.257413
1.257413
1.262101
1.318165
1.523296
1.766866
2.008186
2.21988
2.36801
2.36801
2.434574
2.417886
2.316071
2.114877
1.878432
1.612549
1.377792
1.269789
1.258163
1.258163
1.257413
1.263039
1.312728
1.514109
1.762929
2.006874
2.220443
2.37176
2.440762
2.440762
2.422011
2.315883
2.13044
1.886683
1.62155
1.388105
1.272226
1.258163
1.258163
1.257601
1.261726
1.31179
1.510546
1.752803
1.998999
2.212193
2.371572
2.443012
2.443012
2.436825
2.337634
2.146753
1.904871
1.6373
1.393917
1.271851
1.257976
1.257226
1.257226
1.260788
1.304665
1.493671
1.739116
1.989248
2.208817
2.36501
2.438699
2.429699
2.429699
2.335759
2.153128
1.915183
1.642738
1.403105
1.273914
1.258538
1.257413
1.261163
1.261163
1.303165
1.48992
1.736115
1.979685
2.203192
2.356385
2.435324
2.435887
2.435887
2.345134
2.159503
1.924934
1.659613
1.417356
1.279539
1.259663
1.257601
1.260601
1.260601
1.300915
1.47492
1.72599
1.976873
2.195879
2.356197
2.440199
2.444137
2.357322
2.357322
2.184442
1.946684
1.677426
1.435731
1.281602
1.259851
1.257601
1.260788
1.296977
1.296977
1.471732
1.713615
1.96206
2.189504
2.361072
2.443387
2.44545
2.364635
2.187817
2.187817
1.956622
1.692989
1.437419
1.280852
1.259476
1.257038
1.259663
1.291352
1.291352
1.448857
1.691489
1.937122
2.158191
2.322071
2.418636
2.418449
2.340822
2.169629
2.169629
1.930746
1.671801
1.428419
1.277664
1.257976
1.256288
1.258351
1.281602
1.441356
1.441356
1.684551
1.935434
2.161941
2.328446
2.430824
2.444137
2.36501
2.185754
1.960747
1.960747
1.702177
1.464232
1.292102
1.260788
1.257788
1.259851
1.288352
1.450544
1.689052
1.689052
1.937872
2.163441
2.335009
2.431762
2.44845
2.37926
2.214443
1.986061
1.986061
1.72074
1.471357
1.29454
1.260788
1.257976
1.260038
1.282727
1.436106
1.668426
1.668426
1.926246
2.157816
2.336884
2.43645
2.453325
2.390511
2.229818
2.006311
1.743428
1.743428
1.486545
1.302415
1.261726
1.257976
1.259851
1.285164
1.438169
1.675364
1.923809
1.923809
2.145066
2.334259
2.440574
2.458012
2.393886
2.236006
2.014749
1.754116
1.499671
1.499671
1.307102
1.262289
1.258163
1.260226
1.281039
1.422981
1.663738
1.911808
2.144315
2.144315
2.328446
2.440574
2.458575
2.406636
2.254194
2.027687
1.770804
1.515421
1.515421
1.313665
1.262664
1.257976
1.259663
1.280664
1.421668
1.662426
1.921371
2.155003
2.155003
2.343071
2.468888
2.497014
2.433449
2.275757
2.058063
1.805492
1.551422
1.340478
1.340478
1.269414
1.260226
1.260413
1.273726
1.373667
1.54861
1.73724
1.900745
2.038375
2.038375
2.108127
2.072313
1.943122
1.752616
1.48092
1.284414
1.254413
1.254038
1.254226
1.254226
1.254038
1.254413
1.256663
1.270351
1.39373
1.632425
1.957747
2.263381
2.263381
2.519702
2.653018
2.656769
2.657144
2.595829
2.336884
2.067438
1.823306
1.640863
1.640863
1.547485
1.555547
1.64855
1.80643
2.019999
2.242381
2.459325
2.582891
2.637268
2.637268
2.655081
2.614955
2.493639
2.247819
1.968248
1.680989
1.424668
1.287039
1.263601
1.263601
1.264164
1.285352
1.422418
1.644613
1.889308
2.12519
2.317196
2.441324
2.480701
2.480701
2.437574
2.299945
2.082251
1.822556
1.553485
1.329978
1.263789
1.257226
1.257226
1.257601
1.265476
1.349104
1.569048
1.820118
2.051875
2.252694
2.382635
2.429137
2.429137
2.384135
2.255694
2.044937
1.789555
1.524984
1.317415
1.261163
1.255913
1.256288
1.256288
1.261913
1.325478
1.535109
1.785054
2.026937
2.22663
2.356385
2.405511
2.369697
2.369697
2.254381
2.043812
1.788992
1.522734
1.31704
1.260976
1.256101
1.256663
1.261163
1.261163
1.310853
1.522359
1.773054
2.014936
2.221755
2.354509
2.407573
2.373822
2.373822
2.258694
2.051687
1.79818
1.536984
1.321915
1.261163
1.256288
1.256101
1.259851
1.259851
1.302977
1.507359
1.754116
1.994686
2.20488
2.345509
2.396136
2.36576
2.254944
2.254944
2.05975
1.80568
1.545047
1.321728
1.261163
1.255913
1.255726
1.258913
1.301102
1.301102
1.491796
1.745678
1.982498
2.192129
2.337634
2.393886
2.37551
2.263569
2.05975
2.05975
1.818056
1.555172
1.328478
1.261539
1.255913
1.255726
1.259101
1.293414
1.293414
1.48092
1.726928
1.964685
2.176941
2.323196
2.38526
2.360697
2.259631
2.064438
2.064438
1.81468
1.546735
1.328291
1.261539
1.255913
1.258163
1.288352
1.454294
1.710052
1.954185
1.954185
2.165504
2.310071
2.38976
2.373447
2.262632
2.069126
1.819368
1.550485
1.328291
1.328291
1.260976
1.255726
1.255163
1.257038
1.276914
1.422981
1.667113
1.909371
1.909371
2.124253
2.275382
2.339509
2.332196
2.22438
2.034062
1.775117
1.516171
1.30279
1.30279
1.257413
1.254788
1.254413
1.254976
1.262289
1.356041
1.580861
1.822368
2.03125
2.03125
2.180879
2.253819
2.237318
2.13644
1.949685
1.709115
1.434044
1.272789
1.255163
1.255163
1.254226
1.253851
1.254226
1.257038
1.294727
1.489733
1.744928
1.962622
2.117127
2.117127
2.19363
2.187067
2.088626
1.904308
1.668238
1.397668
1.265851
1.254788
1.254788
1.254038
1.253851
1.254038
1.255726
1.278414
1.452044
1.694677
1.917621
2.095001
2.095001
2.169066
2.171316
2.084314
1.908433
1.675551
1.424856
1.271851
1.255538
1.254226
1.254226
1.254038
1.254038
1.257601
1.305602
1.529672
1.784117
2.008374
2.185192
2.280632
2.280632
2.293008
2.217068
2.051687
1.826306
1.566423
1.338978
1.262664
1.255726
1.254788
1.254788
1.256288
1.269039
1.394668
1.645363
1.903371
2.134003
2.30032
2.389385
2.389385
2.408136
2.331071
2.163066
1.936184
1.676114
1.429356
1.278039
1.258726
1.257226
1.257226
1.259476
1.287227
1.452044
1.692052
1.946684
2.174316
2.343822
2.444887
2.455575
2.455575
2.371385
2.200005
1.974248
1.710427
1.464607
1.292477
1.261163
1.257976
1.261726
1.261726
1.286102
1.456732
1.70949
1.95831
2.187442
2.361072
2.461388
2.473013
2.392198
2.392198
2.22513
1.998436
1.733865
1.484295
1.299227
1.261351
1.258163
1.260038
1.260038
1.287227
1.444544
1.685864
1.942184
2.171504
2.348134
2.450512
2.4672
2.398011
2.398011
2.240881
2.003311
1.746053
1.497796
1.298477
1.261539
1.258163
1.259851
1.286852
1.286852
1.436106
1.679114
1.929621
2.151253
2.328259
2.443762
2.452762
2.382635
2.229068
2.229068
1.998999
1.736303
1.48992
1.294727
1.260601
1.257413
1.259288
1.281039
1.425793
1.425793
1.651925
1.902808
2.131002
2.310446
2.425199
2.4462
2.385823
2.236193
1.997873
1.997873
1.740991
1.490671
1.300915
1.260788
1.257038
1.257976
1.274851
1.400668
1.400668
1.631487
1.884245
2.112627
2.306133
2.419011
2.444137
2.385448
2.22588
2.004249
2.004249
1.750366
1.496671
1.300165
1.260226
1.256851
1.257601
1.270539
1.385292
1.612174
1.612174
1.863432
2.098752
2.28682
2.410386
2.436825
2.385823
2.236568
2.015311
1.756366
1.756366
1.493483
1.302227
1.260226
1.256288
1.258163
1.269601
1.362604
1.603174
1.848244
1.848244
2.078876
2.279695
2.400636
2.431574
2.386948
2.240506
2.010062
1.750741
1.750741
1.523296
1.323415
1.260788
1.256101
1.257226
1.263601
1.364667
1.606362
1.838306
1.838306
2.073063
2.268632
2.398386
2.429512
2.401948
2.275007
2.029562
1.776054
1.517296
1.517296
1.309165
1.261163
1.255913
1.257788
1.267539
1.344416
1.56961
1.829493
2.062001
2.062001
2.261507
2.391635
2.427262
2.392761
2.248756
2.048312
1.788617
1.526109
1.321353
1.321353
1.261351
1.256851
1.257038
1.265101
1.351354
1.580486
1.819368
2.055438
2.256069
2.256069
2.391823
2.4417
2.393323
2.261319
2.056
1.803243
1.542797
1.32454
1.32454
1.262101
1.256663
1.256663
1.263601
1.340103
1.561735
1.807368
2.041937
2.242943
2.242943
2.381698
2.432512
2.397636
2.278944
2.062938
1.800805
1.536609
1.324353
1.262476
1.262476
1.256476
1.256663
1.263226
1.325665
1.55386
1.79593
2.033687
2.238256
2.380948
2.380948
2.424824
2.397823
2.279695
2.085251
1.819368
1.558548
1.335041
1.263414
1.256663
1.256663
1.256476
1.261539
1.322103
1.532484
1.789367
2.032562
2.232068
2.370447
2.426512
2.426512
2.401011
2.287757
2.081876
1.830618
1.575048
1.338603
1.265289
1.256663
1.256663
1.256476
1.261726
1.31629
1.521421
1.770617
2.016812
2.22738
2.366322
2.427262
2.427262
2.404573
2.290195
2.089376
1.838869
1.572798
1.346666
1.264539
1.257413
1.257038
1.257038
1.260038
1.309727
1.518046
1.762741
2.003499
2.222505
2.365572
2.429324
2.401198
2.401198
2.30257
2.112064
1.863244
1.595299
1.365229
1.266226
1.257226
1.256851
1.261163
1.261163
1.307665
1.508109
1.756554
2.012124
2.215005
2.362947
2.433637
2.409261
2.409261
2.308946
2.115439
1.875057
1.605049
1.371979
1.267164
1.257038
1.256663
1.260413
1.260413
1.299977
1.48092
1.732178
1.98006
2.195504
2.340822
2.408511
2.394073
2.299195
2.299195
2.097626
1.853307
1.584236
1.354729
1.264914
1.256288
1.255726
1.258538
1.288727
1.288727
1.463295
1.715302
1.952497
2.171129
2.329571
2.403636
2.399136
2.305383
2.116565
2.116565
1.876745
1.611237
1.371417
1.267539
1.257413
1.256476
1.259101
1.292289
1.292289
1.47417
1.722803
1.96881
2.184067
2.344197
2.428762
2.414699
2.316446
2.142066
2.142066
1.905996
1.63355
1.394293
1.271476
1.257788
1.256851
1.259288
1.288352
1.46292
1.46292
1.704802
1.953622
2.176004
2.337821
2.430262
2.419199
2.330884
2.152003
1.917058
1.917058
1.650238
1.406668
1.272414
1.258163
1.256851
1.258913
1.285164
1.456732
1.694677
1.694677
1.949122
2.175629
2.343446
2.429324
2.437762
2.339696
2.165879
1.929621
1.664488
1.664488
1.413418
1.275601
1.257788
1.256663
1.259101
1.288352
1.454294
1.706115
1.706115
1.929996
2.164754
2.336509
2.422199
2.424636
2.349447
2.176379
1.939747
1.674051
1.674051
1.422418
1.277289
1.259476
1.256851
1.258351
1.281977
1.446982
1.675364
1.932997
1.932997
2.157441
2.332571
2.432137
2.447887
2.382073
2.218943
1.980248
1.70724
1.446232
1.446232
1.284602
1.260038
1.257413
1.259851
1.29754
1.47192
1.695052
1.921559
2.117877
2.117877
2.230193
2.268444
2.19888
2.0635
1.839619
1.533797
1.276539
1.254226
1.254226
1.254226
1.254413
1.254413
1.254413
1.254226
1.255351
1.354354
1.635425
1.848994
1.848994
1.960935
2.073813
2.173754
2.247256
2.21238
2.225505
2.167379
2.010436
1.831368
1.831368
1.662801
1.605424
1.626612
1.72824
1.927559
2.130627
2.358447
2.562453
2.632393
2.632393
2.657144
2.657144
2.624518
2.504889
2.272757
1.97931
1.682864
1.446419
1.30429
1.30429
1.269976
1.269414
1.314228
1.487483
1.716802
1.949872
2.184254
2.35901
2.35901
2.463075
2.477326
2.417511
2.265444
2.027499
1.764054
1.502483
1.305415
1.261163
1.261163
1.256663
1.257601
1.271851
1.38248
1.609737
1.856307
2.093127
2.269944
2.38526
2.38526
2.412261
2.354322
2.20563
1.978935
1.71324
1.468732
1.282164
1.258351
1.255538
1.255538
1.256476
1.263601
1.352291
1.568298
1.827993
2.064813
2.248006
2.366135
2.397073
2.397073
2.335196
2.197755
1.977248
1.719052
1.459545
1.284789
1.258351
1.255538
1.255726
1.255726
1.262101
1.338416
1.559673
1.815993
2.048687
2.236006
2.35676
2.390323
2.390323
2.344197
2.20563
1.985686
1.718678
1.462732
1.288539
1.257976
1.255538
1.255726
1.255726
1.261351
1.329416
1.802305
2.040062
2.230381
2.354134
2.393886
2.347009
2.199255
2.001998
2.001998
1.733115
1.485233
1.291727
1.258163
1.255726
1.255726
1.260976
1.32229
1.539422
1.539422
1.784117
2.014187
2.209192
2.35901
2.400073
2.341009
2.208442
1.996936
1.743428
1.743428
1.47267
1.298477
1.258538
1.255351
1.255538
1.259663
1.312353
1.516359
1.516359
1.772117
2.014561
2.211817
2.328071
2.377948
2.338384
2.210505
2.000499
1.743803
1.743803
1.47717
1.292664
1.257976
1.255163
1.255538
1.259101
1.29604
1.48467
1.743053
1.743053
1.978935
2.183692
2.324508
2.37851
2.322258
2.20413
2.004811
1.740241
1.48167
1.48167
1.292852
1.257601
1.254976
1.254976
1.257788
1.287414
1.454857
1.713615
1.951184
1.951184
2.158941
2.285882
2.341572
2.30182
2.176941
1.960372
1.71399
1.443607
1.276726
1.276726
1.256476
1.254413
1.254413
1.255351
1.267914
1.39223
1.620799
1.863244
1.863244
2.069688
2.207317
2.255506
2.228506
2.096501
1.891183
1.638425
1.372917
1.263039
1.263039
1.254788
1.254038
1.253851
1.254413
1.257976
1.317603
1.544485
1.783179
1.982686
1.982686
2.133815
2.184817
2.157066
2.044375
1.841119
1.599236
1.340478
1.259851
1.254413
1.254413
1.254038
1.254038
1.254226
1.256476
1.290789
1.48692
1.735178
1.940309
2.089376
2.089376
2.152378
2.13719
2.013624
1.825931
1.591736
1.335978
1.259476
1.254226
1.254226
1.253851
1.253851
1.254038
1.257226
1.298102
1.530609
1.785617
1.999374
2.150878
2.150878
2.232818
2.228131
2.134753
1.947059
1.714365
1.461795
1.284602
1.256851
1.254601
1.254601
1.254601
1.255726
1.271101
1.412481
1.662426
1.915371
2.135315
2.28382
2.380198
2.380198
2.35751
2.267882
2.081688
1.846744
1.589674
1.344979
1.264351
1.256476
1.255913
1.255913
1.259101
1.296977
1.468545
1.730865
1.980623
2.196067
2.358072
2.429512
2.428762
2.428762
2.323758
2.14544
1.908996
1.639738
1.398793
1.272039
1.258351
1.257038
1.257038
1.260788
1.303915
1.493483
1.739116
1.985123
2.215193
2.362572
2.446387
2.442637
2.442637
2.346259
2.165129
1.926059
1.655676
1.413981
1.276164
1.258538
1.257226
1.260226
1.260226
1.302415
1.492358
1.73199
1.981561
2.205255
2.374573
2.436074
2.440387
2.351697
2.351697
2.177879
1.935059
1.668426
1.421668
1.280289
1.259288
1.257226
1.259851
1.29754
1.29754
1.468545
1.712115
1.961872
2.187067
2.354697
2.447887
2.4447
2.357884
2.357884
2.189504
1.935247
1.673864
1.429919
1.279727
1.258913
1.256476
1.259101
1.284977
1.284977
1.455419
1.704427
1.951747
2.178066
2.349072
2.435137
2.440949
2.364822
2.189692
2.189692
1.958685
1.683989
1.440419
1.281227
1.259476
1.257038
1.259288
1.283289
1.443232
1.443232
1.688864
1.931684
2.158003
2.334821
2.418074
2.440387
2.36726
2.192317
1.956622
1.956622
1.685676
1.442107
1.281977
1.258351
1.256476
1.257976
1.278789
1.425981
1.425981
1.664301
1.920996
2.145628
2.326571
2.431199
2.434574
2.363135
2.197567
1.961497
1.961497
1.693177
1.448294
1.283852
1.258538
1.256288
1.257976
1.273539
1.415293
1.6538
1.6538
1.907121
2.14169
2.317008
2.404573
2.432324
2.364447
2.20038
1.965998
1.703864
1.703864
1.453169
1.284414
1.258726
1.256288
1.257413
1.271289
1.388667
1.637862
1.890433
1.890433
2.126503
2.300133
2.413199
2.426512
2.360697
2.202255
1.97556
1.711365
1.457857
1.457857
1.287977
1.259101
1.256101
1.257788
1.271289
1.389792
1.635425
1.890245
1.890245
2.114877
2.299008
2.409636
2.437574
2.376447
2.224943
2.002186
1.73274
1.47792
1.47792
1.294352
1.259851
1.256476
1.257788
1.271476
1.38998
1.615174
1.87487
2.105127
2.105127
2.28757
2.413199
2.441512
2.382448
2.230381
2.004436
1.737428
1.480733
1.293414
1.293414
1.260038
1.256663
1.257038
1.269039
1.377417
1.605799
1.851807
2.086939
2.279132
2.279132
2.396698
2.428387
2.381885
2.233381
2.025624
1.753366
1.502671
1.300165
1.300165
1.259663
1.256476
1.256851
1.266601
1.368979
1.597549
1.842619
2.091064
2.279882
2.279882
2.401761
2.430074
2.38451
2.243881
2.025062
1.772867
1.494233
1.30204
1.260226
1.260226
1.256288
1.256851
1.264726
1.344604
1.572986
1.832681
2.075501
2.265819
2.396698
2.396698
2.426324
2.38076
2.253256
2.038375
1.784867
1.521984
1.303352
1.261163
1.256663
1.256663
1.256851
1.263789
1.349104
1.574298
1.823306
2.057125
2.259069
2.387323
2.387323
2.428012
2.388448
2.257944
2.046062
1.788242
1.518609
1.31404
1.261913
1.256476
1.256476
1.256851
1.264351
1.339541
1.56961
1.803805
2.054875
2.256819
2.396698
2.437199
2.437199
2.403448
2.272007
2.059
1.79668
1.536609
1.327916
1.262101
1.256476
1.256851
1.256851
1.262851
1.329416
1.53961
1.80043
2.046625
2.245944
2.37926
2.424262
2.39201
2.39201
2.275007
2.056375
1.801555
1.556485
1.330353
1.261913
1.257038
1.256851
1.263601
1.263601
1.32079
1.535859
1.791242
2.032
2.245194
2.38376
2.434949
2.402698
2.402698
2.293008
2.079813
1.830618
1.57186
1.347229
1.264351
1.256663
1.256288
1.260413
1.260413
1.314415
1.520859
1.765741
2.013249
2.213505
2.36201
2.407573
2.382635
2.269944
2.269944
2.066875
1.81693
1.526297
1.324353
1.261539
1.255913
1.255726
1.259101
1.299415
1.299415
1.484483
1.746428
1.983061
2.192317
2.349072
2.408886
2.38901
2.28007
2.087126
2.087126
1.832868
1.569798
1.343479
1.263414
1.256851
1.256288
1.260226
1.306727
1.306727
1.502671
1.753366
1.998249
2.215568
2.358447
2.429512
2.402136
2.301445
2.111127
2.111127
1.860807
1.599611
1.364104
1.266414
1.257226
1.256476
1.260038
1.301477
1.494608
1.494608
1.745866
1.995248
2.209005
2.354697
2.428762
2.419761
2.328634
2.11919
1.876557
1.876557
1.613674
1.370479
1.266039
1.257038
1.256476
1.259288
1.29904
1.482983
1.735928
1.735928
1.985498
2.203942
2.353572
2.427824
2.420511
2.320571
2.134753
1.884245
1.884245
1.617987
1.38173
1.268664
1.257226
1.256476
1.258913
1.293414
1.476045
1.714177
1.714177
1.973685
2.200942
2.353947
2.425574
2.420699
2.327134
2.141503
1.898683
1.630175
1.630175
1.39448
1.271101
1.257601
1.256476
1.259476
1.288352
1.466857
1.713052
1.966185
1.966185
2.185942
2.355822
2.44995
2.451825
2.36651
2.178629
1.933934
1.663738
1.410981
1.410981
1.277476
1.259851
1.257601
1.262101
1.307477
1.472295
1.687927
1.900933
1.900933
2.087501
2.178066
2.185379
2.125377
1.981185
1.742866
1.40648
1.261351
1.254226
1.254226
1.254038
1.254413
1.254601
1.254601
1.254226
1.266226
1.427294
1.634862
1.807368
1.807368
1.991311
2.164566
2.323571
2.372885
2.465888
2.440199
2.253631
2.02825
1.795742
1.795742
1.656988
1.597549
1.619674
1.752803
1.926434
2.145253
2.377573
2.560953
2.640268
2.640268
2.657331
2.652081
2.609142
2.467763
2.19738
1.89512
1.6313
1.39073
1.39073
1.278789
1.262851
1.266789
1.322478
1.505858
1.73199
1.985686
2.186879
2.44995
2.474513
2.474513
2.393698
2.214255
1.967873
1.708365
1.453357
1.280664
1.258163
1.256101
1.257038
1.257038
1.271289
1.39448
1.626612
1.876557
2.106439
2.27857
2.373447
2.401948
2.401948
2.326384
2.162503
1.931309
1.668801
1.410231
1.271289
1.257038
1.255538
1.256101
1.256101
1.268289
1.365042
1.596611
1.850869
2.083001
2.263381
2.368197
2.38526
2.319258
2.319258
2.157629
1.928684
1.663363
1.40948
1.271289
1.256476
1.255163
1.255726
1.263976
1.263976
1.350604
1.583298
1.829493
2.065938
2.252319
2.356009
2.379072
2.317571
2.159878
2.159878
1.943872
1.675926
1.421668
1.274289
1.257038
1.255351
1.255913
1.262289
1.342166
1.342166
1.56811
1.820306
2.053
2.234318
2.351322
2.375135
2.31532
2.160628
2.160628
1.946684
1.680426
1.428981
1.274476
1.257038
1.255351
1.255538
1.260601
1.326228
1.326228
1.549922
1.800242
2.032562
2.215943
2.341947
2.370072
2.311945
2.171316
1.95006
1.95006
1.684364
1.426356
1.274101
1.256851
1.254788
1.255351
1.259851
1.314603
1.531922
1.531922
1.79218
2.012499
2.202442
2.332009
2.361259
2.311008
2.173941
1.944622
1.684176
1.684176
1.420168
1.272414
1.256288
1.254788
1.254976
1.258538
1.301102
1.498358
1.498358
1.751866
1.988311
2.176379
2.300133
2.338946
2.292445
2.153503
1.937684
1.672926
1.672926
1.410043
1.271851
1.256101
1.254413
1.254601
1.256851
1.284414
1.464795
1.705177
1.705177
1.939184
2.13719
2.259069
2.296945
2.250256
2.112439
1.896995
1.6313
1.373854
1.373854
1.263976
1.254788
1.254226
1.254038
1.254788
1.264726
1.372354
1.614049
1.847119
1.847119
2.041937
2.171129
2.217255
2.159691
2.031437
1.81543
1.554047
1.312915
1.312915
1.257601
1.254226
1.254038
1.254038
1.254226
1.257226
1.304102
1.524609
1.750741
1.750741
1.948372
2.092752
2.152003
2.095752
1.976685
1.771179
1.513734
1.292664
1.256288
1.256288
1.254038
1.253851
1.253663
1.253851
1.256101
1.285539
1.476233
1.724115
1.925684
1.925684
2.068001
2.12219
2.096314
1.970685
1.773242
1.523672
1.30429
1.257413
1.254226
1.254226
1.254038
1.253851
1.254038
1.257413
1.306915
1.532484
1.786367
2.003124
2.162691
2.162691
2.236943
2.221193
2.109627
1.918371
1.680051
1.419418
1.273726
1.256101
1.256101
1.254413
1.254601
1.255726
1.273164
1.425981
1.684739
1.930746
2.152191
2.30482
2.30482
2.37026
2.354697
2.246131
2.0575
1.816368
1.542422
1.321915
1.262101
1.256288
1.256288
1.256101
1.260038
1.306352
1.504733
1.756741
2.011749
2.221005
2.375323
2.441137
2.441137
2.424636
2.317946
2.122752
1.876932
1.607487
1.375355
1.268476
1.258163
1.257413
1.257413
1.262476
1.32454
1.534359
1.781867
2.029187
2.240693
2.38451
2.457825
2.457825
2.4477
2.339321
2.14694
1.897558
1.62605
1.389792
1.271101
1.258351
1.257601
1.257601
1.261539
1.311978
1.513546
1.763679
2.012124
2.231506
2.383385
2.458762
2.450325
2.450325
2.348134
2.158941
1.911246
1.63805
1.400855
1.274101
1.258726
1.257413
1.261913
1.261913
1.310665
1.499108
1.750554
1.999561
2.220443
2.37926
2.455387
2.4477
2.346071
2.346071
2.158191
1.915371
1.648175
1.399918
1.272226
1.258351
1.257038
1.260601
1.303165
1.303165
1.48992
1.734241
1.982873
2.208442
2.372323
2.452575
2.443387
2.354509
2.354509
2.167566
1.927746
1.658301
1.409668
1.274101
1.258351
1.256851
1.260413
1.293602
1.293602
1.46517
1.712302
1.97256
2.191754
2.355634
2.439825
2.433074
2.347384
2.163066
2.163066
1.927746
1.661301
1.413793
1.273726
1.257976
1.256663
1.259101
1.284602
1.452794
1.452794
1.699364
1.946122
2.176004
2.341384
2.432887
2.431199
2.349259
2.174879
1.939747
1.939747
1.673676
1.423918
1.276351
1.257976
1.256288
1.257976
1.281227
1.446419
1.446419
1.680614
1.930559
2.158566
2.325446
2.427636
2.439637
2.351509
2.176566
1.942184
1.942184
1.674989
1.431981
1.278977
1.258726
1.256663
1.258913
1.280102
1.430856
1.680051
1.680051
1.924559
2.156878
2.324321
2.419011
2.430262
2.358072
2.189317
1.95381
1.690552
1.690552
1.435169
1.279352
1.258351
1.256288
1.258538
1.279164
1.419606
1.660176
1.911058
1.911058
2.144691
2.319071
2.424824
2.441887
2.37101
2.203755
1.963935
1.702927
1.451107
1.451107
1.283102
1.258726
1.256476
1.257788
1.277476
1.416231
1.657926
1.906933
1.906933
2.138503
2.314571
2.418074
2.433449
2.367635
2.207692
1.973685
1.713802
1.461232
1.461232
1.287602
1.259101
1.256476
1.257976
1.275601
1.406106
1.64555
1.89737
2.128752
2.128752
2.314571
2.431949
2.443949
2.37851
2.226068
1.999749
1.73724
1.480545
1.298102
1.298102
1.260976
1.256476
1.257601
1.272039
1.396918
1.623987
1.879557
2.11769
2.296383
2.296383
2.413011
2.443199
2.386198
2.230006
2.004249
1.741553
1.48842
1.29904
1.29904
1.260413
1.256476
1.257788
1.269601
1.378917
1.609549
1.867557
2.107002
2.298258
2.298258
2.412449
2.441887
2.384135
2.236193
2.022249
1.756741
1.493296
1.30354
1.260601
1.260601
1.256476
1.257601
1.270351
1.383417
1.618549
1.865494
2.099314
2.294508
2.416386
2.416386
2.44245
2.393511
2.247819
2.029937
1.770054
1.510546
1.30429
1.260413
1.256476
1.256476
1.257601
1.268289
1.370479
1.600549
1.859119
2.088814
2.281757
2.403636
2.403636
2.439637
2.394448
2.257381
2.04175
1.775304
1.516921
1.309727
1.260788
1.256663
1.256663
1.257038
1.266414
1.351729
1.578798
1.834556
2.083376
2.275569
2.401948
2.44845
2.44845
2.402886
2.266007
2.054313
1.800055
1.540172
1.321353
1.261913
1.256476
1.256663
1.256663
1.264539
1.349854
1.57336
1.826118
2.066125
2.264694
2.403073
2.437199
2.401198
2.401198
2.278382
2.060313
1.804555
1.54861
1.328853
1.263226
1.256851
1.256851
1.256851
1.263601
1.339541
1.557235
1.81468
2.055063
2.248194
2.375698
2.421637
2.38001
2.38001
2.255881
2.051875
1.791055
1.522171
1.310477
1.260976
1.255913
1.256288
1.260788
1.260788
1.313478
1.520484
1.771179
2.015311
2.217818
2.366697
2.420887
2.393698
2.28307
2.28307
2.070626
1.821431
1.554235
1.335416
1.263226
1.256851
1.256663
1.261726
1.32304
1.32304
1.539422
1.79293
2.040437
2.245569
2.39426
2.441512
2.420699
2.300883
2.300883
2.098001
1.851244
1.585736
1.354916
1.266039
1.257226
1.256851
1.261913
1.322478
1.322478
1.536047
1.786555
2.035375
2.240881
2.388261
2.447325
2.424449
2.312133
2.108877
2.108877
1.860432
1.590986
1.356604
1.265664
1.257226
1.256851
1.262101
1.320228
1.521984
1.521984
1.776429
2.027312
2.231506
2.386385
2.45295
2.429887
2.314945
2.121252
1.867932
1.867932
1.604486
1.373479
1.268476
1.257226
1.256851
1.261913
1.313102
1.515796
1.515796
1.763679
2.006686
2.222318
2.372135
2.441887
2.428762
2.327883
2.134003
1.882745
1.882745
1.614237
1.376855
1.268101
1.257413
1.257038
1.261351
1.312353
1.502671
1.753366
1.753366
2.003686
2.226255
2.391823
2.467388
2.4672
2.177879
1.921371
1.644613
1.405168
1.276351
1.276351
1.259476
1.258538
1.266789
1.325103
1.505483
1.743053
1.962435
2.123315
2.224755
2.224755
2.238818
2.187442
2.062938
1.807743
1.500233
1.275226
1.254413
1.254038
1.254226
1.254226
1.254226
1.254038
1.263039
1.425231
1.63205
1.794992
1.990936
2.155566
2.311383
2.311383
2.413011
2.54614
2.587016
2.489888
2.259256
1.996373
1.71924
1.557047
1.557047
1.499483
1.55386
1.685301
1.910308
2.158003
2.371947
2.556266
2.620205
2.653394
2.653394
2.654519
2.576891
2.397636
2.13944
1.858744
1.577298
1.338791
1.265476
1.260788
1.260788
1.265289
1.320978
1.501171
1.73049
1.980998
2.207505
2.358447
2.455387
2.4567
2.4567
2.36426
2.178066
1.940497
1.662801
1.421668
1.274664
1.257038
1.255913
1.257601
1.257601
1.272039
1.408355
1.652113
1.899433
2.127815
2.297883
2.389385
2.399886
2.309883
2.309883
2.142066
1.899433
1.632612
1.388667
1.268664
1.256288
1.255163
1.256101
1.256101
1.269039
1.385292
1.625487
1.886308
2.101939
2.279507
2.373635
2.385448
2.314196
2.314196
2.142253
1.910308
1.640863
1.39448
1.269789
1.256476
1.255163
1.256288
1.266414
1.266414
1.369167
1.608049
1.860432
2.091251
2.274069
2.363509
2.37701
2.311196
2.142066
2.142066
1.901308
1.642363
1.394668
1.268101
1.256288
1.254976
1.255726
1.264539
1.362604
1.362604
1.586111
1.837181
2.072876
2.248569
2.361259
2.376822
2.319258
2.145066
2.145066
1.916683
1.659988
1.405355
1.270351
1.256476
1.254976
1.255726
1.262664
1.342166
1.342166
1.573735
1.833618
2.062188
2.234881
2.343259
2.368385
2.311571
2.154066
1.920621
1.920621
1.662051
1.411168
1.269601
1.256476
1.254976
1.255351
1.260601
1.338603
1.557235
1.557235
1.805118
2.042875
2.221568
2.342509
2.363322
2.299195
2.14244
1.922121
1.652488
1.652488
1.400668
1.270351
1.256101
1.254601
1.254976
1.259101
1.30954
1.520859
1.771554
1.771554
1.999186
2.185754
2.308383
2.329384
2.276882
2.132878
1.902996
1.642738
1.642738
1.385292
1.267539
1.255538
1.254413
1.254601
1.256663
1.283102
1.458795
1.710052
1.710052
1.945372
2.138878
2.251569
2.277445
2.228881
2.078501
1.854619
1.595111
1.345166
1.345166
1.260038
1.254601
1.254038
1.254038
1.254976
1.264726
1.381167
1.622862
1.854244
1.854244
2.042125
2.163816
2.198692
2.153878
2.009686
1.788617
1.523109
1.29604
1.256288
1.256288
1.254038
1.254038
1.253851
1.254226
1.258163
1.315915
1.542235
1.780929
1.780929
1.96956
2.098939
2.13494
2.093502
1.965247
1.747553
1.488045
1.284789
1.255726
1.255726
1.254038
1.253851
1.253851
1.253851
1.257038
1.30579
1.520484
1.760679
1.955497
1.955497
2.088439
2.136815
2.099876
1.982873
1.775492
1.514109
1.300727
1.257226
1.254226
1.254226
1.254038
1.253663
1.254413
1.260038
1.352104
1.600174
1.843931
2.064438
2.22063
2.22063
2.276132
2.242381
2.125377
1.924746
1.679864
1.424293
1.274289
1.256101
1.256101
1.254601
1.254788
1.257413
1.293789
1.484295
1.750178
1.990748
2.206567
2.351509
2.351509
2.406261
2.38301
2.274444
2.078314
1.822181
1.564173
1.340103
1.264726
1.257413
1.257413
1.257038
1.263789
1.338978
1.55461
1.815805
2.061063
2.266569
2.408886
2.470575
2.470575
2.446012
2.335384
2.125377
1.875807
1.614612
1.381917
1.271664
1.258351
1.258351
1.258351
1.266789
1.353041
1.564735
1.817118
2.070063
2.281569
2.425949
2.488389
2.469263
2.469263
2.357135
2.163816
1.906183
1.636737
1.400105
1.273914
1.259476
1.258726
1.258726
1.267539
1.352291
1.565673
1.814493
2.0665
2.281945
2.426887
2.485389
2.468138
2.468138
2.363509
2.162503
1.912558
1.645175
1.40723
1.277664
1.259663
1.258351
1.265289
1.265289
1.336166
1.548235
1.797242
2.040062
2.254194
2.409074
2.475075
2.455762
2.352634
2.352634
2.151816
1.902996
1.636362
1.400105
1.273914
1.259101
1.257976
1.263039
1.324915
1.324915
1.526859
1.770054
2.017749
2.236756
2.395948
2.46645
2.450137
2.350759
2.350759
2.162691
1.913308
1.639175
1.395418
1.272226
1.258538
1.257038
1.260788
1.30879
1.30879
1.500233
1.744366
1.990186
2.214255
2.377198
2.447887
2.438699
2.346259
2.156503
2.156503
1.906558
1.644988
1.400293
1.273539
1.257413
1.256288
1.259101
1.291164
1.461607
1.461607
1.711552
1.959997
2.179191
2.341759
2.435137
2.432324
2.344759
2.158753
1.916683
1.916683
1.648738
1.409293
1.274289
1.258351
1.256476
1.258913
1.291352
1.46817
1.46817
1.714927
1.963372
2.188754
2.355822
2.444512
2.442262
2.352259
2.174504
1.932059
1.932059
1.665051
1.419981
1.276351
1.258351
1.256288
1.258913
1.286102
1.451107
1.700114
1.700114
1.958122
2.182942
2.349259
2.437574
2.434949
2.359947
2.185754
1.945559
1.678364
1.678364
1.425793
1.276914
1.258538
1.256663
1.258726
1.283477
1.440044
1.688302
1.942184
1.942184
2.165691
2.345884
2.445637
2.455575
2.379072
2.20713
1.967498
1.702177
1.445294
1.445294
1.282539
1.259288
1.256851
1.259101
1.284602
1.439106
1.689052
1.946684
1.946684
2.176191
2.346071
2.441887
2.454262
2.383198
2.218005
1.984186
1.71249
1.460482
1.460482
1.287977
1.259851
1.256851
1.258726
1.280289
1.430294
1.672176
1.927559
2.158191
2.158191
2.337446
2.445075
2.457638
2.383198
2.221755
1.988873
1.722053
1.46742
1.292102
1.292102
1.260038
1.256851
1.258351
1.279914
1.436481
1.679301
1.931309
2.156316
2.332571
2.332571
2.443949
2.459888
2.394448
2.246131
2.022249
1.751866
1.500233
1.306727
1.306727
1.261726
1.257413
1.259476
1.280664
1.427106
1.667113
1.914058
2.152003
2.336509
2.336509
2.448262
2.47095
2.407948
2.254756
2.026374
1.762554
1.497983
1.302415
1.261351
1.261351
1.257038
1.257788
1.273164
1.395793
1.638238
1.89212
2.12294
2.305383
2.416386
2.416386
2.441512
2.38451
2.234318
2.013249
1.749991
1.484483
1.296977
1.259851
1.256288
1.256288
1.256851
1.268101
1.376855
1.615737
1.866619
2.108502
2.298258
2.419011
2.419011
2.453887
2.401386
2.259256
2.031625
1.770429
1.512796
1.313853
1.262664
1.257413
1.257413
1.258726
1.271664
1.389417
1.629425
1.87937
2.118252
2.310071
2.436825
2.464013
2.464013
2.414886
2.276507
2.058063
1.792742
1.527234
1.31779
1.263039
1.257601
1.258163
1.258163
1.269976
1.38098
1.616674
1.875245
2.117315
2.317008
2.443012
2.473575
2.432699
2.432699
2.295445
2.075126
1.817493
1.55386
1.336353
1.264351
1.257976
1.258538
1.270914
1.270914
1.383042
1.605049
1.860244
2.11094
2.311008
2.427449
2.470201
2.428012
2.428012
2.29732
2.083938
1.826681
1.563235
1.342728
1.266601
1.257601
1.258163
1.267914
1.267914
1.363917
1.591924
1.848806
2.088064
2.291132
2.424824
2.469263
2.442824
2.315508
2.315508
2.101564
1.839431
1.56886
1.348166
1.267351
1.257976
1.257976
1.267914
1.364104
1.364104
1.588736
1.840556
2.088064
2.288132
2.435137
2.500201
2.4687
2.348884
2.147878
2.147878
1.615174
1.370479
1.270164
1.260038
1.260413
1.275601
1.402168
1.627925
1.858369
1.858369
2.069501
2.246694
2.331071
2.311945
2.212568
2.048125
1.793492
1.48317
1.266976
1.266976
1.254038
1.254038
1.254413
1.254226
1.254226
1.254038
1.323415
1.656426
1.894183
1.894183
2.055625
2.182004
2.225505
2.30107
2.30632
2.270882
2.272007
2.164004
1.956622
1.956622
1.756554
1.606924
1.585923
1.654926
1.804555
2.012686
2.259444
2.490826
2.490826
2.610455
2.657144
2.657144
2.657331
2.613267
2.416386
2.14544
1.852931
1.574298
1.574298
1.362417
1.278227
1.267726
1.281227
1.398605
1.614424
1.845056
2.086751
2.280632
2.280632
2.430449
2.493076
2.471325
2.359385
2.158003
1.905621
1.636362
1.394668
1.271101
1.271101
1.258351
1.257038
1.261539
1.31329
1.503233
1.746803
1.989811
2.211067
2.36501
2.36501
2.438887
2.418824
2.316821
2.121627
1.878057
1.602424
1.359041
1.265289
1.256663
1.256663
1.255726
1.259101
1.292102
1.47042
1.72149
1.967685
2.195129
2.347197
2.347197
2.423136
2.413949
2.323946
2.119565
1.879182
1.608987
1.360541
1.265101
1.256851
1.256851
1.255913
1.257976
1.287227
1.457482
1.701989
1.960935
2.159128
2.346822
2.418636
2.418636
2.410761
2.310633
2.131752
1.89362
1.617612
1.375542
1.266976
1.256476
1.255538
1.255538
1.257788
1.282352
1.441356
1.689989
1.936934
2.160441
2.323758
2.409448
2.410573
2.410573
2.324134
2.140753
1.898495
1.623987
1.38398
1.267351
1.256851
1.255726
1.255726
1.257601
1.276914
1.428419
1.671988
1.918746
2.149191
2.315133
2.412449
2.400448
2.400448
2.314758
2.144503
1.905621
1.642175
1.390543
1.268851
1.257038
1.255538
1.256851
1.256851
1.272414
1.409855
1.657551
1.911058
2.134378
2.303695
2.400448
2.407198
2.323571
2.323571
2.151816
1.916871
1.6463
1.39973
1.269414
1.256663
1.255351
1.256663
1.271476
1.271476
1.399168
1.638425
1.893433
2.12144
2.292445
2.383385
2.392948
2.319446
2.319446
2.151628
1.917434
1.647238
1.394293
1.270164
1.256663
1.254976
1.256101
1.266039
1.266039
1.370104
1.608237
1.859494
2.082626
2.257006
2.351134
2.360884
2.291132
2.123315
2.123315
1.887433
1.612174
1.360541
1.262289
1.255351
1.254413
1.254601
1.259101
1.313478
1.313478
1.528734
1.770992
1.993748
2.169254
2.276695
2.28307
2.206005
2.045125
1.81543
1.81543
1.548797
1.313478
1.258163
1.254413
1.254038
1.254038
1.255538
1.274476
1.274476
1.436106
1.679676
1.907871
2.096876
2.204692
2.218193
2.154441
1.998623
1.770804
1.770804
1.498921
1.291914
1.256476
1.254226
1.254038
1.253851
1.254601
1.264726
1.384542
1.384542
1.64105
1.869619
2.055063
2.167941
2.195879
2.145815
1.994311
1.772679
1.514109
1.514109
1.297352
1.256851
1.254413
1.254226
1.254038
1.255351
1.271476
1.427294
1.691677
1.691677
1.929059
2.13719
2.263007
2.29957
2.264132
2.114877
1.901495
1.650613
1.650613
1.399168
1.269976
1.256288
1.254788
1.255538
1.260788
1.334666
1.56361
1.826681
1.826681
2.069126
2.269944
2.392573
2.435137
2.380573
2.246319
2.033875
1.779992
1.526109
1.526109
1.311603
1.261726
1.256851
1.257601
1.270726
1.386792
1.624925
1.887808
2.12519
2.12519
2.326759
2.449012
2.482763
2.441137
2.303695
2.086001
1.829493
1.57261
1.349104
1.349104
1.267726
1.258913
1.259663
1.276164
1.404605
1.636362
1.888933
2.130065
2.329946
2.329946
2.461763
2.502826
2.46045
2.311571
2.101564
1.839806
1.573923
1.358479
1.358479
1.268476
1.258913
1.259288
1.275039
1.395605
1.624737
1.878245
2.127065
2.325821
2.325821
2.462513
2.505264
2.464575
2.328446
2.117315
1.862494
1.596049
1.363542
1.269976
1.269976
1.258538
1.259288
1.272039
1.37948
1.609174
1.865869
2.106814
2.306508
2.4417
2.4417
2.494014
2.459512
2.332759
2.119377
1.865494
1.597361
1.363167
1.268476
1.258726
1.258726
1.258163
1.268851
1.362979
1.591924
1.845806
2.084314
2.287382
2.432887
2.432887
2.478826
2.4537
2.330321
2.127815
1.867932
1.611612
1.363917
1.268476
1.258163
1.258163
1.257976
1.265101
1.347041
1.556672
1.804368
2.053188
2.255506
2.401198
2.465513
2.465513
2.44695
2.314758
2.113189
1.862307
1.588173
1.352291
1.266414
1.256663
1.256101
1.256101
1.259663
1.308227
1.498358
1.756366
1.993186
2.197005
2.348509
2.419949
2.388073
2.388073
2.282507
2.085251
1.833993
1.56511
1.342916
1.262101
1.256288
1.256288
1.256288
1.258726
1.297915
1.502296
1.746616
1.995248
2.219693
2.351884
2.432887
2.424449
2.424449
2.312883
2.105127
1.868495
1.582736
1.351729
1.264351
1.257601
1.256476
1.260226
1.260226
1.301852
1.482608
1.733678
1.997873
2.204505
2.367822
2.440199
2.419949
2.320946
2.320946
2.142066
1.872245
1.610674
1.366542
1.265851
1.257038
1.257976
1.259101
1.30054
1.30054
1.496671
1.73049
1.986436
2.214255
2.37401
2.441512
2.4417
2.326759
2.326759
2.141503
1.900745
1.6463
1.385105
1.274476
1.258163
1.256663
1.259663
1.303915
1.303915
1.473607
1.731428
1.987561
2.205067
2.360884
2.458762
2.441887
2.352259
2.172066
2.172066
1.909558
1.642363
1.40648
1.270914
1.258351
1.257226
1.258351
1.289102
1.478295
1.478295
1.71624
1.966185
2.202442
2.360884
2.445075
2.443387
2.369697
2.170754
1.942184
1.942184
1.655676
1.414356
1.274476
1.259851
1.256476
1.260601
1.290039
1.461607
1.461607
1.700864
1.96581
2.177879
2.353947
2.44695
2.443012
2.358634
2.199442
1.939184
1.939184
1.676676
1.420918
1.275414
1.258163
1.257788
1.258726
1.287789
1.459732
1.697114
1.697114
1.953622
2.180504
2.354134
2.445637
2.469075
2.374197
2.199442
1.969185
1.709865
1.709865
1.439856
1.285164
1.259101
1.256476
1.259288
1.289852
1.444169
1.701427
1.950435
1.950435
2.166816
2.343071
2.4567
2.456137
2.389948
2.214443
1.97031
1.707802
1.707802
1.466295
1.286102
1.259101
1.257601
1.258163
1.282352
1.451857
1.682489
1.930934
1.930934
2.177129
2.335196
2.445262
2.469075
2.399698
2.220068
1.993561
1.71624
1.457669
1.457669
1.288352
1.262289
1.256476
1.259851
1.279164
1.421106
1.671239
1.933934
2.151066
2.151066
2.345509
2.456137
2.463075
2.401948
2.254194
2.004436
1.740803
1.476983
1.293414
1.293414
1.260038
1.258538
1.258726
1.278977
1.431044
1.661676
1.920059
2.160628
2.349822
2.349822
2.454075
2.476763
2.402886
2.243506
2.026374
1.758804
1.492358
1.30729
1.30729
1.261163
1.256476
1.259288
1.274851
1.389042
1.64405
1.897933
2.122752
2.318321
2.318321
2.437574
2.459512
2.409074
2.251381
2.018124
1.758804
1.500421
1.298477
1.260413
1.260413
1.257413
1.257226
1.270726
1.400855
1.6403
1.881807
2.127065
2.305383
2.432699
2.432699
2.477701
2.423699
2.278944
2.059563
1.790117
1.518796
1.331103
1.263039
1.257413
1.257413
1.259476
1.274101
1.395793
1.642925
1.89212
2.13119
2.327696
2.447887
2.447887
2.478451
2.437387
2.295633
2.062188
1.807743
1.55011
1.322665
1.263976
1.258726
1.271664
1.271664
1.397105
1.615924
1.865682
2.117502
2.305195
2.434574
2.477138
2.423887
2.28307
2.28307
2.091439
1.819931
1.544485
1.332791
1.264351
1.257038
1.259288
1.267914
1.368604
1.368604
1.604861
1.866807
2.092376
2.30407
2.429324
2.467388
2.428949
2.30482
2.077751
2.077751
1.827806
1.559673
1.335603
1.264164
1.258351
1.256851
1.265851
1.375729
1.593424
1.593424
1.842806
2.096314
2.288695
2.422574
2.486701
2.435887
2.303133
2.088626
2.088626
1.836619
1.566235
1.358479
1.266039
1.257788
1.259476
1.272226
1.377417
1.618924
1.618924
1.867932
2.106252
2.304258
2.433262
2.494389
2.475638
2.360322
2.142815
1.883682
1.883682
1.602986
1.335603
1.259476
1.255351
1.254226
1.254038
1.256851
1.264726
1.341791
1.341791
1.514109
1.6508
1.761241
1.802493
1.70649
1.56886
1.420356
1.350416
1.294915
1.294915
1.259663
1.254413
1.253851
1.254038
1.254976
1.290414
1.576923
2.049438
2.049438
2.491388
2.654331
2.656769
2.656769
2.656769
2.656956
2.603517
2.367072
2.065563
2.065563
1.802493
1.598861
1.476045
1.437794
1.485608
1.630362
1.831181
2.072501
2.302195
2.302195
2.484451
2.588704
2.575579
2.584391
2.457075
2.247069
1.98231
1.674239
1.441731
1.441731
1.283102
1.259851
1.259663
1.267351
1.342916
1.565673
1.808305
2.048875
2.273507
2.273507
2.422761
2.479388
2.450887
2.355259
2.139253
1.888933
1.6253
1.371042
1.266976
1.266976
1.258913
1.256288
1.259476
1.30429
1.493108
1.735928
2.004624
2.212943
2.212943
2.36876
2.43945
2.420699
2.320946
2.140565
1.878432
1.605049
1.372917
1.266976
1.266976
1.256288
1.257038
1.258726
1.286664
1.46742
1.721115
1.97406
2.188192
2.351509
2.351509
2.427262
2.411886
2.323196
2.120502
1.885558
1.6283
1.376667
1.266601
1.257413
1.257413
1.255726
1.257788
1.291914
1.444357
1.700677
1.951372
2.173941
2.338946
2.432887
2.432887
2.416386
2.328821
2.154441
1.899621
1.626987
1.39373
1.268289
1.257226
1.257226
1.256476
1.258538
1.282727
1.454482
1.694114
1.947247
2.168129
2.338196
2.419949
2.419949
2.419761
2.337634
2.158191
1.917058
1.658488
1.39973
1.269601
1.258538
1.255913
1.255913
1.257976
1.284977
1.432919
1.678551
1.945184
2.159503
2.334634
2.434574
2.443012
2.443012
2.350384
2.186317
1.933934
1.665988
1.414731
1.273351
1.256851
1.256663
1.257038
1.257038
1.272226
1.409293
1.662426
1.913683
2.153316
2.324134
2.417136
2.420511
2.420511
2.352634
2.170941
1.932246
1.670864
1.419418
1.273726
1.257413
1.255913
1.256851
1.256851
1.275976
1.401793
1.641613
1.904683
2.12819
2.302195
2.410573
2.417699
2.342322
2.342322
2.175066
1.930371
1.660176
1.410231
1.272226
1.256663
1.255351
1.256663
1.264351
1.264351
1.369729
1.611987
1.830618
2.074188
2.263757
2.355259
2.367822
2.313071
2.13344
2.13344
1.890433
1.6298
1.360729
1.262664
1.256288
1.254226
1.254601
1.259476
1.305977
1.305977
1.500233
1.768366
1.990373
2.162316
2.273694
2.293383
2.224943
2.074188
2.074188
1.824056
1.549922
1.322103
1.258913
1.254413
1.254226
1.254226
1.255538
1.273539
1.273539
1.434794
1.674614
1.907683
2.101939
2.212568
2.238818
2.179754
2.017749
1.790117
1.790117
1.533984
1.30279
1.256851
1.254413
1.253851
1.254038
1.255913
1.264914
1.400855
1.400855
1.657176
1.896058
2.071188
2.21088
2.235443
2.183879
2.046625
1.827806
1.562673
1.562673
1.334666
1.260976
1.254601
1.254226
1.254601
1.256476
1.290414
1.489358
1.489358
1.747366
1.984936
2.196255
2.320383
2.351509
2.339884
2.177129
1.969185
1.723553
1.723553
1.449607
1.280289
1.259851
1.255538
1.256663
1.267351
1.358479
1.590236
1.863807
1.863807
2.104752
2.287945
2.424074
2.4732
2.427824
2.30557
2.068001
1.802868
1.54711
1.54711
1.341416
1.263601
1.258163
1.259101
1.270539
1.397855
1.640488
1.890245
2.12594
2.12594
2.334446
2.455387
2.492514
2.462513
2.314945
2.101377
1.853119
1.57261
1.349104
1.349104
1.269789
1.258726
1.259288
1.277851
1.381917
1.620987
1.887808
2.120127
2.120127
2.323571
2.470763
2.505826
2.46345
2.342696
2.127627
1.855557
1.606362
1.369542
1.369542
1.267351
1.259288
1.260601
1.269414
1.38548
1.626425
1.860244
2.106439
2.323008
2.323008
2.447887
2.495514
2.488763
2.339134
2.134565
1.891558
1.601299
1.365229
1.274476
1.274476
1.258913
1.258351
1.273164
1.367479
1.595111
1.871682
2.096314
2.309695
2.309695
2.455387
2.511077
2.469826
2.362385
2.147503
1.887433
1.621737
1.39448
1.270539
1.270539
1.258726
1.259476
1.266789
1.358104
1.597361
1.839994
2.073813
2.31232
2.442637
2.442637
2.500576
2.489513
2.363322
2.13944
1.915934
1.62305
1.38023
1.272789
1.259101
1.259101
1.257601
1.268851
1.348729
1.573173
1.824806
2.069126
2.272569
2.434387
2.494951
2.494951
2.467013
2.361634
2.159878
1.896433
1.633362
1.393355
1.270164
1.258538
1.260601
1.260601
1.260788
1.328103
1.560798
1.799867
2.052438
2.271444
2.407386
2.483888
2.483888
2.500014
2.361822
2.154066
1.916308
1.640112
1.39223
1.275226
1.258351
1.257413
1.257413
1.264164
1.325478
1.525921
1.790117
2.036125
2.245944
2.407386
2.479201
2.466638
2.466638
2.376447
2.176566
1.923996
1.657738
1.417918
1.274101
1.258913
1.258726
1.261539
1.261539
1.318353
1.538297
1.776992
2.027124
2.269757
2.407386
2.483138
2.483326
2.37626
2.37626
2.185567
1.956435
1.673864
1.430856
1.285352
1.260601
1.259101
1.265101
1.265101
1.327916
1.530609
1.79743
2.0515
2.272007
2.442075
2.520077
2.516327
2.427074
2.427074
2.244444
2.000686
1.721678
1.47342
1.293977
1.262664
1.259851
1.267539
1.334853
1.334853
1.536609
1.791055
2.042125
2.264694
2.434762
2.520264
2.512389
2.436825
2.245756
2.245756
2.005561
1.735178
1.485608
1.301665
1.262289
1.259101
1.264726
1.321915
1.522171
1.522171
1.772117
2.021124
2.248944
2.417699
2.509014
2.506764
2.428762
2.248756
2.248756
2.018499
1.73574
1.477545
1.298852
1.262664
1.258726
1.263601
1.306915
1.485045
1.485045
1.750928
2.009686
2.236381
2.398011
2.500952
2.502826
2.419574
2.249506
2.009499
2.009499
1.734803
1.48692
1.303352
1.262101
1.257788
1.261539
1.30204
1.485233
1.740991
1.740991
1.976123
2.209192
2.386948
2.492514
2.501326
2.426324
2.258319
2.017374
1.745116
1.745116
1.490671
1.30429
1.262289
1.258163
1.260226
1.290977
1.451107
1.697864
1.936372
1.936372
2.152003
2.318133
2.417699
2.429699
2.355259
2.175629
1.96206
1.679301
1.679301
1.40798
1.275226
1.259101
1.255163
1.257413
1.271851
1.390355
1.6253
1.906933
1.906933
2.139815
2.313633
2.432324
2.450137
2.38151
2.244069
2.001061
1.72674
1.475857
1.475857
1.281227
1.258913
1.257788
1.259476
1.270351
1.404418
1.638613
1.897558
2.133815
2.133815
2.329384
2.437387
2.466825
2.401573
2.244819
2.022249
1.775867
1.496296
1.30354
1.30354
1.262476
1.256851
1.258913
1.413418
1.656426
1.924746
2.146378
2.345321
2.475638
2.475638
2.496826
2.445825
2.30782
2.073063
1.814118
1.557235
1.341791
1.267539
1.260413
1.260413
1.263414
1.289664
1.449232
1.693177
1.947059
2.192504
2.381885
2.506202
2.53264
2.53264
2.480138
2.330508
2.105502
1.846931
1.581611
1.353791
1.269226
1.260038
1.261163
1.261163
1.285539
1.429919
1.674426
1.933559
2.176004
2.365197
2.492701
2.534702
2.534702
2.492326
2.348134
2.117877
1.861369
1.577486
1.359604
1.267914
1.258538
1.259663
1.259663
1.276914
1.407605
1.6463
1.887245
2.142628
2.338571
2.468138
2.498701
2.443762
2.443762
2.309695
2.099689
1.822368
1.55611
1.337103
1.264164
1.257413
1.257601
1.268289
1.268289
1.369917
1.609549
1.869432
2.108502
2.314945
2.4582
2.500014
2.453887
2.327134
2.327134
2.101189
1.839994
1.581048
1.356041
1.268101
1.258726
1.258913
1.270726
1.382292
1.382292
1.612174
1.866057
2.107377
2.310633
2.454262
2.504514
2.470013
2.355072
2.355072
2.140753
1.87937
1.608424
1.374792
1.271101
1.259288
1.259476
1.272414
1.380605
1.380605
1.606924
1.858182
2.101377
2.306883
2.461763
2.513327
2.481076
2.359572
2.145253
2.145253
1.88912
1.623987
1.38098
1.272226
1.259288
1.258351
1.267914
1.371042
1.595861
1.595861
1.847119
2.099314
2.310821
2.459137
2.516327
2.490826
2.375323
2.161941
1.909558
1.909558
1.637112
1.400105
1.275601
1.259288
1.258913
1.267914
1.358104
1.580298
1.580298
1.834369
2.080564
2.303508
2.448825
2.513327
2.492326
2.377948
2.171691
1.920434
1.920434
1.652488
1.40648
1.275789
1.259663
1.259101
1.267539
1.347229
1.565298
1.822368
1.822368
2.078688
2.30482
2.466075
2.53789
2.522139
2.415636
2.221193
1.951747
1.675551
1.675551
1.444544
1.293039
1.263601
1.262664
1.273914
1.363917
1.554985
1.767429
1.955685
1.955685
2.101564
2.179941
2.196442
2.115627
1.944997
1.665988
1.374417
1.257788
1.257788
1.254038
1.254226
1.254413
1.254413
1.254038
1.255913
1.297165
1.478108
1.691489
1.691489
1.910308
2.182379
2.395198
2.517077
2.619455
2.62733
2.509952
2.260194
2.008374
2.008374
1.788055
1.650988
1.606549
1.652113
1.780367
1.97931
2.215755
2.447137
2.597329
2.597329
2.657331
2.657144
2.657331
2.625268
2.490826
2.201317
1.896058
1.627925
1.393917
1.393917
1.282914
1.267914
1.281977
1.38098
1.584986
1.823681
2.071938
2.287007
2.287007
2.456887
2.539577
2.538827
2.4447
2.256631
2.012311
1.730865
1.470607
1.292289
1.292289
1.260601
1.257976
1.261726
1.302977
1.48692
1.735365
1.983248
2.21088
2.38076
2.38076
2.481638
2.481263
2.397823
2.219693
1.976873
1.705364
1.451669
1.284977
1.259288
1.259288
1.256851
1.258913
1.292289
1.467232
1.710802
1.963372
2.194754
2.367072
2.466263
2.466263
2.470763
2.390511
2.20938
1.975748
1.708927
1.453357
1.282727
1.259101
1.256663
1.256663
1.259101
1.284039
1.442482
1.685489
1.945184
2.174879
2.346822
2.455575
2.455575
2.463263
2.395386
2.221943
1.987186
1.719802
1.465732
1.284414
1.258913
1.256663
1.256663
1.258163
1.278977
1.431981
1.674239
1.927184
2.165504
2.347197
2.445075
2.4567
2.4567
2.388635
2.229068
1.995248
1.721115
1.463857
1.286852
1.259101
1.256663
1.258351
1.258351
1.275414
1.419418
1.662238
1.914058
2.139253
2.325634
2.445262
2.46195
2.392948
2.392948
2.227943
1.998811
1.73049
1.468545
1.289477
1.259476
1.256476
1.257226
1.257226
1.272414
1.39898
1.630925
1.884807
2.12369
2.325821
2.435137
2.450137
2.38601
2.38601
2.226068
1.995623
1.735365
1.46892
1.287039
1.258538
1.255913
1.256476
1.267726
1.267726
1.37423
1.611987
1.865682
2.103439
2.300133
2.419011
2.444887
2.387323
2.242006
2.242006
2.011936
1.738178
1.473607
1.289289
1.258538
1.255538
1.255726
1.263226
1.344791
1.344791
1.570735
1.823493
2.05975
2.250444
2.376447
2.396698
2.342322
2.194942
2.194942
1.964685
1.688676
1.430294
1.274289
1.255913
1.254601
1.254601
1.257226
1.293227
1.293227
1.48467
1.738366
1.975185
2.167191
2.290945
2.313071
2.261132
2.12069
1.888745
1.888745
1.617049
1.365042
1.262101
1.254788
1.254038
1.254226
1.255163
1.267164
1.39598
1.39598
1.648738
1.896433
2.082251
2.206755
2.248944
2.200005
2.068751
1.854057
1.592486
1.592486
1.338041
1.259663
1.254413
1.253851
1.254038
1.254788
1.262851
1.356979
1.600736
1.600736
1.845619
2.048312
2.185004
2.235068
2.204692
2.070813
1.856869
1.596986
1.596986
1.343666
1.261351
1.254601
1.254226
1.254038
1.254788
1.265476
1.395605
1.659426
1.659426
1.909933
2.11394
2.274632
2.326571
2.304633
2.194379
1.990748
1.746616
1.48542
1.48542
1.297352
1.258913
1.255351
1.255726
1.260226
1.31479
1.524984
1.785429
2.039687
2.039687
2.253256
2.399886
2.4582
2.440949
2.317008
2.113564
1.858744
1.590799
1.359416
1.359416
1.268476
1.258163
1.258163
1.266789
1.359041
1.583673
1.845619
2.100814
2.100814
2.311008
2.450887
2.519139
2.497389
2.386385
2.174129
1.920246
1.654363
1.413793
1.413793
1.279352
1.260976
1.260413
1.272414
1.372354
1.603924
1.852182
2.100627
2.310258
2.310258
2.461388
2.52739
2.506202
2.396886
2.196442
1.941809
1.668238
1.425231
1.280102
1.280102
1.261539
1.259851
1.269976
1.364104
1.586673
1.837556
2.083376
2.30482
2.459512
2.459512
2.524577
2.502451
2.399136
2.202817
1.95681
1.684551
1.435544
1.281414
1.281414
1.260226
1.260226
1.268476
1.355854
1.576923
1.833431
2.079438
2.296757
2.454825
2.454825
2.53339
2.513702
2.412824
2.223068
1.966185
1.695052
1.443419
1.284414
1.260788
1.260788
1.259288
1.266226
1.340853
1.549735
1.800242
2.055625
2.276507
2.440199
2.516889
2.516889
2.512577
2.412074
2.223255
1.975185
1.700114
1.454107
1.287789
1.260976
1.258726
1.258726
1.263976
1.32379
1.530797
1.78693
2.040437
2.261319
2.430262
2.51614
2.51614
2.500764
2.414511
2.228506
1.982498
1.709302
1.458607
1.293227
1.261539
1.258726
1.258726
1.264539
1.32004
1.515046
1.766679
2.023374
2.252881
2.415449
2.502826
2.505264
2.505264
2.414136
2.232068
1.986623
1.704802
1.452982
1.288352
1.260788
1.258538
1.262101
1.262101
1.308977
1.505483
1.750741
1.997873
2.239193
2.405699
2.501514
2.504326
2.415261
2.415261
2.240318
2.004249
1.72974
1.468357
1.292852
1.260601
1.258163
1.261913
1.31029
1.31029
1.493296
1.736115
1.992061
2.223443
2.397636
2.496076
2.500952
2.421824
2.421824
2.253819
2.017561
1.739491
1.479983
1.298102
1.260976
1.257976
1.261351
1.30129
1.30129
1.476045
1.718865
1.974248
2.211255
2.383573
2.488576
2.498514
2.431949
2.262257
2.262257
2.030312
1.757304
1.505483
1.304852
1.262101
1.258351
1.260601
1.292477
1.46367
1.46367
1.710427
1.966185
2.20113
2.386198
2.496451
2.509577
2.441512
2.277632
2.046438
2.046438
1.774929
1.514859
1.314978
1.262289
1.258351
1.260413
1.288539
1.450919
1.450919
1.697677
2.190067
2.37101
2.488951
2.512764
2.450887
2.284757
2.048687
1.778304
1.519546
1.519546
1.314228
1.263601
1.258163
1.260413
1.287977
1.447919
1.689614
1.942372
2.178254
2.178254
2.36651
2.489326
2.506576
2.443949
2.295445
2.068938
1.796305
1.54336
1.326791
1.326791
1.263601
1.258163
1.260038
1.280664
1.431794
1.671614
1.927371
2.165691
2.354884
2.354884
2.477888
2.506202
2.452387
2.30407
2.076438
1.807555
1.545985
1.331103
1.266414
1.266414
1.258726
1.259851
1.279164
1.426731
1.662426
1.919871
2.166254
2.355822
2.355822
2.479201
2.517077
2.468325
2.315133
2.095376
1.836994
1.565298
1.343104
1.265664
1.265664
1.258351
1.259663
1.279164
1.409105
1.64855
1.909183
2.144128
2.347947
2.475263
2.475263
2.509577
2.465138
2.326196
2.104564
1.841869
1.574673
1.347791
1.266601
1.258726
1.258726
1.259288
1.276914
1.408543
1.636925
1.899245
2.141315
2.340822
2.471138
2.516889
2.516889
2.474325
2.341384
2.11619
1.853494
1.584611
1.350416
1.266414
1.258538
1.258538
1.259288
1.272039
1.39148
1.622487
1.877682
2.122752
2.322821
2.46045
2.508077
2.508077
2.466825
2.331259
2.110564
1.845431
1.545797
1.315353
1.262851
1.254976
1.255163
1.255163
1.259851
1.315353
1.519921
1.79368
2.03125
2.237693
2.394823
2.456512
2.416761
2.416761
2.308196
2.091064
1.823681
1.557423
1.341791
1.262289
1.257226
1.257226
1.261913
1.261913
1.333353
1.571673
1.811118
2.068563
2.28532
2.425199
2.474513
2.4642
2.334259
2.334259
2.130815
1.876557
1.588173
1.356041
1.267914
1.258351
1.257226
1.266976
1.266976
1.333166
1.54411
1.804368
2.059563
2.260756
2.421449
2.471513
2.453325
2.345134
2.345134
2.153691
1.894745
1.6328
1.396355
1.274289
1.259101
1.259101
1.270351
1.368604
1.368604
1.588923
1.845244
2.092001
2.305195
2.46495
2.53564
2.524202
2.406636
2.195879
2.195879
1.942372
1.677801
1.439856
1.289289
1.262101
1.260976
1.271476
1.368979
1.591924
1.591924
1.851057
2.097064
2.315696
2.478076
2.551015
2.520827
2.417699
2.21388
2.21388
1.969935
1.696177
1.451857
1.287414
1.262101
1.260226
1.268851
1.361667
1.578798
1.578798
1.834181
2.074751
2.296945
2.452013
2.53189
2.523077
2.416949
2.224755
1.975935
1.975935
1.701802
1.457669
1.292852
1.261726
1.259288
1.266976
1.334478
1.550672
1.813743
1.813743
2.055813
2.28082
2.44245
2.521765
2.522327
2.428012
2.235631
1.98231
1.71249
1.71249
1.457107
1.290789
1.261539
1.259288
1.265851
1.334291
1.537172
1.782992
1.782992
2.037625
2.258131
2.424636
2.518014
2.518764
2.422761
2.232068
1.995623
1.719802
1.719802
1.465545
1.295102
1.261539
1.259101
1.262851
1.32004
1.515796
1.767054
2.029187
2.029187
2.273319
2.452762
2.551015
2.554578
2.464013
2.275382
2.033124
1.771742
1.524796
1.524796
1.330916
1.269414
1.263226
1.266789
1.318915
1.501921
1.698614
1.89287
2.063313
2.063313
2.188192
2.245381
2.21313
2.055625
1.820118
1.539047
1.293977
1.254976
1.254038
1.254038
1.254038
1.254038
1.257601
1.272976
1.355291
1.545985
1.789367
2.061813
2.061813
2.330884
2.565078
2.657331
2.656769
2.657144
2.581391
2.270694
1.963372
1.730865
1.730865
1.580486
1.526672
1.561548
1.706115
1.884995
2.101002
2.331071
2.53714
2.608017
2.608017
2.657144
2.657144
2.61908
2.471513
2.209005
1.902058
1.618924
1.376855
1.278227
1.278227
1.264164
1.268476
1.315353
1.497421
1.738741
1.995248
2.227755
2.404011
2.511452
2.511452
2.53339
2.4597
2.28982
2.045875
1.771367
1.500608
1.304477
1.261539
1.261539
1.257038
1.258163
1.277851
1.428044
1.671801
1.924371
2.154253
2.343822
2.45145
2.45145
2.476201
2.421637
2.266194
2.029374
1.750928
1.494233
1.298665
1.260413
1.256476
1.256476
1.257413
1.270164
1.393355
1.636737
1.892308
2.131377
2.323008
2.4417
2.466075
2.466075
2.407011
2.262069
2.034625
1.766679
1.503983
1.299227
1.260038
1.256288
1.257226
1.257226
1.266789
1.374417
1.612737
1.864932
2.118065
2.303133
2.424074
2.46045
2.46045
2.408136
2.270882
2.035187
1.767429
1.512796
1.30729
1.260413
1.256288
1.256663
1.256663
1.264914
1.357354
1.593236
1.850119
2.086939
2.295633
2.416761
2.456512
2.415074
2.415074
2.272569
2.039312
1.777929
1.509609
1.306165
1.260226
1.256101
1.256663
1.265101
1.265101
1.356791
1.579361
1.831931
2.073251
2.279882
2.409823
2.453512
2.405699
2.263757
2.263757
2.04475
1.788617
1.516171
1.303727
1.259851
1.255726
1.256288
1.262476
1.339166
1.339166
1.558548
1.81318
2.056563
2.268632
2.399323
2.437199
2.395948
2.260756
2.260756
2.049438
1.790305
1.518609
1.30879
1.259663
1.255538
1.255538
1.259851
1.31404
1.31404
1.518234
1.774929
2.021874
2.22438
2.365385
2.416386
2.388823
2.258694
2.039125
2.039125
1.770617
1.499108
1.29979
1.258163
1.254976
1.255163
1.257601
1.288727
1.472107
1.472107
1.724865
1.96956
2.174691
2.319446
2.374385
2.335009
2.208067
1.998623
1.740241
1.740241
1.45992
1.280664
1.256288
1.254413
1.254226
1.255163
1.265664
1.377792
1.377792
1.623237
1.868682
2.077001
2.215005
2.274444
2.249881
2.125002
1.915371
1.655113
1.655113
1.38173
1.264726
1.254788
1.254038
1.254038
1.254226
1.257788
1.316478
1.547297
1.547297
1.79218
1.997311
2.150691
2.213318
2.189504
2.082063
1.885932
1.633175
1.368229
1.368229
1.262476
1.254601
1.254038
1.254038
1.254038
1.257226
1.302227
1.521609
1.768366
1.768366
1.990561
2.157066
2.227005
2.212755
2.113752
1.908058
1.660176
1.401793
1.401793
1.268101
1.255163
1.254038
1.254038
1.254413
1.260976
1.348541
1.599424
1.856307
1.856307
2.087501
2.261507
2.342884
2.336884
2.250818
2.067813
1.825743
1.563235
1.334666
1.334666
1.261913
1.256288
1.255538
1.258163
1.289477
1.474545
1.732928
1.988873
2.218193
2.218193
2.388448
2.476388
2.475451
2.391823
2.207317
1.952684
1.679114
1.440231
1.283289
1.283289
1.260788
1.258913
1.264726
1.328478
1.539984
1.788055
2.049625
2.27932
2.449012
2.449012
2.539765
2.538077
2.443949
2.259444
2.019062
1.742491
1.491045
1.308602
1.308602
1.264351
1.261163
1.268851
1.349854
1.55611
1.805492
2.058625
2.28607
2.457638
2.457638
2.550265
2.54764
2.4612
2.281757
2.03875
1.764616
1.515234
1.319665
1.265664
1.265664
1.261163
1.267351
1.339916
1.54411
1.791992
2.047563
2.276695
2.447325
2.54689
2.54689
2.55139
2.467575
2.291882
2.055438
1.779617
1.525734
1.319853
1.265664
1.260601
1.260601
1.266414
1.330166
1.526484
1.767804
2.017561
2.247444
2.433637
2.540703
2.540703
2.540515
2.461013
2.28907
2.05
1.776242
1.521234
1.314978
1.264351
1.260038
1.260038
1.263039
1.310477
1.497983
1.748303
2.001249
2.241068
2.417324
2.522139
2.534328
2.534328
2.464388
2.294132
2.056375
1.785242
1.522359
1.316665
1.263601
1.258913
1.261913
1.261913
1.29829
1.469857
1.713052
1.97706
2.21463
2.390511
2.515764
2.450512
2.291695
2.050188
2.050188
1.781867
1.521421
1.316103
1.263414
1.258538
1.260226
1.289289
1.453544
1.698614
1.698614
1.954185
2.188754
2.381323
2.494014
2.514077
2.449762
2.28682
2.057125
2.057125
1.793867
1.529859
1.31854
1.263226
1.257976
1.259851
1.283102
1.433481
1.677989
1.677989
1.938434
2.173191
2.364447
2.484638
2.508077
2.45295
2.300883
2.073813
1.808118
1.808118
1.54261
1.334291
1.265289
1.258351
1.260038
1.281414
1.430106
1.673489
1.929809
1.929809
2.168129
2.360322
2.485389
2.513514
2.467013
2.318508
2.096501
1.831181
1.557985
1.557985
1.338978
1.265101
1.258351
1.259288
1.279727
1.422231
1.661301
1.923434
1.923434
2.165316
2.359385
2.487826
2.522702
2.473575
2.335009
2.10869
1.842994
1.577673
1.577673
1.355479
1.268289
1.258913
1.260038
1.278414
1.416418
1.654363
1.911246
2.156878
2.156878
2.360135
2.490076
2.531702
2.487826
2.344009
2.129315
1.857619
1.589298
1.363917
1.363917
1.269039
1.259288
1.259851
1.275226
1.403855
1.635425
1.891745
2.140003
2.348322
2.348322
2.486138
2.531515
2.490451
2.36051
2.143003
1.87712
1.607862
1.371417
1.272601
1.272601
1.259851
1.259851
1.274289
1.396168
1.628862
1.882557
2.138315
2.346071
2.346071
2.477888
2.532077
2.496264
2.359385
2.153503
1.897183
1.619862
1.382855
1.272039
1.272039
1.259288
1.259288
1.271851
1.38323
1.608799
1.869057
2.11619
2.327508
2.474138
2.474138
2.525515
2.496451
2.375698
2.167941
1.910496
1.6373
1.395605
1.274851
1.259663
1.259663
1.259476
1.271664
1.37948
1.610862
1.867745
2.108127
2.313821
2.465513
2.53039
2.53039
2.510702
2.389948
2.180317
1.926621
1.657926
1.404605
1.274851
1.259663
1.259663
1.259476
1.270164
1.374042
1.597174
1.841306
2.099127
2.317758
2.473388
2.535265
2.535265
2.509764
2.393511
2.19813
1.941997
1.670488
1.423731
1.280664
1.260788
1.258913
1.258913
1.267539
1.355479
1.575798
1.827993
2.077188
2.296195
2.454075
2.52514
2.508639
2.508639
2.401761
2.200192
1.953247
1.679676
1.432919
1.282539
1.260413
1.259101
1.266789
1.266789
1.344041
1.560985
1.820681
2.074751
2.300883
2.450887
2.52439
2.512577
2.512577
2.412636
2.209005
1.96431
1.691677
1.445669
1.288164
1.260788
1.259101
1.267164
1.267164
1.347041
1.555735
1.809993
2.062751
2.287757
2.441512
2.511827
2.508639
2.407761
2.407761
2.226068
1.968248
1.688302
1.439481
1.281039
1.259476
1.257976
1.261913
1.31254
1.31254
1.512234
1.765929
2.015311
2.235818
2.408699
2.490263
2.480701
2.393886
2.206005
2.206005
1.955685
1.682489
1.441169
1.286289
1.260788
1.258351
1.261539
1.312165
1.503608
1.503608
1.755054
2.013436
2.250444
2.417324
2.521202
2.519889
2.428949
2.252319
2.252319
2.010624
1.736115
1.483545
1.298852
1.261913
1.258913
1.264351
1.314415
1.509046
1.509046
1.762366
2.011186
2.242568
2.422011
2.511827
2.518202
2.430824
2.255506
2.016624
2.016624
1.740991
1.48917
1.298665
1.262289
1.258913
1.263039
1.31179
1.499296
1.746991
1.746991
2.001249
2.234318
2.409636
2.513327
2.526452
2.447325
2.277445
2.038
1.765179
1.765179
1.502671
1.30804
1.263039
1.258913
1.260976
1.297352
1.479045
1.725803
1.725803
1.984936
2.224755
2.411699
2.502451
2.524015
2.461013
2.27932
2.044
1.773429
1.773429
1.513359
1.31479
1.263414
1.258538
1.261163
1.29604
1.467795
1.714177
1.977623
1.977623
2.212193
2.390698
2.504701
2.523639
2.457075
2.29882
2.068938
1.790867
1.531922
1.531922
1.330916
1.266414
1.260976
1.265289
1.308977
1.476608
1.71249
1.975185
2.223068
2.223068
2.413574
2.53414
2.574079
2.498514
2.316633
2.045312
1.73574
1.416981
1.416981
1.263226
1.254413
1.254038
1.254038
1.253851
1.254413
1.259663
1.328853
1.549735
1.549735
1.664301
1.781117
1.871495
2.05675
2.050375
1.843744
1.543547
1.291539
1.256663
1.256663
1.255163
1.256288
1.276726
1.557235
1.926434
2.215755
2.493639
2.628643
2.657144
2.657144
2.656769
2.656769
2.656769
2.653394
2.523452
2.238256
1.949309
1.679489
1.501733
1.501733
1.39073
1.391667
1.493108
1.652113
1.864369
2.101002
2.332196
2.483326
2.483326
2.585141
2.598454
2.550828
2.396698
2.165129
1.88537
1.613112
1.37423
1.272226
1.272226
1.260226
1.260976
1.281977
1.423918
1.657363
1.919496
2.149378
2.348697
2.476576
2.476576
2.503951
2.45745
2.323758
2.103064
1.826118
1.55611
1.332416
1.263039
1.257038
1.257038
1.257226
1.266601
1.364104
1.588923
1.853307
2.092189
2.299383
2.435137
2.477513
2.477513
2.438887
2.310258
2.097626
1.825556
1.557235
1.334666
1.263226
1.256663
1.256663
1.257038
1.263601
1.343479
1.57186
1.838494
2.080001
2.28982
2.427449
2.473575
2.473575
2.438512
2.320571
2.103252
1.839056
1.560048
1.337478
1.263039
1.256476
1.256663
1.256663
1.262851
1.335603
1.549172
1.805492
2.059563
2.271069
2.425761
2.483138
2.455575
2.455575
2.327883
2.130252
1.869995
1.574111
1.345729
1.263414
1.256663
1.256288
1.261913
1.261913
1.322478
1.533797
1.79443
2.05
2.254569
2.400636
2.4612
2.434012
2.329196
2.329196
2.12144
1.862119
1.583861
1.345729
1.263414
1.256851
1.256476
1.260601
1.260601
1.316665
1.525172
1.773992
2.022624
2.236006
2.397261
2.460825
2.443762
2.325258
2.325258
2.12144
1.875995
1.605236
1.345541
1.264726
1.256663
1.256288
1.259851
1.30204
1.30204
1.496858
1.751866
2.003311
2.233381
2.37551
2.456512
2.443199
2.340822
2.138503
2.138503
1.880682
1.607487
1.362229
1.265664
1.257226
1.256476
1.260226
1.297727
1.491796
1.491796
1.737615
1.985498
2.198692
2.363135
2.438324
2.412824
2.314758
2.118627
2.118627
1.867932
1.589486
1.347041
1.262101
1.255726
1.255163
1.256476
1.274101
1.417543
1.417543
1.670301
1.913496
2.142628
2.304445
2.375135
2.373447
2.280445
2.086939
1.832681
1.832681
1.546172
1.32004
1.259476
1.254788
1.254413
1.255163
1.262851
1.348166
1.584798
1.584798
1.833618
2.057313
2.217443
2.30782
2.310821
2.197005
2.020937
1.774179
1.496296
1.496296
1.291727
1.256288
1.254413
1.254226
1.254413
1.257413
1.302602
1.521984
1.779429
1.779429
2.002936
2.163441
2.259069
2.264319
2.173754
1.972185
1.730865
1.458607
1.458607
1.277101
1.255538
1.254038
1.254038
1.254038
1.255913
1.283664
1.472857
1.732928
1.732928
1.965247
2.150691
2.251381
2.269007
2.190442
2.013249
1.777742
1.521046
1.305602
1.305602
1.257976
1.254788
1.254226
1.254601
1.260226
1.341791
1.585361
1.841869
2.090876
2.090876
2.285695
2.393886
2.412074
2.343446
2.180879
1.948934
1.684739
1.421293
1.276539
1.276539
1.258726
1.255913
1.258163
1.282914
1.435731
1.697677
1.958497
2.192317
2.192317
2.368572
2.4717
2.491951
2.430449
2.263757
2.038562
1.756366
1.485233
1.30129
1.30129
1.261351
1.257413
1.259288
1.285539
1.451669
1.701239
1.961497
2.199817
2.394448
2.394448
2.505451
2.514452
2.284945
2.048687
1.780554
1.530234
1.319853
1.263039
1.257976
1.257976
1.260976
1.289102
1.453357
1.697489
1.957372
2.183879
2.376822
2.505826
2.533202
2.533202
2.467013
2.310633
2.081876
1.80793
1.555735
1.340291
1.266976
1.258913
1.262101
1.262101
1.287977
1.440419
1.681739
1.946122
2.192504
2.389198
2.517639
2.534702
2.472263
2.472263
2.319821
2.082438
1.820306
1.559485
1.335791
1.265851
1.258351
1.259851
1.282727
1.282727
1.426544
1.670301
1.923621
2.168316
2.364447
2.482951
2.52814
2.47245
2.47245
2.325634
2.101002
1.837368
1.567173
1.344791
1.266414
1.258726
1.259663
1.278789
1.278789
1.412856
1.642175
1.904121
2.141315
2.344384
2.477888
2.515764
2.466825
2.329009
2.329009
2.107939
1.829868
1.573548
1.343853
1.264914
1.257976
1.259288
1.272601
1.393917
1.393917
1.634112
1.898683
2.139628
2.334259
2.47245
2.516514
2.465513
2.326946
2.107939
2.107939
1.850307
1.576736
1.348541
1.266039
1.257788
1.257788
1.269789
1.385292
1.385292
1.6253
1.87787
2.121627
2.329946
2.46345
2.502451
2.464013
2.336321
2.113752
2.113752
1.856119
1.586673
1.353229
1.266601
1.258913
1.257601
1.265664
1.354729
1.575798
1.575798
1.836431
2.085064
2.293383
2.438137
2.492889
2.451075
2.331446
2.133065
1.867557
1.867557
1.599986
1.364479
1.266976
1.257788
1.257788
1.266976
1.367667
1.598486
1.847119
1.847119
2.098377
2.31532
2.455762
2.507326
2.482763
2.36426
2.151816
1.89737
1.622675
1.622675
1.377604
1.270726
1.258538
1.257788
1.265664
1.345729
1.576361
1.830993
1.830993
2.086939
2.306695
2.457075
2.520264
2.480513
2.382823
2.167004
1.909371
1.629987
1.629987
1.388105
1.271664
1.258726
1.258913
1.263414
1.331291
1.545235
1.809805
2.05675
2.05675
2.274819
2.431012
2.508639
2.485013
2.36801
2.177691
1.924746
1.648175
1.392417
1.392417
1.272976
1.259851
1.257413
1.263789
1.334478
1.546172
1.794055
2.051125
2.269944
2.269944
2.424824
2.509014
2.507701
2.406074
2.20338
1.947622
1.678739
1.424481
1.424481
1.282539
1.260601
1.257788
1.265101
1.340291
1.557985
1.817305
2.058625
2.273882
2.273882
2.423136
2.520827
2.510889
2.420324
2.20638
1.976498
1.703302
1.446982
1.286664
1.286664
1.260601
1.258163
1.264726
1.330916
1.533234
1.781867
2.029749
2.262819
2.427824
2.427824
2.502264
2.501326
2.420511
2.234318
1.988498
1.707427
1.443044
1.283664
1.260601
1.260601
