1.700864
1.824618
2.007811
2.007811
2.210317
2.445262
2.618705
2.661644
2.661456
2.661456
2.651331
2.568641
2.374948
2.374948
2.201505
2.012124
1.849556
1.756179
1.690927
1.72299
1.833243
2.009499
2.009499
2.21238
2.446762
2.617392
2.661644
2.661456
2.661456
2.661456
2.587766
2.409636
2.409636
2.20338
2.032749
1.857432
1.771742
1.695427
1.714552
1.841494
1.986998
2.208817
2.208817
2.458575
2.607642
2.661456
2.661456
2.661269
2.661644
2.584766
2.416574
2.230006
2.230006
2.022062
1.879745
1.774929
1.695239
1.70499
1.829118
1.969373
2.169254
2.417699
2.417699
2.589267
2.661644
2.661644
2.661644
2.661644
2.596017
2.383573
2.266194
2.266194
2.0635
1.893058
1.785992
1.715302
1.710802
1.802305
1.964122
2.168129
2.388448
2.388448
2.568266
2.661644
2.661644
2.661644
2.655831
2.566766
2.39426
2.191942
1.975935
1.975935
1.823868
1.683614
1.532672
1.491045
1.530797
1.656426
1.856494
2.021312
2.202067
2.202067
2.380198
2.451262
2.482576
2.340259
2.214818
2.072126
2.0455
2.023937
2.038187
2.038187
1.839056
1.747366
1.779242
2.010249
2.273507
2.585704
2.661269
2.660706
2.660519
2.660519
2.660331
2.660331
2.660331
2.660519
2.660894
2.661456
2.587016
2.442075
2.442075
2.245756
2.127815
2.024687
2.11919
2.203192
2.36951
2.541453
2.643831
2.661456
2.661456
2.661269
2.661456
2.661644
2.582141
2.404198
2.210317
1.992436
1.818618
1.685864
1.685864
1.580486
1.588361
1.669363
1.78843
1.983998
2.184817
2.4567
2.600704
2.632768
2.632768
2.661831
2.631268
2.515389
2.333134
2.141878
1.927184
1.757304
1.636925
1.56586
1.56586
1.554422
1.632425
1.761429
1.958872
2.178254
2.396323
2.583641
2.632205
2.661644
2.661644
2.625268
2.536202
2.342509
2.163253
1.944622
1.79443
1.648363
1.581611
1.581611
1.537922
1.602424
1.729365
1.940122
2.146565
2.371197
2.571641
2.616455
2.661831
2.661831
2.62883
2.538452
2.361259
2.168504
1.968623
1.798742
1.651738
1.567735
1.542047
1.542047
1.595486
1.719615
1.915746
2.132315
2.370635
2.564141
2.614205
2.661831
2.641018
2.641018
2.551203
2.37776
2.177129
1.987936
1.809243
1.667301
1.584236
1.547672
1.573548
1.573548
1.720552
1.901871
2.117877
2.350947
2.548203
2.605767
2.661831
2.634268
2.634268
2.556641
2.38151
2.167004
1.979498
1.79743
1.645175
1.561923
1.515234
1.560048
1.560048
1.681551
1.823868
2.098752
2.311383
2.507514
2.599392
2.61233
2.598642
2.522889
2.522889
2.350947
2.145815
1.955685
1.771554
1.6238
1.532672
1.476608
1.509796
1.625487
1.625487
1.806805
2.013249
2.242193
2.44845
2.584954
2.62283
2.593017
2.475451
2.30332
2.30332
2.106627
1.904308
1.73124
1.57036
1.471357
1.408918
1.436856
1.548797
1.723553
1.723553
1.924746
2.150128
2.360322
2.496264
2.552328
2.521202
2.405511
2.227568
2.227568
2.038187
1.837744
1.65005
1.485795
1.390167
1.334853
1.351541
1.461045
1.638425
1.638425
1.838119
2.080001
2.282132
2.417699
2.471325
2.463638
2.352634
2.197567
1.991123
1.991123
1.788242
1.605986
1.450732
1.358854
1.305977
1.319478
1.417543
1.593049
1.79743
1.79743
2.032937
2.248381
2.403636
2.470013
2.467388
2.374197
2.214443
2.025249
1.836806
1.836806
1.649488
1.493858
1.400855
1.335228
1.345729
1.45617
1.62905
1.838869
1.838869
2.072126
2.283632
2.453137
2.530577
2.53939
2.443949
2.29132
2.113002
1.907683
1.907683
1.73349
1.582173
1.486358
1.431231
1.438356
1.55536
1.722428
1.947997
2.183692
2.183692
2.401011
2.583454
2.593767
2.601454
2.598829
2.460263
2.27707
2.094814
1.915558
1.915558
1.753928
1.653425
1.590611
1.594174
1.697302
1.856682
2.076438
2.306695
2.527577
2.527577
2.649643
2.661644
2.661644
2.657331
2.575016
2.398761
2.214255
2.036312
1.865119
1.865119
1.754491
1.688864
1.676114
1.765929
1.908808
2.121815
2.343446
2.555515
2.555515
2.655081
2.661456
2.661456
2.661831
2.600892
2.453325
2.250818
2.05225
1.888558
1.888558
1.776429
1.702177
1.684926
1.767429
1.902996
2.114877
2.337634
2.548765
2.650768
2.650768
2.661644
2.661456
2.661644
2.608017
2.44695
2.255881
2.052438
1.87862
1.763679
1.763679
1.677051
1.657363
1.734428
1.878432
2.079813
2.29582
2.523077
2.647768
2.661644
2.661644
2.661456
2.661644
2.603892
2.451262
2.259444
2.073438
1.902808
1.776992
1.776992
1.700302
1.656613
1.733865
1.869244
2.064813
2.290195
2.514639
2.646081
2.661644
2.661644
2.661456
2.661644
2.613267
2.4672
2.278007
2.078876
1.908808
1.779617
1.698989
1.698989
1.667676
1.737428
1.863057
2.065001
2.279695
2.499076
2.64008
2.661644
2.661456
2.661456
2.661456
2.635018
2.492514
2.29882
2.089001
1.938622
1.80643
1.718115
1.682676
1.682676
1.733303
1.869244
2.069313
2.277257
2.511452
2.636143
2.661831
2.661456
2.661456
2.661644
2.633705
2.527765
2.334634
2.139628
1.966185
1.81618
1.732365
1.696177
1.696177
1.756366
1.880307
2.065376
2.27857
2.512952
2.63483
2.661644
2.661456
2.661644
2.661644
2.640831
2.546703
2.349822
2.157441
1.987186
1.840556
1.752428
1.704427
1.749803
1.749803
1.876932
2.064813
2.277632
2.514452
2.639518
2.661644
2.661456
2.661644
2.653769
2.653769
2.564703
2.37851
2.191192
2.007249
1.852369
1.767241
1.710052
1.745491
1.87712
1.87712
2.065751
2.267319
2.494951
2.630705
2.661644
2.661644
2.661456
2.656956
2.656956
2.570328
2.38151
2.190067
2.016624
1.860432
1.767991
1.704427
1.721678
1.841119
1.841119
2.015311
2.22288
2.458012
2.629768
2.661644
2.661456
2.661456
2.652643
2.566766
2.566766
2.382823
2.193254
2.023749
1.869619
1.785804
1.718302
1.734615
1.861182
2.035375
2.035375
2.249506
2.491388
2.62733
2.661644
2.661269
2.661456
2.661644
2.594892
2.421449
2.421449
2.244069
2.0575
1.89812
1.804555
1.744928
1.764429
1.872995
2.04175
2.04175
2.493264
2.630705
2.661456
2.661269
2.661269
2.661456
2.630143
2.466825
2.269944
2.084501
2.084501
1.921559
1.828556
1.755616
1.763866
1.871495
2.039687
2.253256
2.486138
2.62808
2.62808
2.661456
2.661269
2.661456
2.661644
2.631268
2.505639
2.319446
2.12594
1.96581
1.96581
1.860619
1.78843
1.791055
1.896433
2.05075
2.261132
2.492514
2.630893
2.661269
2.661269
2.661456
2.661269
2.661456
2.645331
2.536952
2.342884
2.146753
1.982123
1.883495
1.883495
1.803618
1.80418
1.893808
2.045875
2.248756
2.473763
2.629205
2.661456
2.661456
2.661456
2.661269
2.661269
2.646456
2.548578
2.355447
2.163066
1.983623
1.850119
1.850119
1.775117
1.767241
1.858369
2.005561
2.228693
2.46645
2.62208
2.661644
2.661269
2.661269
2.661269
2.661644
2.569203
2.339696
2.11844
1.913121
1.710615
1.54561
1.438544
1.438544
1.425418
1.512984
1.693552
1.922684
2.350572
2.651706
2.661081
2.661081
2.660894
2.660894
2.661081
2.661456
2.661456
2.661644
2.661644
2.661644
2.661644
2.61008
2.55589
2.55589
2.552515
2.603142
2.661644
2.661081
2.660894
2.660706
2.660894
2.660894
2.660894
2.660894
2.661081
2.661456
2.554203
2.335571
2.138128
1.978935
1.846744
1.790867
1.790867
1.821431
1.924371
2.107002
2.300508
2.516702
2.626955
2.661644
2.661644
2.661644
2.661644
2.599579
2.444325
2.254006
2.052438
1.876557
1.751678
1.666551
1.6268
1.692427
1.692427
1.827243
2.029374
2.247069
2.474325
2.627705
2.661644
2.661456
2.661644
2.604079
2.604079
2.447512
2.265444
2.0665
1.884433
1.746991
1.668801
1.637862
1.698427
1.827806
1.827806
2.031625
2.240318
2.463825
2.63033
2.661644
2.661644
2.661644
2.608017
2.608017
2.471138
2.276132
2.078126
1.919871
1.770617
1.689801
1.646863
1.701052
1.828556
1.828556
2.019062
2.232256
2.463825
2.623955
2.662019
2.661456
2.661644
2.629955
2.490263
2.490263
2.290945
2.095564
1.920621
1.770804
1.686614
1.627362
1.678551
1.81018
1.997123
1.997123
2.204505
2.435137
2.608017
2.661644
2.661456
2.661831
2.629393
2.499076
2.299757
2.299757
2.101939
1.930371
1.776617
1.686802
1.627175
1.677989
1.795555
1.97631
1.97631
2.178442
2.417324
2.599204
2.661831
2.661831
2.661644
2.628455
2.488576
2.294695
2.294695
2.097251
1.913496
1.750741
1.658863
1.605424
1.638613
1.752053
1.927184
2.137565
2.137565
2.371947
2.563766
2.653956
2.661644
2.661831
2.605767
2.46645
2.260569
2.062376
2.062376
1.87187
1.711177
1.6223
1.55536
1.579361
1.690552
1.863244
2.070438
2.300508
2.300508
2.507139
2.605955
2.661644
2.629768
2.572016
2.408511
2.205255
2.011561
1.823493
1.823493
1.657551
1.557423
1.491045
1.507921
1.613862
1.777367
1.979498
2.207505
2.207505
2.419011
2.567516
2.617205
2.606704
2.505451
2.341572
2.141878
1.941809
1.747553
1.747553
1.582173
1.487483
1.413606
1.420918
1.534547
1.701052
1.910308
2.144315
2.356572
2.356572
2.511639
2.578391
2.578954
2.476013
2.318883
2.12519
1.934309
1.741741
1.577298
1.577298
1.481108
1.412106
1.419043
1.525172
1.686051
1.901683
2.13794
2.352447
2.519139
2.519139
2.599954
2.611392
2.520264
2.361447
2.164941
1.975373
1.788992
1.616487
1.616487
1.518609
1.448482
1.456919
1.563235
1.718678
1.95006
2.181817
2.401386
2.585516
2.585516
2.613267
2.651518
2.596017
2.462513
2.283445
2.102877
1.920809
1.763116
1.662426
1.662426
1.594549
1.593799
1.699927
1.863807
2.083189
2.315883
2.539015
2.652831
2.661644
2.661644
2.661456
2.661644
2.601454
2.457075
2.269007
2.081876
1.915183
1.809055
1.735928
1.735928
1.719802
1.81393
1.965998
2.177316
2.397261
2.585141
2.661644
2.661456
2.661456
2.661456
2.661644
2.642143
2.52964
2.338571
2.145628
1.970873
1.852556
1.768366
1.768366
1.750178
1.827243
1.969373
2.176754
2.389948
2.577829
2.661644
2.661456
2.661269
2.661269
2.661456
2.633705
2.525702
2.333509
2.12894
1.965998
1.828743
1.755991
1.726365
1.726365
1.797242
1.936934
2.137378
2.351322
2.557391
2.660144
2.661456
2.661456
2.661456
2.661456
2.63033
2.527952
2.324696
2.111502
1.950435
1.818993
1.732553
1.702927
1.764429
1.764429
1.898495
2.097814
2.313633
2.54014
2.643456
2.661456
2.661456
2.661456
2.661456
2.63783
2.514077
2.317196
2.117127
1.942184
1.80943
1.727865
1.688676
1.753179
1.753179
1.884807
2.079063
2.288882
2.521952
2.641018
2.661456
2.661456
2.661644
2.638768
2.638768
2.518014
2.327696
2.129877
1.95531
1.818618
1.722615
1.683801
1.73649
1.860994
1.860994
2.054125
2.284757
2.517452
2.635205
2.661644
2.661269
2.661644
2.640455
2.538827
2.538827
2.348134
2.155941
1.974998
1.832493
1.744741
1.687551
1.741928
1.871307
1.871307
2.054875
2.269007
2.499076
2.62808
2.661269
2.661456
2.661456
2.647581
2.563203
2.563203
2.354697
2.161941
1.985498
1.836619
1.753928
1.70349
1.750178
1.873182
2.050188
2.050188
2.261319
2.496076
2.629393
2.661456
2.661456
2.661644
2.656206
2.570891
2.379072
2.379072
2.179941
2.001249
1.847119
1.754116
1.695052
1.730115
1.847869
2.030124
2.239381
2.239381
2.473575
2.632205
2.661831
2.661456
2.661644
2.644768
2.560578
2.36576
2.36576
2.171879
1.982873
1.826493
1.734241
1.671988
1.699927
1.821806
1.997498
2.210505
2.210505
2.449012
2.619267
2.661644
2.661456
2.661456
2.661831
2.589829
2.411324
2.212193
2.212193
2.030124
1.864557
1.762179
1.699364
1.71774
1.829493
1.999936
2.212193
2.452387
2.452387
2.61533
2.661644
2.661456
2.661456
2.661831
2.589267
2.423887
2.22738
2.04175
2.04175
1.883307
1.787117
1.710427
1.72224
1.834931
2.000686
2.20863
2.442637
2.61758
2.61758
2.661644
2.661456
2.661456
2.661831
2.608767
2.436074
2.246694
2.061813
2.061813
1.896995
1.79218
1.724865
1.719802
1.822931
1.984748
2.189879
2.421449
2.61008
2.61008
2.661644
2.661456
2.661269
2.661644
2.615892
2.451262
2.254569
2.063688
1.896433
1.896433
1.794617
1.72599
1.721678
1.818618
1.97181
2.179379
2.403073
2.591329
2.661456
2.661456
2.661456
2.661269
2.661831
2.621143
2.462888
2.266382
2.077001
1.912746
1.792555
1.792555
1.712865
1.707052
1.80568
1.959622
2.172817
2.393886
2.576704
2.661644
2.661456
2.661456
2.661644
2.661644
2.611955
2.460075
2.266007
2.061625
1.88012
1.743991
1.743991
1.616674
1.540922
1.57186
1.681926
1.865307
2.065751
2.221005
2.388448
2.4537
2.4537
2.500201
2.401011
2.257006
2.13194
2.160628
2.20263
2.107002
1.930559
1.795367
1.795367
1.759366
1.909746
2.168129
2.479576
2.661456
2.660706
2.660519
2.660331
2.660519
2.660519
2.660519
2.660706
2.661081
2.660331
2.55439
2.360322
2.194004
2.071001
2.003874
2.003874
2.028624
2.119377
2.296945
2.486701
2.61608
2.661644
2.661456
2.661456
2.661456
2.661644
2.576516
2.391073
2.194379
1.987561
1.799117
1.667301
1.584423
1.552547
1.552547
1.624362
1.765929
1.973123
2.188379
2.417511
2.651893
2.661831
2.639331
2.560203
2.376822
2.376822
2.176941
1.977435
1.805492
1.673114
1.594174
1.557235
1.621174
1.756366
1.756366
1.952872
2.170941
2.401198
2.581016
2.647206
2.661644
2.639706
2.566203
2.39126
2.39126
2.198317
2.001998
1.823681
1.671239
1.596236
1.55686
1.607299
1.743053
1.939184
1.939184
2.153316
2.388448
2.569203
2.638206
2.661831
2.656581
2.582516
2.414886
2.22363
2.22363
2.028812
1.844494
1.703115
1.620049
1.570923
1.617049
1.731428
1.905996
2.107564
2.107564
2.336134
2.541828
2.593579
2.661831
2.635205
2.550453
2.373447
2.167566
1.974998
1.974998
1.805305
1.650988
1.558923
1.507921
1.542235
1.673301
1.859682
2.066125
2.066125
2.30182
2.512389
2.603142
2.645706
2.620393
2.542015
2.36951
2.173754
1.980435
1.980435
1.799117
1.643488
1.559298
1.495358
1.528547
1.651175
1.832493
2.030687
2.261319
2.261319
2.475451
2.597892
2.61158
2.604267
2.53789
2.352447
2.185379
1.992061
1.800617
1.800617
1.642363
1.55911
1.481108
1.507921
1.623987
1.799492
2.005749
2.231693
2.441887
2.441887
2.588704
2.599767
2.608017
2.509202
2.340071
2.147503
1.953247
1.759179
1.597549
1.597549
1.499858
1.429544
1.448482
1.557985
1.726928
1.929246
2.163628
2.365947
2.365947
2.52664
2.578391
2.566766
2.458012
2.271069
2.088814
1.89512
1.701239
1.538297
1.538297
1.441731
1.364292
1.370292
1.481108
1.6448
1.848994
2.078876
2.284195
2.450887
2.450887
2.519702
2.515764
2.413574
2.257194
2.056938
1.861557
1.671426
1.516546
1.412856
1.412856
1.344229
1.348916
1.454294
1.620424
1.825931
2.05975
2.273132
2.446387
2.521389
2.521389
2.52739
2.435887
2.284007
2.076251
1.89512
1.706865
1.536609
1.430106
1.430106
1.363167
1.366354
1.471545
1.630737
1.832306
2.064438
2.28982
2.463825
2.557391
2.557391
2.566766
2.481076
2.338571
2.156128
1.96056
1.776804
1.618549
1.511109
1.443607
1.443607
1.443982
1.545797
1.70499
1.929621
2.163066
2.388448
2.577829
2.615892
2.654519
2.654519
2.600704
2.476201
2.304445
2.11094
1.922496
1.762554
1.659988
1.568298
1.576361
1.576361
1.673676
1.824618
2.036125
2.265069
2.492701
2.626018
2.661831
2.661644
2.650768
2.650768
2.569016
2.394823
2.20788
2.009124
1.846744
1.729553
1.645363
1.6283
1.6283
1.71249
1.855932
2.06125
2.282882
2.515764
2.635018
2.661831
2.661644
2.662019
2.662019
2.587391
2.431574
2.229068
2.0365
1.86887
1.743428
1.656426
1.624737
1.698239
1.698239
1.837556
2.040062
2.256819
2.486888
2.628455
2.661644
2.661644
2.661644
2.585141
2.585141
2.425199
2.241818
2.007249
1.858182
1.73049
1.647613
1.605611
1.670488
1.805868
1.805868
2.004999
2.220255
2.459888
2.592642
2.661644
2.661644
2.660519
2.578954
2.578954
2.419949
2.221568
2.023374
1.852369
1.715865
1.633175
1.591736
1.658488
1.798742
1.798742
1.988311
2.208442
2.437387
2.597142
2.661644
2.661644
2.661644
2.584391
2.426887
2.426887
2.229443
2.030124
1.858932
1.72299
1.628675
1.592674
1.647425
1.767804
1.936372
1.936372
2.195504
2.417324
2.576704
2.653206
2.661831
2.661831
2.587954
2.443199
2.236006
2.236006
2.045312
1.874307
1.724115
1.634112
1.584798
1.62605
1.757679
1.951747
2.157254
2.157254
2.387323
2.563766
2.642706
2.661644
2.661644
2.599767
2.45295
2.258319
2.258319
2.067438
1.888745
1.73574
1.65005
1.601299
1.638238
1.751678
1.940309
2.155003
2.155003
2.391635
2.570703
2.660144
2.661456
2.661831
2.600142
2.466263
2.273694
2.061438
2.061438
1.901495
1.751116
1.650425
1.596799
1.638238
1.750554
1.930371
2.145815
2.377573
2.377573
2.564141
2.656018
2.661456
2.661644
2.614767
2.478638
2.276882
2.080564
1.902433
1.902433
1.746616
1.661676
1.594549
1.618549
1.728053
1.915934
2.121252
2.360135
2.360135
2.545765
2.642143
2.661644
2.661644
2.623205
2.493076
2.29282
2.101564
1.913683
1.913683
1.753179
1.662238
1.601486
1.611987
1.72449
1.888745
2.081313
2.322258
2.535265
2.535265
2.62508
2.661644
2.661644
2.60858
2.483701
2.272382
2.081501
1.888745
1.726553
1.726553
1.639175
1.576548
1.575048
1.686051
1.849556
2.057688
2.29432
2.512952
2.615705
2.615705
2.661831
2.661831
2.613642
2.497764
2.302195
2.102502
1.908246
1.753366
1.753366
1.674426
1.574861
1.594361
1.678739
1.847119
2.052625
2.288882
2.513702
2.62508
2.62508
2.661831
2.661644
2.635955
2.540703
2.330696
2.140565
1.948559
1.785429
1.677426
1.677426
1.592861
1.611237
1.716052
1.843369
2.062751
2.288882
2.503577
2.627705
2.661644
2.661644
2.661644
2.630705
2.534328
2.343634
2.156691
1.95531
1.793117
1.689427
1.603736
1.603736
1.595674
1.680426
1.850869
2.0485
2.284757
2.492514
2.615892
2.661644
2.661644
2.661456
2.639143
2.539577
2.352072
2.162503
1.971248
1.797805
1.684551
1.605611
1.605611
1.591924
1.679489
1.817305
2.032375
2.253069
2.476576
2.62058
2.661644
2.661644
2.661644
2.639706
2.54839
2.364072
2.169441
1.986248
1.81468
1.692614
1.604299
1.576548
1.576548
1.672551
1.819931
2.020749
2.246694
2.467013
2.606704
2.655269
2.661831
2.620205
2.620205
2.503764
2.335384
2.149753
1.964872
1.799305
1.651175
1.557797
1.494796
1.524421
1.524421
1.616674
1.754679
1.933746
2.133065
2.271444
2.328071
2.350759
2.294695
2.294695
2.13269
1.943309
1.752241
1.615924
1.560798
1.671801
1.71249
1.681364
1.697114
1.697114
1.875057
2.123877
2.483888
2.644393
2.661081
2.660706
2.660519
2.660519
2.660706
2.660706
2.660894
2.661456
2.600892
2.38226
2.197755
2.081501
1.995248
2.007624
2.104752
2.104752
2.260007
2.410386
2.579329
2.659581
2.661644
2.661644
2.658456
2.565453
2.350947
2.350947
2.130815
1.927371
1.738178
1.587986
1.491421
1.454294
1.482045
1.615362
1.615362
1.826306
2.036875
2.271257
2.476576
2.589454
2.613267
2.585329
2.455013
2.276882
2.276882
2.059563
1.87562
1.725428
1.564548
1.47642
1.429919
1.481483
1.606174
1.805492
1.805492
2.013249
2.243881
2.4597
2.587016
2.624518
2.592829
2.469263
2.296195
2.112814
2.112814
1.914433
1.746428
1.584611
1.502671
1.454669
1.491421
1.613862
1.801555
2.013811
2.013811
2.260944
2.438137
2.578016
2.608017
2.602204
2.493639
2.327321
2.13794
2.13794
1.932621
1.763304
1.602237
1.488233
1.467607
1.48842
1.600361
1.793492
1.997873
1.997873
2.233006
2.439637
2.579141
2.616642
2.605392
2.497014
2.341759
2.124627
1.949497
1.949497
1.772117
1.614049
1.525547
1.466482
1.488795
1.599236
1.786555
1.995998
2.217255
2.217255
2.414699
2.586266
2.609517
2.608392
2.503201
2.340446
2.146378
1.955122
1.766679
1.766679
1.614612
1.516546
1.450919
1.462732
1.585736
1.744366
1.932621
2.190817
2.398948
2.398948
2.551015
2.608767
2.608017
2.502076
2.328634
2.139065
1.942184
1.758991
1.758991
1.592299
1.489358
1.425418
1.430481
1.538672
1.70649
1.912183
2.152941
2.348134
2.348134
2.501326
2.575016
2.477326
2.304258
2.101377
1.907683
1.713802
1.567173
1.460107
1.367292
1.367292
1.370104
1.46892
1.633175
1.841494
2.071938
2.253819
2.4537
2.518014
2.517827
2.517827
2.415261
2.256256
2.05975
1.851619
1.651363
1.501171
1.382667
1.311228
1.304665
1.304665
1.395605
1.564548
1.771742
1.990936
2.199817
2.38301
2.448825
2.456137
2.354134
2.354134
2.19738
2.014749
1.812618
1.613299
1.450732
1.32454
1.296414
1.283852
1.283852
1.360729
1.513359
1.72149
1.938247
2.156878
2.333134
2.393698
2.446012
2.361822
2.361822
2.189129
2.020562
1.824056
1.6343
1.453544
1.345916
1.287414
1.287039
1.354166
1.354166
1.518796
1.73724
1.943122
2.165504
2.361447
2.442637
2.473388
2.402323
2.256444
2.256444
2.080939
1.88687
1.698989
1.521984
1.423731
1.346104
1.335791
1.428606
1.579548
1.579548
1.786742
2.013999
2.254569
2.446575
2.545765
2.577641
2.517077
2.37326
2.199067
2.199067
2.017561
1.835306
1.655488
1.564923
1.485608
1.458045
1.54711
1.702927
1.702927
1.895683
2.12369
2.327321
2.544265
2.601454
2.621518
2.598267
2.480513
2.311008
2.311008
2.116752
1.926621
1.754116
1.63055
1.56661
1.530234
1.611987
1.745491
1.951935
1.951935
2.164379
2.383573
2.573516
2.625455
2.661831
2.636706
2.53639
2.343446
2.158378
2.158378
1.961122
1.786555
1.6523
1.577861
1.540922
1.581236
1.720365
1.927184
2.141128
2.141128
2.374197
2.574266
2.618892
2.661644
2.632393
2.548578
2.396511
2.189692
2.189692
1.995811
1.831931
1.689614
1.598111
1.549547
1.608049
1.735365
1.929434
2.140378
2.140378
2.381135
2.566016
2.61833
2.661644
2.632955
2.553453
2.405699
2.208067
2.010062
2.010062
1.841869
1.681551
1.605986
1.539422
1.587423
1.70874
1.908808
2.131002
2.348884
2.348884
2.541453
2.608017
2.661644
2.626768
2.560766
2.399698
2.20188
1.995061
1.823681
1.823681
1.665426
1.586861
1.532859
1.582548
1.698989
1.875432
2.100252
2.316633
2.316633
2.524765
2.593767
2.645331
2.631455
2.554953
2.408136
2.174129
1.999186
1.830993
1.830993
1.675551
1.578798
1.530797
1.551797
1.675739
1.842244
2.053563
2.278757
2.516889
2.516889
2.612517
2.641768
2.613642
2.587579
2.414886
2.20788
2.021499
1.838494
1.686989
1.686989
1.595111
1.530984
1.572048
1.690927
1.860244
2.069688
2.30407
2.509764
2.61458
2.61458
2.661831
2.661831
2.572204
2.422574
2.240693
2.034062
1.853307
1.71024
1.619674
1.619674
1.54936
1.561548
1.673114
1.846931
2.054313
2.29132
2.506576
2.590017
2.590017
2.662019
2.656956
2.582704
2.428949
2.253444
2.0575
1.871682
1.711177
1.621362
1.621362
1.557423
1.563985
1.678551
1.839806
2.047375
2.281945
2.489701
2.588517
2.656018
2.656018
2.661831
2.598829
2.4522
2.275944
2.076438
1.87487
1.708552
1.6298
1.550297
1.550297
1.566423
1.656613
1.807743
2.030687
2.255881
2.462325
2.594329
2.656769
2.651893
2.651893
2.593954
2.452013
2.255506
2.070251
1.880307
1.73724
1.624925
1.545047
1.545047
1.530609
1.657551
1.794805
1.977998
2.246881
2.451825
2.593767
2.63783
2.638018
2.638018
2.603517
2.449762
2.266569
2.062751
1.882745
1.715865
1.590799
1.518984
1.518046
1.518046
1.614049
1.766117
1.958497
2.19963
2.403073
2.570891
2.620768
2.608767
2.584766
2.584766
2.44695
2.245944
2.062751
1.888558
1.683801
1.597736
1.527422
1.502296
1.600361
1.600361
1.768929
1.955685
2.181067
2.404573
2.590392
2.614392
2.653581
2.588329
2.588329
2.461763
2.273132
2.080751
1.87787
1.72524
1.628487
1.537547
1.545797
1.602237
1.602237
1.757866
1.963372
2.186504
2.405511
2.594329
2.60858
2.661644
2.602392
2.497201
2.497201
2.30557
2.110377
1.915558
1.754116
1.627925
1.54561
1.521234
1.601861
1.732553
1.732553
1.949122
2.170379
2.371572
2.569766
2.644768
2.661831
2.605392
2.514452
2.314571
2.314571
2.108877
1.957747
1.767429
1.628487
1.548797
1.517296
1.601861
1.741178
1.935809
1.935809
2.142628
2.37251
2.558141
2.627892
2.661831
2.605392
2.516702
2.336884
2.336884
2.14244
1.946309
1.775492
1.643113
1.563235
1.528547
1.593799
1.720552
1.900371
1.900371
2.120127
2.349259
2.553078
2.598454
2.661831
2.621143
2.516889
2.339696
2.152003
2.152003
1.959435
1.777367
1.611799
1.535109
1.472295
1.537359
1.647425
1.844869
2.068188
2.068188
2.29057
2.487451
2.576704
2.608205
2.491201
2.310258
2.069876
1.849931
1.632425
1.632425
1.40198
1.268851
1.253476
1.251226
1.254788
1.292102
1.491233
1.765366
1.765366
2.210692
2.569203
2.661644
2.661831
2.656956
2.576141
2.567141
2.501326
2.442637
2.442637
2.489513
2.484826
2.419386
2.38601
2.369322
2.444887
2.575766
2.63108
2.661644
2.661644
2.661081
2.661269
2.661081
2.661269
2.661644
2.621518
2.423512
2.182567
1.972373
1.972373
1.791617
1.656426
1.541297
1.539047
1.631862
1.768554
1.951372
2.189129
2.395386
2.395386
2.509202
2.560391
2.52439
2.403823
2.247256
2.051875
1.869057
1.691114
1.691114
1.530984
1.461232
1.369542
1.395043
1.516921
1.681176
1.899995
2.131377
2.337259
2.337259
2.479576
2.559266
2.53939
2.424636
2.266757
2.0665
1.885745
1.702364
1.537547
1.537547
1.457107
1.393543
1.414356
1.534172
1.697677
1.907121
2.138878
2.353759
2.498701
2.498701
2.573141
2.568641
2.4627
2.316446
2.12144
1.924934
1.737615
1.579548
1.493483
1.493483
1.426544
1.444919
1.558735
1.71849
1.923246
2.167191
2.357697
2.524952
2.524952
2.593392
2.597892
2.498514
2.343446
2.142628
1.951747
1.748116
1.606174
1.504358
1.504358
1.432919
1.435731
1.542797
1.70724
1.923809
2.138315
2.347947
2.52739
2.593579
2.593579
2.594329
2.495889
2.338759
2.143565
1.957935
1.771554
1.609549
1.509233
1.429169
1.429169
1.429731
1.524796
1.683614
1.892495
2.11844
2.323008
2.494764
2.579516
2.594517
2.594517
2.496639
2.343259
2.157066
1.95831
1.763491
1.599424
1.493483
1.411918
1.411918
1.408918
1.507733
1.657176
1.853494
2.071001
2.28307
2.459137
2.521014
2.519139
2.519139
2.418824
2.268632
2.079251
1.879932
1.686427
1.515609
1.406855
1.333916
1.30954
1.30954
1.38473
1.532672
1.734803
1.949122
2.157066
2.356947
2.423699
2.447512
2.363509
2.363509
2.209005
2.017374
1.826868
1.634862
1.453544
1.336728
1.283477
1.266601
1.331291
1.331291
1.462545
1.666551
1.869807
2.097814
2.28232
2.362947
2.387698
2.305195
2.14544
2.14544
1.960747
1.768929
1.565485
1.398605
1.291164
1.261539
1.257788
1.278789
1.278789
1.386042
1.585361
1.79368
2.022812
2.211817
2.315133
2.344759
2.27932
2.13419
2.13419
1.951935
1.763866
1.572235
1.396355
1.30054
1.265664
1.258351
1.283289
1.410606
1.410606
1.606549
1.820681
2.036312
2.239381
2.338946
2.380198
2.323946
2.188754
2.013249
2.013249
1.824431
1.629237
1.454107
1.327165
1.278414
1.267351
1.306915
1.439856
1.646863
1.646863
1.866057
2.104564
2.311758
2.427636
2.47245
2.424074
2.300695
1.946497
1.761991
1.761991
1.598861
1.46892
1.395793
1.361479
1.437794
1.574486
1.776429
1.989811
2.235443
2.235443
2.445825
2.563203
2.615517
2.588329
2.466638
2.296383
2.107939
1.919121
1.753553
1.753553
1.614612
1.535484
1.489733
1.552547
1.686802
1.872995
2.082626
2.321321
2.526265
2.526265
2.60933
2.657894
2.622643
2.54014
2.370447
2.183692
1.990373
1.822181
1.822181
1.666176
1.580111
1.529297
1.578236
1.696364
1.882183
2.087126
2.317946
2.524202
2.524202
2.611955
2.661831
2.626205
2.553078
2.384323
2.190442
1.999936
1.818056
1.665801
1.665801
1.584236
1.525172
1.559673
1.683614
1.862119
2.063125
2.301445
2.505639
2.597892
2.597892
2.658456
2.631643
2.557016
2.39201
2.204317
2.008936
1.830431
1.673114
1.581048
1.581048
1.521421
1.546922
1.665426
1.840744
2.047
2.276882
2.487076
2.602204
2.642143
2.642143
2.629768
2.567703
2.409074
2.21088
2.022062
1.844681
1.680239
1.599424
1.599424
1.536422
1.545235
1.667301
1.835118
2.0455
2.273132
2.488576
2.599392
2.643831
2.643831
2.629768
2.582516
2.420324
2.22213
2.04025
1.854057
1.691302
1.597361
1.531547
1.531547
1.548235
1.659988
1.825931
2.030687
2.265257
2.467388
2.602017
2.652456
2.649831
2.649831
2.588142
2.437574
2.242381
2.04475
1.859307
1.695239
1.597549
1.529859
1.53961
1.53961
1.642175
1.800055
2.011749
2.231881
2.444325
2.593579
2.644206
2.647956
2.590017
2.590017
2.447512
2.258319
2.068938
1.881432
1.71924
1.615362
1.537547
1.539422
1.539422
1.645363
1.797242
1.999374
2.230943
2.441137
2.593579
2.645331
2.661831
2.602017
2.602017
2.470763
2.285507
2.085439
1.899621
1.737803
1.623612
1.54711
1.542422
1.644613
1.644613
1.798367
2.001998
2.22363
2.435887
2.603704
2.650768
2.661831
2.60483
2.497576
2.497576
2.312696
2.125565
1.932059
1.766304
1.647613
1.566235
1.557797
1.647613
1.792742
1.792742
2.004061
2.22213
2.445262
2.598267
2.658081
2.661831
2.622643
2.530765
2.530765
2.344572
2.149566
1.950622
1.78843
1.668801
1.591924
1.56436
1.656051
1.794617
1.794617
1.998811
2.217443
2.438137
2.592267
2.654894
2.661831
2.636518
2.533765
2.353759
2.353759
2.161378
1.974248
1.798367
1.677989
1.600174
1.562298
1.639738
1.768554
1.973685
1.973685
2.191192
2.425011
2.585704
2.655831
2.661644
2.63333
2.542953
2.36876
2.176379
2.176379
1.975373
1.811493
1.685676
1.610299
1.575048
1.647613
1.784117
1.983248
1.983248
2.191567
2.421449
2.592454
2.653206
2.661644
2.641393
2.562266
2.389198
2.185942
2.185942
1.995061
1.823681
1.685864
1.606362
1.566985
1.624549
1.751303
1.944622
2.156878
2.156878
2.38451
2.576704
2.62733
2.661644
2.630518
2.541078
2.37026
2.179191
1.982686
1.982686
1.824993
1.678176
1.597174
1.569235
1.62905
1.759741
1.95531
2.167191
2.398386
2.398386
2.574454
2.654706
2.661831
2.661831
2.585704
2.428387
2.232631
2.036875
1.866994
1.866994
1.725803
1.6433
1.595299
1.64705
1.773429
1.965622
2.175816
2.404761
2.404761
2.573141
2.656581
2.661644
2.661831
2.593579
2.455762
2.263194
2.067063
1.88912
1.88912
1.745303
1.65305
1.611612
1.650238
1.769491
1.954935
2.168879
2.407573
2.577266
2.577266
2.661831
2.661644
2.661831
2.618517
2.494201
2.304258
2.106064
1.930746
1.769679
1.769679
1.674239
1.616674
1.659613
1.775679
1.958872
2.166629
2.405136
2.582891
2.661831
2.661831
2.661831
2.661644
2.62358
2.509952
2.314945
2.115627
1.931497
1.771742
1.771742
1.684551
1.621362
1.647988
1.770429
1.946309
2.153503
2.39426
2.580641
2.661831
2.661831
2.661644
2.661644
2.633143
2.539765
2.335571
2.136628
1.938809
1.770617
1.675364
1.675364
1.614049
1.62605
1.752241
1.931497
2.126878
2.355447
2.551578
2.582704
2.646456
2.646456
2.602204
2.477138
2.294883
2.106439
1.860619
1.635612
1.450357
1.366354
1.317978
1.317978
1.359041
1.496108
1.89287
2.334071
2.596392
2.661831
2.661456
2.661456
2.661456
2.661456
2.661269
2.661081
2.661269
2.661081
2.661456
2.619642
2.506389
2.355634
2.355634
2.30557
2.374197
2.502451
2.628268
2.661456
2.661269
2.660894
2.661081
2.661081
2.661081
2.661269
2.661644
2.563391
2.347759
2.11919
1.905058
1.762554
1.654363
1.62155
1.62155
1.702364
1.833993
2.024499
2.241443
2.450325
2.600704
2.651518
2.661644
2.598079
2.598079
2.477701
2.286257
2.099689
1.914996
1.748491
1.62905
1.550672
1.537922
1.631112
1.631112
1.789742
2.001061
2.227568
2.43945
2.589454
2.653769
2.661831
2.623018
2.623018
2.503951
2.319071
2.119002
1.922121
1.753179
1.642363
1.561548
1.548985
1.632425
1.632425
1.782804
1.998249
2.21613
2.440199
2.593954
2.655081
2.661831
2.631268
2.515764
2.515764
2.332759
2.14694
1.945747
1.771742
1.661676
1.580673
1.561923
1.639175
1.779992
1.779992
1.982873
2.202817
2.434387
2.590392
2.657144
2.661831
2.624518
2.543703
2.350009
2.350009
2.154066
1.96506
1.800617
1.676864
1.588548
1.56811
1.64555
1.78693
1.78693
1.989248
2.202817
2.426887
2.594517
2.656394
2.661831
2.637268
2.553265
2.36801
2.36801
2.173941
1.980248
1.806055
1.676301
1.587986
1.552547
1.627362
1.757866
1.959435
1.959435
2.176754
2.406261
2.581954
2.643643
2.661831
2.632955
2.540515
2.360697
2.164754
2.164754
1.97331
1.79818
1.662051
1.577486
1.536047
1.596611
1.725615
1.924746
2.142066
2.142066
2.368572
2.568078
2.604642
2.661831
2.62208
2.52814
2.349259
2.147316
2.147316
1.946122
1.773054
1.632612
1.545047
1.497608
1.546172
1.672551
1.851431
2.063125
2.063125
2.296383
2.497014
2.605767
2.597142
2.597517
2.475638
2.300883
2.095189
1.89287
1.89287
1.715865
1.56061
1.470607
1.414543
1.459732
1.582173
1.765554
1.974435
2.199817
2.199817
2.409261
2.529452
2.573141
2.538077
2.406823
2.227005
2.029749
1.836244
1.657551
1.657551
1.505671
1.409855
1.354166
1.400855
1.519171
1.697677
1.906371
2.13569
2.343071
2.343071
2.471138
2.533577
2.504889
2.382823
2.209567
2.014374
1.822743
1.638238
1.638238
1.489358
1.40498
1.354916
1.38923
1.501358
1.688864
1.905246
2.140003
2.351697
2.351697
2.485389
2.554953
2.540328
2.430074
2.265257
2.071751
1.87862
1.696739
1.541484
1.541484
1.453357
1.400668
1.424106
1.557797
1.732928
1.947809
2.187254
2.412449
2.557953
2.557953
2.604455
2.602017
2.512952
2.357884
2.177129
1.989998
1.819555
1.667863
1.588173
1.588173
1.538484
1.565298
1.679489
1.860432
2.076063
2.315696
2.531515
2.631455
2.631455
2.661644
2.661831
2.631455
2.524765
2.337821
2.151066
1.969185
1.815805
1.730303
1.730303
1.664301
1.678364
1.794617
1.966373
2.177504
2.412636
2.581954
2.660144
2.661269
2.661269
2.661644
2.661644
2.602954
2.44245
2.251756
2.070251
1.899621
1.795367
1.71924
1.71924
1.717177
1.809055
1.977998
2.185379
2.422386
2.602392
2.661644
2.661644
2.661456
2.661456
2.661644
2.604455
2.440762
2.243693
1.87937
1.774929
1.693364
1.694864
1.790117
1.930371
1.930371
2.135503
2.372135
2.568078
2.661644
2.661456
2.661644
2.661831
2.588329
2.588329
2.422199
2.231318
2.03125
1.859682
1.740241
1.671051
1.662613
1.756929
1.900183
1.900183
2.103627
2.314008
2.537515
2.649456
2.661831
2.661644
2.661644
2.571828
2.414699
2.414699
2.221943
2.028812
1.851807
1.732553
1.649488
1.631487
1.72524
1.87487
2.085626
2.085626
2.302945
2.516514
2.61683
2.661831
2.661644
2.661831
2.584579
2.426136
2.222318
2.222318
2.030312
1.861369
1.753741
1.667113
1.644425
1.71099
1.867932
2.070251
2.298633
2.298633
2.52514
2.648143
2.661644
2.661644
2.661831
2.600517
2.4477
2.245944
2.245944
2.046813
1.878245
1.763304
1.683051
1.660551
1.723553
1.859119
2.058813
2.288882
2.288882
2.521765
2.638768
2.661644
2.661644
2.661831
2.619267
2.475826
2.290195
2.088439
2.088439
1.917246
1.774742
1.698989
1.668238
1.744366
1.876932
2.067438
2.261132
2.505639
2.505639
2.639893
2.661644
2.661456
2.661644
2.592829
2.490263
2.300883
2.110564
1.946872
1.946872
1.802118
1.706865
1.657738
1.731053
1.866994
2.068938
2.279507
2.499826
2.499826
2.615142
2.661644
2.661644
2.661644
2.62958
2.516327
2.312508
2.123315
1.945747
1.945747
1.810368
1.725428
1.673301
1.706677
1.845056
2.048312
2.265819
2.494951
2.630705
2.630705
2.661456
2.661456
2.661644
2.63408
2.523452
2.320383
2.124065
1.947434
1.802118
1.802118
1.71849
1.671239
1.709677
1.828743
2.000874
2.231693
2.470201
2.629205
2.661644
2.661644
2.661456
2.661644
2.62958
2.536952
2.349259
2.147691
1.96281
1.797617
1.712115
1.712115
1.659988
1.699177
1.81918
1.998999
2.194379
2.433262
2.61308
2.661644
2.661644
2.661456
2.661644
2.604267
2.51614
2.322821
2.128752
1.956997
1.791617
1.690364
1.690364
1.615737
1.662051
1.783367
1.962622
2.174316
2.408886
2.574079
2.661456
2.661644
2.661644
2.661831
2.635393
2.547453
2.346822
2.161753
1.985311
1.832868
1.740616
1.671614
1.671614
1.671614
1.792742
1.976873
2.187629
2.426699
2.602767
2.661644
2.661456
2.661644
2.661644
2.654144
2.560953
2.373447
2.177691
1.994123
1.837931
1.742678
1.686802
1.686802
1.689989
1.78843
1.940872
2.178254
2.421074
2.592829
2.661644
2.661644
2.661456
2.661456
2.659206
2.581766
2.405699
2.212755
2.023749
1.842056
1.749991
1.687364
1.693927
1.693927
1.812805
1.974248
2.159691
2.38601
2.589454
2.661644
2.661644
2.661644
2.639893
2.639893
2.566016
2.419199
2.22288
2.038937
1.870557
1.765929
1.668988
1.689052
1.793117
1.793117
1.961872
2.156878
2.391823
2.556078
2.661644
2.661456
2.661456
2.661831
2.661831
2.593579
2.417699
2.230756
2.047937
1.878995
1.770804
1.689989
1.671614
1.777367
1.777367
1.940309
2.150128
2.390136
2.569391
2.659581
2.661644
2.661644
2.659019
2.585141
2.585141
2.433074
2.235068
2.015311
1.830243
1.698802
1.593986
1.507546
1.56061
1.601111
1.601111
1.847119
2.03725
2.203942
2.37176
2.4477
2.478638
2.357322
2.249131
2.133815
2.133815
2.129128
2.143378
2.05225
1.917808
1.786555
1.796305
1.947622
2.190067
2.480701
2.480701
2.642518
2.660894
2.660331
2.660331
2.660331
2.660706
2.660706
2.661269
2.661269
2.655831
2.55514
2.359197
2.194004
2.051875
1.992811
2.037625
2.135878
2.302195
2.302195
2.485763
2.582141
2.658831
2.661644
2.661456
2.661831
2.569016
2.378697
2.177316
2.177316
1.986436
1.775117
1.669926
1.577111
1.529484
1.603736
1.765366
1.970685
2.194567
2.194567
2.412824
2.566766
2.60633
2.661831
2.625643
2.539202
2.35901
2.176379
1.948372
1.948372
1.794055
1.659801
1.584611
1.551797
1.618924
1.721678
1.936559
2.166441
2.166441
2.408511
2.580454
2.645331
2.651706
2.616642
2.564141
2.391635
2.19888
2.004436
2.004436
1.823493
1.679864
1.612924
1.577298
1.63955
1.760866
1.949685
2.155941
2.410011
2.410011
2.582891
2.652831
2.661831
2.638018
2.564516
2.417511
2.227005
2.033124
1.858744
1.858744
1.718115
1.621737
1.580861
1.638613
1.773054
1.95756
2.167191
2.383573
2.572579
2.572579
2.646643
2.661644
2.662019
2.584391
2.428199
2.224568
2.039312
1.875432
1.713427
1.713427
1.626425
1.568298
1.603362
1.746616
1.936934
2.145815
2.359385
2.548203
2.548203
2.595267
2.661644
2.660331
2.586829
2.453325
2.254756
2.0365
1.865307
1.713052
1.713052
1.635425
1.574298
1.602049
1.704802
1.89062
2.11619
2.354509
2.558328
2.626018
2.626018
2.661831
2.645518
2.587391
2.442637
2.257756
2.051687
1.862682
1.707615
1.630737
1.630737
1.56436
1.595111
1.701802
1.872995
2.067438
2.318133
2.52964
2.609142
2.661831
2.661831
2.651518
2.558516
2.425761
2.22588
2.027124
1.855932
1.689427
1.581986
1.581986
1.509796
1.539984
1.668613
1.833056
2.001811
2.257756
2.4522
2.593767
2.593579
2.593579
2.595454
2.54614
2.377198
2.169441
1.975748
1.796492
1.627737
1.515796
1.447357
1.447357
1.444169
1.561548
1.72899
1.937684
2.164754
2.375135
2.514077
2.584766
2.594892
2.594892
2.491201
2.318133
2.12219
1.920246
1.734615
1.57336
1.472295
1.408355
1.413231
1.413231
1.506234
1.665238
1.885558
2.124627
2.347384
2.523077
2.563578
2.572954
2.572954
2.480513
2.312696
2.164379
1.954935
1.758616
1.580298
1.496296
1.427856
1.437794
1.437794
1.54336
1.696927
1.872807
2.124253
2.349259
2.526265
2.598267
2.617392
2.527765
2.527765
2.379822
2.191942
2.006124
1.830431
1.656801
1.551235
1.48017
1.488983
1.602237
1.602237
1.763304
1.968248
2.193254
2.412449
2.600329
2.655081
2.661831
2.614767
2.519889
2.519889
2.309883
2.158753
1.956997
1.778679
1.696552
1.623612
1.586861
1.703115
1.87337
1.87337
2.06725
2.30407
2.526827
2.600517
2.661644
2.661644
2.661831
2.578579
2.578579
2.431949
2.232443
2.041187
1.881432
1.768929
1.691114
1.660176
1.746053
1.883495
1.883495
2.104002
2.325634
2.544078
2.647018
2.661644
2.661644
2.661831
2.608955
2.466263
2.466263
2.268069
2.066688
1.887995
1.776992
1.693552
1.659051
1.737615
1.875432
2.05075
2.05075
2.275569
2.518389
2.640643
2.661644
2.661644
2.638768
2.587579
2.4462
2.253444
2.253444
2.06425
1.878807
1.73049
1.651925
1.627362
1.702177
1.843369
2.030499
2.030499
2.239943
2.45745
2.62283
2.661644
2.661644
2.661644
2.585891
2.426136
2.227943
2.227943
2.033875
1.86737
1.739116
1.651738
1.582923
1.662426
1.79518
1.988873
2.207692
2.207692
2.433449
2.566578
2.640831
2.661644
2.652269
2.565641
2.394073
2.215943
2.010999
2.010999
1.836056
1.698239
1.605424
1.584236
1.620424
1.72524
1.935247
2.155003
2.394635
2.394635
2.567141
2.617767
2.616455
2.633893
2.576704
2.411136
2.219318
2.009686
1.828368
1.828368
1.691677
1.608799
1.557985
1.607487
1.727678
1.898495
2.115252
2.355259
2.355259
2.562828
2.620205
2.661831
2.602954
2.559078
2.407948
2.218568
2.024312
1.843181
1.843181
1.593049
1.54636
1.592861
1.725803
1.896808
2.101377
2.314383
2.54839
2.602954
2.661831
2.661831
2.647768
2.573141
2.390886
2.22138
2.018499
1.855557
1.713427
1.588173
1.538859
1.538859
1.579548
1.699177
1.883495
2.090501
2.326759
2.524577
2.587391
2.658831
2.640831
2.640831
2.574079
2.419949
2.211255
2.025062
1.850119
1.700677
1.617612
1.54561
1.569048
1.569048
1.670676
1.86737
2.080564
2.314758
2.508077
2.594141
2.602579
2.645706
2.645706
2.580266
2.440574
2.255506
2.041375
1.859307
1.697489
1.608049
1.539422
1.570735
1.570735
1.679114
1.831368
2.034062
2.280632
2.490076
2.603704
2.661831
2.618705
2.559828
2.559828
2.43945
2.242193
2.0635
1.871307
1.706302
1.599986
1.536984
1.561173
1.674989
1.674989
1.81168
2.033499
2.234318
2.467575
2.596767
2.649268
2.636706
2.584016
2.414136
2.414136
2.232443
2.050188
1.869244
1.710052
1.609362
1.511109
1.510734
1.655676
1.655676
1.787117
2.024312
2.240881
2.437012
2.587016
2.626955
2.650956
2.587954
2.442637
2.442637
2.255506
2.041
1.860432
1.705927
1.609549
1.513171
1.509046
1.580111
1.752991
1.752991
1.977435
2.20638
2.413199
2.584579
2.581204
2.603517
2.578016
2.427449
2.227755
2.227755
2.028437
1.844681
1.668051
1.56136
1.495733
1.479795
1.582736
1.73799
1.926809
1.926809
2.163628
2.364447
2.559266
2.604642
2.588892
2.575391
2.4417
2.251756
2.251756
2.071188
1.864932
1.706115
1.584423
1.518046
1.473982
1.596799
1.737803
1.925121
1.925121
2.160816
2.37401
2.563578
2.601079
2.600142
2.591892
2.465138
2.282507
2.083189
2.083189
1.89212
1.724865
1.615737
1.531734
1.499483
1.581236
1.733303
1.936559
2.153503
2.153503
2.37401
2.560766
2.609142
2.638393
2.594704
2.462888
2.300508
2.094814
1.911433
1.911433
1.745116
1.603549
1.540922
1.506984
1.580111
1.705739
1.915371
2.135503
2.135503
2.359385
2.560766
2.583641
2.628455
2.605017
2.485763
2.303883
2.106627
1.924934
1.924934
1.768929
1.632425
1.555547
1.501171
1.583111
1.714365
1.896808
2.12669
2.350009
2.350009
2.545953
2.597329
2.629955
2.591142
2.494951
2.324321
2.130065
1.932434
1.759366
1.759366
1.6298
1.550297
1.518234
1.560048
1.701427
1.880682
2.061438
2.290945
2.489513
2.489513
2.587954
2.605205
2.602392
2.471325
2.284945
2.082814
1.858557
1.646113
1.445107
1.445107
1.31029
1.268664
1.281414
1.344791
1.515046
1.718115
1.947434
2.147503
2.147503
2.236381
2.351509
2.394823
2.497576
2.487638
2.319446
2.078688
1.906183
1.787304
1.787304
1.851807
1.88762
2.011561
2.372698
2.632393
2.661644
2.661081
2.660519
2.660706
2.660706
2.660519
2.660894
2.661081
2.661456
2.614767
2.404386
2.159878
1.989248
1.865682
1.865682
1.775679
1.763679
1.830056
1.95231
2.129877
2.329384
2.504889
2.591142
2.595642
2.595642
2.548765
2.4462
2.285132
2.079063
1.88312
1.689239
1.537547
1.442482
1.442482
1.38323
1.413043
1.537172
1.697864
1.896808
2.12444
2.339884
2.47245
2.54614
2.54614
2.517827
2.392198
2.229068
2.040625
1.846744
1.662238
1.511109
1.425793
1.334478
1.334478
1.375542
1.494796
1.679114
1.878995
2.107377
2.316258
2.46495
2.537515
2.524765
2.524765
2.419574
2.266569
2.044187
1.865682
1.677051
1.521609
1.431419
1.364104
1.367479
1.367479
1.503421
1.670488
1.869995
2.102689
2.285882
2.467013
2.529265
2.538265
2.538265
2.423512
2.270882
2.068938
1.876182
1.699364
1.532859
1.434231
1.367479
1.37873
1.37873
1.485795
1.641237
1.866057
2.080376
2.280632
2.440574
2.519702
2.533015
2.428387
2.428387
2.279132
2.084314
1.890433
1.710427
1.554047
1.436669
1.361854
1.380042
1.471732
1.471732
1.633362
1.833431
2.043625
2.280445
2.446387
2.510139
2.522702
2.422199
2.269569
2.269569
2.085251
1.897933
1.715677
1.533797
1.426919
1.362229
1.342541
1.454294
1.600174
1.600174
1.806243
2.022812
2.241256
2.413949
2.491014
2.511827
2.419011
2.266382
2.266382
2.067626
1.88687
1.692802
1.518796
1.393355
1.343104
1.326228
1.394668
1.54186
1.54186
1.752616
1.971435
2.173754
2.338009
2.441887
2.448075
2.37251
2.235443
2.03875
2.03875
1.842244
1.648175
1.464232
1.354916
1.296977
1.284414
1.335978
1.473045
1.681926
1.681926
1.891183
2.106064
2.291132
2.373447
2.395761
2.307445
2.163441
1.974623
1.776242
1.776242
1.578236
1.413793
1.29829
1.265101
1.258913
1.279914
1.39298
1.591549
1.591549
1.80943
2.025624
2.215943
2.308571
2.330321
2.253444
2.110752
1.940309
1.72674
1.72674
1.562673
1.38098
1.284602
1.258351
1.254976
1.273726
1.369167
1.569235
1.788242
1.788242
2.016249
2.21688
2.30182
2.344759
2.29057
2.144691
1.964872
1.787117
1.588361
1.588361
1.418856
1.309352
1.271101
1.259101
1.283852
1.391105
1.600361
1.800242
2.029562
2.029562
2.229818
2.342509
2.398948
2.342696
2.21088
2.040062
1.838119
1.659613
1.521609
1.521609
1.360729
1.294165
1.296602
1.354354
1.468732
1.688676
1.886683
2.123502
2.123502
2.297695
2.489138
2.512577
2.466638
2.340259
2.184629
2.010811
1.807555
1.648363
1.648363
1.521234
1.466857
1.414731
1.452232
1.588361
1.782242
2.001436
2.238443
2.475826
2.475826
2.563953
2.618517
2.574641
2.466638
2.290757
2.092376
1.901683
1.741553
1.602611
1.602611
1.497233
1.460482
1.517109
1.606362
1.833993
2.012874
2.238818
2.454262
2.578204
2.578204
2.609704
2.599017
2.491201
2.307633
2.115064
1.930746
1.769304
1.612549
1.612549
1.520296
1.455982
1.48992
1.613299
1.800242
1.999561
2.227943
2.423324
2.557016
2.557016
2.619455
2.602017
2.486888
2.323383
2.13194
1.929996
1.753179
1.597736
1.506421
1.506421
1.441731
1.465545
1.585361
1.759741
1.969373
2.197942
2.407198
2.53939
2.603704
2.603704
2.582329
2.475075
2.319633
2.130627
1.925871
1.695802
1.595861
1.497796
1.434231
1.434231
1.46667
1.570735
1.729178
1.941247
2.176941
2.37851
2.537327
2.598079
2.588704
2.588704
2.482013
2.305008
2.11694
1.921184
1.747928
1.589861
1.491983
1.423168
1.423168
1.450732
1.54861
1.717365
1.921371
2.150128
2.358072
2.505264
2.575204
2.575016
2.575016
2.483701
2.325258
2.121815
1.936372
1.758054
1.599986
1.491796
1.424668
1.433856
1.433856
1.541484
1.704239
1.89362
2.122752
2.350009
2.499451
2.585141
2.578954
2.498889
2.498889
2.341197
2.143003
1.95831
1.777929
1.6223
1.505671
1.435919
1.431419
1.538859
1.538859
1.689052
1.89887
2.11619
2.345321
2.513139
2.588517
2.600329
2.515202
2.515202
2.357135
2.171316
1.983998
1.793117
1.631862
1.506796
1.442294
1.425793
1.532109
1.532109
1.676864
1.87937
2.107002
2.321133
2.498139
2.582141
2.598829
2.521577
2.374197
2.374197
2.191942
2.002186
1.806805
1.627362
1.536047
1.447544
1.431981
1.530422
1.683239
1.683239
1.877495
2.096314
2.308196
2.499639
2.587766
2.607267
2.53639
2.388635
2.201317
2.201317
2.013249
1.81318
1.638238
1.532297
1.459732
1.503046
1.656051
1.87112
2.0635
2.0635
2.278944
2.470763
2.563953
2.591704
2.518952
2.390136
2.196442
2.001998
1.81693
1.81693
1.647238
1.523296
1.447732
1.413043
1.496108
1.621737
1.840556
2.037625
2.255506
2.255506
2.459888
2.556266
2.591329
2.52889
2.394448
2.21238
2.011374
1.822368
1.654551
1.654551
1.529672
1.454107
1.418856
1.47042
1.628862
1.821618
2.02825
2.247256
2.247256
2.445637
2.542203
2.588329
2.52589
2.385073
2.208255
2.015687
1.825181
1.664113
1.664113
1.536422
1.448857
1.408543
1.470795
1.594174
1.78843
2.004061
2.236756
2.430449
2.430449
2.539015
2.579516
2.536765
2.413574
2.224755
2.033312
1.842431
1.671988
1.508671
1.508671
1.443607
1.393543
1.446232
1.584423
1.761991
1.982123
2.189504
2.382823
2.495326
2.495326
2.550453
2.512014
2.373822
2.195129
2.002561
1.810555
1.637862
1.502108
1.502108
1.414168
1.388105
1.415856
1.564548
1.746241
1.96731
2.184629
2.389948
2.513702
2.513702
2.577079
2.541828
2.427074
2.259256
2.058625
1.863057
1.686051
1.54411
1.453732
1.453732
1.413981
1.446982
1.562485
1.748116
1.964872
2.198317
2.406261
2.532452
2.592642
2.592642
2.562453
2.437199
2.275194
2.087501
1.894183
1.721865
1.567548
1.479233
1.427294
1.427294
1.459357
1.575423
1.754116
1.958122
2.192129
2.400261
2.533952
2.598079
2.598079
2.579329
2.468513
2.296195
2.106064
1.913121
1.738741
1.588923
1.48917
1.425606
1.425606
1.451107
1.572048
1.739116
1.948372
2.186504
2.39501
2.54314
2.598642
2.581391
2.581391
2.472263
2.312696
2.115064
1.935247
1.761804
1.604299
1.504171
1.433294
1.453169
1.453169
1.568673
1.730303
1.942934
2.173379
2.371947
2.529265
2.582704
2.598829
2.500576
2.500576
2.339696
2.150503
1.959435
1.776992
1.606737
1.498921
1.415293
1.411356
1.521609
1.521609
1.680801
1.87937
2.120127
2.330696
2.487076
2.54464
2.52514
2.370822
2.370822
2.163253
1.923996
1.70949
1.503421
1.321915
1.257788
1.249913
1.250476
1.269226
1.269226
1.345541
1.560798
1.846931
2.281382
2.604642
2.661644
2.639143
2.579891
2.426324
2.426324
2.372885
2.323196
2.29732
2.369135
2.412074
2.367447
2.349072
2.390511
2.496076
2.496076
2.602017
2.661831
2.661456
2.661081
2.661081
2.661269
2.661456
2.646081
2.496451
2.496451
2.263757
2.039312
1.844681
1.693927
1.570173
1.512796
1.560985
1.677426
1.677426
1.831743
2.042687
2.249319
2.416949
2.486326
2.500389
2.416199
2.264132
2.094064
2.094064
1.903558
1.711365
1.542047
1.427669
1.351729
1.336353
1.407418
1.551235
1.753928
1.753928
1.981748
2.189129
2.378135
2.468888
2.503014
2.429699
2.287195
2.103439
1.914058
1.914058
1.724303
1.562485
1.444357
1.371417
1.347041
1.422418
1.557235
1.768929
1.981935
1.981935
2.209192
2.403636
2.494389
2.525515
2.432512
2.327696
2.140378
1.952497
1.764616
1.764616
1.589486
1.466107
1.387355
1.358292
1.439856
1.578611
1.775304
1.989623
1.989623
2.211067
2.405886
2.507701
2.548953
2.483888
2.346822
2.172441
1.981748
1.778117
1.778117
1.612737
1.484858
1.40723
1.365979
1.425231
1.556298
1.758241
1.968623
2.194754
2.194754
2.394073
2.497951
2.55064
2.496451
2.356947
2.180504
1.989998
1.797242
1.624549
1.624549
1.48842
1.40573
1.362604
1.422043
1.549172
1.733678
1.954185
2.179941
2.377385
2.377385
2.484263
2.533015
2.484263
2.35751
2.188942
1.992061
1.796492
1.627362
1.627362
1.479608
1.395043
1.351916
1.403105
1.528547
1.712865
1.917434
2.150878
2.350009
2.350009
2.4672
2.515764
2.476013
2.342884
2.170941
1.976123
1.780742
1.607674
1.458232
1.458232
1.364667
1.318728
1.359979
1.479795
1.657926
1.860994
2.092001
2.28832
2.409636
2.409636
2.463638
2.427636
2.298445
2.131002
1.929996
1.740991
1.564735
1.407605
1.321728
1.321728
1.278414
1.296602
1.397105
1.574861
1.779617
2.016624
2.223255
2.347384
2.347384
2.403448
2.370635
2.248381
2.081501
1.884433
1.687551
1.510359
1.350416
1.282727
1.282727
1.263601
1.269039
1.336728
1.501546
1.706302
1.937497
2.145815
2.28682
2.353759
2.353759
2.336884
2.22288
2.071563
1.878807
1.686427
1.506608
1.351729
1.285539
1.261539
1.261539
1.272789
1.357541
1.532297
1.723178
1.989061
2.221943
2.37776
2.462138
2.457825
2.457825
2.342509
2.183317
1.999749
1.812055
1.6358
1.476233
1.365229
1.30579
1.332603
1.332603
1.446794
1.617612
1.823118
2.0485
2.243131
2.422199
2.511077
2.517639
2.517639
2.424824
2.263007
2.070626
1.898495
1.718865
1.569798
1.48842
1.413793
1.402355
1.402355
1.524234
1.71024
1.921184
2.167191
2.384323
2.540515
2.590392
2.605955
2.557766
2.557766
2.423136
2.245381
2.04775
1.861557
1.70949
1.610299
1.539984
1.544485
1.632987
1.632987
1.772679
1.999186
2.228131
2.441324
2.595267
2.617205
2.601829
2.589454
2.458575
2.458575
2.275569
2.084689
1.890808
1.72824
1.621737
1.546922
1.536422
1.6283
1.778117
1.778117
1.98081
2.201692
2.420136
2.594329
2.622267
2.659956
2.593017
2.464575
2.464575
2.285882
2.091251
1.896058
1.733115
1.618924
1.533609
1.521984
1.617612
1.757679
1.757679
1.961497
2.183504
2.400636
2.585516
2.610642
2.654706
2.595829
2.471325
2.290757
2.290757
2.097626
1.901683
1.737615
1.623425
1.540359
1.514671
1.594174
1.735178
1.941622
1.941622
2.158753
2.378323
2.572204
2.592454
2.637081
2.596767
2.477888
2.296757
2.102689
2.102689
1.907683
1.743803
1.624175
1.54561
1.517484
1.587611
1.71774
1.921559
1.921559
2.141315
2.368385
2.553453
2.602767
2.602579
2.597892
2.494014
2.313071
2.12744
2.12744
1.939747
1.763679
1.6358
1.553672
1.521609
1.596424
1.727303
1.923996
2.129503
2.129503
2.35901
2.563766
2.611392
2.661644
2.596579
2.525515
2.371385
2.189692
1.999374
1.999374
1.837368
1.696739
1.585923
1.569798
1.644613
1.772117
1.96806
2.173191
2.37176
2.37176
2.571078
2.649831
2.661644
2.633518
2.572391
2.400823
2.207505
2.022437
1.847494
1.847494
1.723178
1.63055
1.555547
1.613862
1.766679
1.955872
2.168316
2.394073
2.394073
2.553828
2.610642
2.662019
2.647206
2.587954
2.428387
2.231318
2.022249
1.856682
1.856682
1.71774
1.635425
1.583861
1.618549
1.711365
1.923621
2.14094
2.38001
2.556641
2.556641
2.633705
2.632955
2.63483
2.590767
2.439637
2.251194
2.04775
1.866432
1.713427
1.713427
1.633362
1.578986
1.629237
1.743241
1.909371
2.104377
2.363322
2.558141
2.633143
2.633143
2.661831
2.632393
2.578016
2.450325
2.265257
2.081688
1.89587
1.736115
1.736115
1.634112
1.587799
1.619299
1.752053
1.911621
2.121815
2.324321
2.540328
2.626018
2.626018
2.661831
2.661831
2.596767
2.454262
2.255506
2.073063
1.897183
1.747928
1.64405
1.64405
1.564548
1.553672
1.658676
1.819931
2.017936
2.246694
2.440762
2.571453
2.595829
2.595829
2.60933
2.547265
2.376822
2.184817
1.985873
1.802118
1.64105
1.55761
1.488983
1.488983
1.503233
1.580486
1.982498
2.213318
2.425199
2.576141
2.574829
2.600892
2.532452
2.378885
2.378885
2.196255
1.992998
1.799867
1.629425
1.533422
1.460107
1.488983
1.578611
1.578611
1.725428
1.908058
2.158566
2.373447
2.55364
2.61308
2.60483
2.490638
2.347009
2.347009
2.168316
1.988311
1.788617
1.63655
1.526297
1.465357
1.473232
1.587423
1.732553
1.732553
1.945747
2.153878
2.36951
2.561891
2.608017
2.590017
2.569953
2.412824
2.212193
2.212193
2.029187
1.839056
1.684926
1.566985
1.480358
1.461795
1.580486
1.738741
1.95306
1.95306
2.173941
2.382073
2.548015
2.602579
2.593392
2.590392
2.434012
2.251194
2.251194
2.051687
1.865494
1.701427
1.598111
1.516546
1.508484
1.560423
1.714552
1.937872
1.937872
2.177129
2.396886
2.575579
2.581204
2.581579
2.585704
2.443199
2.277632
2.076626
2.076626
1.886683
1.696177
1.599799
1.520671
1.510171
1.589674
1.730115
1.902058
2.148253
2.148253
2.376822
2.555328
2.616267
2.638768
2.564516
2.457825
2.285132
2.109439
1.902996
1.902996
1.73349
1.599986
1.520296
1.501546
1.581048
1.72299
1.920996
2.116565
2.116565
2.338009
2.54614
2.600704
2.600329
2.600142
2.476013
2.29207
2.117502
1.913308
1.913308
1.745491
1.601111
1.501921
1.448294
1.530609
1.678551
1.898683
2.103627
2.308008
2.308008
2.470575
2.585891
2.575954
2.492889
2.30557
2.079063
1.864932
1.673864
1.459545
1.459545
1.308602
1.269789
1.259288
1.285352
1.435731
1.749616
2.236193
2.605955
2.661644
2.661644
2.661456
2.661644
2.661644
2.661644
2.596204
2.593017
2.585329
2.585141
2.585141
2.520077
2.379447
2.265819
2.230006
2.304445
2.443199
2.601267
2.661644
2.661456
2.661456
2.661269
2.661269
2.661644
2.657894
2.551203
2.329759
2.099876
1.906371
1.709865
1.709865
1.587611
1.497421
1.508671
1.603174
1.766491
1.959435
2.166441
2.35976
2.476951
2.476951
2.538077
2.498889
2.37401
2.203942
2.013249
1.815243
1.6463
1.484858
1.40198
1.40198
1.343104
1.38923
1.508296
1.686989
1.902246
2.131752
2.333884
2.466075
2.529265
2.529265
2.499826
2.375885
2.209755
2.019249
1.826681
1.654926
1.504171
1.416043
1.416043
1.363354
1.391105
1.508296
1.691302
1.899433
2.136253
2.344759
2.476576
2.539577
2.539577
2.519514
2.404386
2.236006
2.041562
1.851057
1.673676
1.519546
1.429356
1.367667
1.367667
1.392605
1.504358
1.674051
1.888558
2.124253
2.331634
2.474888
2.54689
2.529827
2.529827
2.419761
2.254381
2.062188
1.872057
1.697677
1.530422
1.435919
1.368229
1.386605
1.386605
1.495733
1.660176
1.866432
2.101939
2.309883
2.4567
2.536765
2.525702
2.525702
2.416574
2.253631
2.063313
1.871307
1.686427
1.526297
1.430481
1.353041
1.363167
1.363167
1.470045
1.634675
1.842806
2.074376
2.278382
2.440949
2.511452
2.513139
2.413949
2.413949
2.254756
2.064438
1.86737
1.675551
1.505483
1.40498
1.330728
1.336728
1.426731
1.426731
1.593049
1.791617
2.022624
2.230568
2.391823
2.464013
2.470201
2.372885
2.217443
2.217443
2.028624
1.831556
1.632612
1.467982
1.362604
1.296414
1.29529
1.375542
1.516546
1.516546
1.719802
1.944809
2.160441
2.331071
2.409074
2.412074
2.316821
2.164004
2.164004
1.978748
1.783179
1.581798
1.409293
1.308602
1.268101
1.264726
1.302977
1.431419
1.431419
1.632612
1.849744
2.069313
2.244819
2.324134
2.334071
2.243131
2.089939
1.903746
1.903746
1.706115
1.509796
1.345353
1.271851
1.255163
1.253288
1.268101
1.360729
1.561173
1.561173
1.782054
1.994123
2.183317
2.272757
2.296008
2.218005
2.072313
1.888745
1.698989
1.698989
1.504171
1.345166
1.271101
1.254976
1.253101
1.266601
1.348916
1.550672
1.550672
1.771929
1.999936
2.195129
2.281382
2.323196
2.263381
2.121815
1.938622
1.747928
1.747928
1.549547
1.388855
1.292102
1.263414
1.257413
1.281039
1.388105
1.596236
1.823868
1.823868
2.049438
2.248194
2.355634
2.405699
2.348697
2.21463
2.047188
1.864744
1.676676
1.676676
1.513171
1.39223
1.321915
1.304852
1.374604
1.518984
1.725615
1.937309
2.178629
2.178629
2.395761
2.509577
2.560391
2.518389
2.384135
2.21538
2.037437
1.843931
1.684926
1.684926
1.553297
1.464982
1.431231
1.498171
1.631487
1.821806
2.031437
2.268819
2.268819
2.478451
2.591892
2.591142
2.599392
2.47095
2.298258
2.107189
1.915558
1.742116
1.742116
1.597174
1.509233
1.465545
1.514296
1.643675
1.831556
2.040812
2.269569
2.472075
2.472075
2.582516
2.611205
2.600704
2.476576
2.307445
2.11169
1.910121
1.73274
1.582923
1.582923
1.496671
1.447919
1.48767
1.601674
1.780929
1.999561
2.235068
2.437949
2.557578
2.557578
2.600704
2.579704
2.464013
2.294508
2.100814
1.905621
1.729553
1.567923
1.567923
1.484483
1.428044
1.456919
1.573735
1.756929
1.954935
2.199817
2.397261
2.537702
2.537702
2.600892
2.569766
2.4522
2.288695
2.091626
1.896433
1.718115
1.563798
1.473795
1.473795
1.40573
1.435544
1.553297
1.730678
1.937872
2.161566
2.369135
2.521014
2.594141
2.594141
2.580454
2.469638
2.30257
2.097814
1.915746
1.751678
1.604111
1.526109
1.445294
1.445294
1.423731
1.579548
1.763866
1.97706
2.210505
2.414511
2.53489
2.602204
2.602204
2.605017
2.523827
2.37776
2.168504
1.962247
1.778117
1.6253
1.533797
1.47342
1.47342
1.47942
1.56586
1.71549
1.959997
2.202817
2.416199
2.583454
2.607455
2.557953
2.557953
2.52514
2.378697
2.198317
2.011186
1.813555
1.619862
1.534547
1.47942
1.493671
1.493671
1.602237
1.755991
1.932434
2.141878
2.393511
2.568078
2.584954
2.593392
2.554578
2.554578
2.384323
2.209755
2.027312
1.847306
1.694114
1.575798
1.467045
1.452794
1.583486
1.583486
1.756366
1.96431
2.190254
2.394073
2.542765
2.601829
2.598079
2.574641
2.574641
2.454262
2.257381
2.044
1.850869
1.699364
1.604486
1.529859
1.508109
1.565298
1.565298
1.714177
1.95831
2.192879
2.410573
2.586829
2.608017
2.572204
2.599954
2.472263
2.472263
2.288695
2.097439
1.89737
1.701427
1.596611
1.532859
1.520671
1.613487
1.761804
1.761804
1.949497
2.110189
2.377948
2.578579
2.612892
2.639518
2.595829
2.466825
2.272007
2.272007
2.098939
1.907871
1.746991
1.621362
1.511671
1.461232
1.592861
1.739116
1.739116
1.942372
2.167941
2.376072
2.538077
2.590767
2.591704
2.601642
2.485013
2.297508
2.297508
2.087689
1.867745
1.718115
1.603924
1.519171
1.497421
1.553672
1.6508
1.830243
1.830243
2.094251
2.326384
2.52814
2.584954
2.595642
2.547078
2.434762
2.273882
2.085814
2.085814
1.907308
1.72749
1.586486
1.46067
1.475108
1.55386
1.686051
1.895683
2.108127
2.108127
2.298258
2.480701
2.60783
2.598079
2.607267
2.506764
2.305945
2.088814
2.088814
1.912183
1.751678
1.621174
1.54636
1.497983
1.535859
1.617424
1.869995
2.086939
2.086939
2.318696
2.532827
2.604455
2.571266
2.584204
2.492701
2.320196
2.137378
1.953247
1.953247
1.763116
1.582548
1.527609
1.492546
1.549735
1.685301
1.861369
2.018874
2.514264
2.514264
2.60558
2.608955
2.593204
2.504139
2.310446
2.13644
1.951747
1.778304
1.640863
1.640863
1.545797
1.456732
1.481858
1.642925
1.835306
2.051125
2.298445
2.490638
2.562641
2.562641
2.603704
2.605767
2.510514
2.356947
2.156316
1.951184
1.750178
1.624737
1.542797
1.542797
1.492546
1.533797
1.633925
1.747553
2.009311
2.260944
2.483138
2.583641
2.594892
2.594892
2.585704
2.493076
2.345134
2.146753
1.936934
1.766117
1.592674
1.456919
1.420918
1.420918
1.476795
1.599611
1.764991
1.95306
2.154628
2.292445
2.410761
2.432324
2.432324
2.37026
2.243693
2.045875
1.770804
1.557985
1.375355
1.278789
1.257038
1.251601
1.251601
1.262851
1.488983
1.906558
2.173941
2.365947
2.511639
2.587954
2.653394
2.661456
2.661456
2.661456
2.661456
2.661456
2.636518
2.52814
2.317758
2.185567
2.080001
2.048312
2.048312
2.111877
2.21613
2.37551
2.562828
2.636331
2.661644
2.661456
2.661456
2.62358
2.62358
2.476201
2.267507
2.029374
1.81018
1.607112
1.444169
1.358854
1.346479
1.346479
1.446607
1.600736
1.78693
1.994498
2.20788
2.377948
2.46645
2.465513
2.363697
2.363697
2.218943
2.03575
1.828743
1.644988
1.473795
1.373667
1.298852
1.299415
1.407793
1.407793
1.557797
1.756179
1.982498
2.198317
2.379447
2.458575
2.476388
2.37776
2.216318
2.216318
2.031625
1.853494
1.667488
1.496296
1.389042
1.31779
1.318165
1.412293
1.560048
1.560048
1.767429
1.978935
2.200942
2.393886
2.469075
2.485389
2.390323
2.242193
2.242193
2.064063
1.869244
1.682301
1.514484
1.401605
1.337291
1.319853
1.396543
1.552735
1.552735
1.757679
1.972185
2.192129
2.375885
2.469263
2.493264
2.412824
2.258694
2.073626
2.073626
1.887433
1.691302
1.516734
1.401043
1.330353
1.310853
1.387167
1.533047
1.739678
1.739678
1.959997
2.174691
2.366322
2.459325
2.491763
2.409823
2.263944
2.082438
1.89212
1.89212
1.695427
1.514671
1.409293
1.324915
1.304852
1.374042
1.515421
1.71474
1.922309
1.922309
2.152003
2.343446
2.431387
2.46945
2.406261
2.260944
2.088064
1.892683
1.892683
1.690927
1.520671
1.39598
1.322853
1.295102
1.351354
1.472295
1.669176
1.884245
1.884245
2.106439
2.298258
2.400261
2.451637
2.39201
2.244444
2.063688
1.880495
1.679676
1.679676
1.498921
1.368604
1.293602
1.275039
1.319853
1.425231
1.622675
1.836806
2.0455
2.0455
2.252319
2.358072
2.406449
2.353009
2.201692
2.024124
1.834743
1.630737
1.460482
1.460482
1.316853
1.269976
1.258351
1.273726
1.356041
1.534547
1.750741
1.974248
1.974248
2.169441
2.251381
2.338196
2.291507
2.157254
1.979123
1.764241
1.571673
1.418293
1.418293
1.283102
1.259663
1.252538
1.257788
1.302977
1.473045
1.686427
1.921559
2.123502
2.123502
2.242943
2.299757
2.257756
2.135503
1.975185
1.771742
1.579173
1.401043
1.283664
1.283664
1.260226
1.253101
1.257976
1.300915
1.470795
1.686989
1.911058
2.122565
2.265257
2.265257
2.315883
2.283445
2.169254
2.014936
1.818056
1.624925
1.451669
1.305602
1.305602
1.266976
1.257038
1.262664
1.326041
1.48542
1.73199
1.961872
2.169816
2.323758
2.323758
2.405699
2.37551
2.254381
2.102502
1.926059
1.744178
1.571486
1.424481
1.344604
1.344604
1.290414
1.320603
1.437044
1.613487
1.819555
2.062938
2.277257
2.435887
2.506576
2.506576
2.503389
2.391823
2.240131
2.048125
1.863432
1.687551
1.527609
1.445107
1.385292
1.385292
1.40123
1.512234
1.678176
1.890995
2.116002
2.329946
2.499076
2.55064
2.55064
2.560391
2.455762
2.298633
2.102127
1.918184
1.73199
1.575798
1.474732
1.407605
1.407605
1.413231
1.514109
1.680051
1.88387
2.110189
2.326571
2.476201
2.554015
2.557391
2.557391
2.458575
2.306695
2.113002
1.914621
1.734053
1.570735
1.470795
1.39448
1.38398
1.38398
1.485608
1.64555
1.830806
2.066688
2.281757
2.446762
2.528515
2.542015
2.442075
2.442075
2.29132
2.094626
1.899995
1.719802
1.554798
1.423168
1.378167
1.366729
1.463857
1.463857
1.614049
1.806993
2.031062
2.241818
2.417699
2.502264
2.518389
2.435512
2.435512
2.281195
2.087689
1.905621
1.715115
1.542985
1.439669
1.368229
1.348354
1.427294
1.427294
1.579361
1.785429
2.011936
2.224943
2.407198
2.488763
2.510889
2.434012
2.294508
2.294508
2.125377
1.912558
1.71774
1.560798
1.452044
1.383042
1.361854
1.443607
1.56586
1.56586
1.777554
2.002561
2.220443
2.419761
2.509764
2.523827
2.452013
2.27932
2.152003
2.152003
1.957185
1.749428
1.570923
1.449232
1.373104
1.359979
1.436669
1.570923
1.570923
1.749803
1.976123
2.205817
2.390323
2.496451
2.53039
2.465325
2.317383
2.129503
2.129503
1.952497
1.774554
1.587611
1.458045
1.365979
1.346854
1.427669
1.553297
1.752991
1.752991
1.963185
2.169816
2.367822
2.483888
2.53189
2.481263
2.334634
2.147878
1.945747
1.945747
1.768742
1.582173
1.48167
1.38623
1.332603
1.38623
1.543922
1.735928
1.95756
1.95756
2.159691
2.36726
2.457825
2.511452
2.471513
2.332384
2.163253
1.97031
1.97031
1.766304
1.600549
1.459545
1.375917
1.338603
1.393543
1.502671
1.688302
1.913683
1.913683
2.134565
2.341197
2.4462
2.497014
2.45145
2.318696
2.156878
1.956622
1.765366
1.765366
1.584986
1.445482
1.366542
1.308227
1.37648
1.473982
1.679864
1.876182
2.112814
2.112814
2.328071
2.448637
2.477888
2.449762
2.320383
2.158191
1.96356
1.753553
1.603549
1.603549
1.448669
1.359229
1.313478
1.347979
1.473232
1.650988
1.855369
2.085626
2.299383
2.299383
2.424636
2.483138
2.45895
2.330321
2.153878
1.973498
1.780742
1.595674
1.595674
1.438169
1.348166
1.295665
1.326041
1.438356
1.616674
1.81693
2.053938
2.264132
2.264132
2.389948
2.452575
2.423512
2.318133
2.165316
1.96956
1.768366
1.581798
1.434231
1.434231
1.352479
1.310103
1.325665
1.442669
1.608424
1.831743
2.084876
2.268069
2.408511
2.408511
2.478263
2.462325
2.353384
2.20188
2.032562
1.820868
1.639738
1.47192
1.395793
1.395793
1.328291
1.345916
1.459732
1.614799
1.799305
2.053938
2.260382
2.430637
2.430637
2.494576
2.482951
2.38076
2.21088
2.036312
1.848056
1.673864
1.492171
1.39373
1.39373
1.323415
1.343666
1.449982
1.614987
1.813743
2.044562
2.235068
2.389948
2.487076
2.487076
2.494201
2.39126
2.244256
2.034062
1.857807
1.664676
1.517109
1.403855
1.346104
1.346104
1.324728
1.432544
1.590049
1.79818
2.024874
2.243881
2.384698
2.470013
2.488576
2.488576
2.406074
2.256069
2.047188
1.838306
1.667488
1.519734
1.403105
1.339353
1.327353
1.327353
1.402355
1.54486
1.776617
1.997123
2.211817
2.378323
2.466638
2.472263
2.472263
2.387135
2.231506
2.068376
1.858744
1.677801
1.500233
1.400668
1.328665
1.31854
1.31854
1.39073
1.530422
1.695614
1.921934
2.137565
2.331821
2.414511
2.449762
2.339134
2.339134
2.186129
1.97106
1.754866
1.530609
1.318353
1.252726
1.248788
1.247288
1.248038
1.248038
1.257788
1.346666
1.575611
1.777929
1.951184
2.205255
2.317758
2.346259
2.242381
2.003124
2.003124
1.789367
1.642175
1.64555
1.672364
1.714177
1.995998
2.299757
2.526452
2.526452
2.642331
2.661456
2.661269
2.661081
2.661269
2.661456
2.661831
2.55514
2.297508
2.297508
2.070813
1.867557
1.695614
1.576173
1.493483
1.528734
1.600361
1.782054
1.936934
1.936934
2.131752
2.284757
2.355072
2.378697
2.30107
2.162316
1.983248
1.802493
1.567735
1.567735
1.396543
1.299602
1.266226
1.258726
1.282727
1.362229
1.531359
1.747928
1.992061
1.992061
2.188192
2.287945
2.325446
2.264132
2.128377
1.982123
1.786555
1.604111
1.604111
1.429356
1.296414
1.262289
1.257601
1.274289
1.375355
1.549735
1.751303
1.980435
1.980435
2.200005
2.303695
2.353197
2.304445
2.19888
2.010811
1.813555
1.618737
1.455982
1.455982
1.32454
1.269039
1.260413
1.270351
1.364292
1.548235
1.734615
1.985873
2.167191
2.167191
2.30557
2.361259
2.328071
2.212755
2.043812
1.835118
1.633737
1.473607
1.337666
1.337666
1.280102
1.262664
1.267164
1.334853
1.54786
1.738928
1.972748
2.176941
2.260007
2.260007
2.369885
2.332009
2.206005
2.044187
1.849931
1.665238
1.451669
1.329978
1.329978
1.281039
1.259663
1.274664
1.331478
1.486545
1.702739
1.935622
2.172066
2.291507
2.291507
2.351697
2.334071
2.202442
2.040062
1.859119
1.681551
1.473982
1.324353
1.268851
1.268851
1.256476
1.260788
1.318165
1.476045
1.672176
1.884995
2.109064
2.263007
2.330508
2.330508
2.312133
2.185567
2.011936
1.835118
1.649113
1.470232
1.313853
1.265664
1.254601
1.254601
1.255726
1.286102
1.426169
1.600549
1.870932
2.063688
2.200942
2.268069
2.257006
2.257006
2.149941
2.005749
1.791617
1.583861
1.413981
1.282352
1.262664
1.250288
1.250288
1.250476
1.258538
1.358104
1.537734
1.768742
1.966747
2.122377
2.186317
2.200755
2.200755
2.073813
1.916871
1.72299
1.519171
1.338228
1.260038
1.249913
1.247288
1.247663
1.247663
1.251601
1.285164
1.449607
1.675739
1.851994
2.0485
2.12519
2.13644
2.018124
2.018124
1.875995
1.685301
1.505858
1.320415
1.258351
1.248038
1.247101
1.247101
1.250851
1.250851
1.279727
1.444919
1.650238
1.872432
2.050562
2.11844
2.157441
2.074563
2.074563
1.923059
1.728615
1.529672
1.364104
1.266414
1.251601
1.248226
1.247851
1.251788
1.251788
1.278602
1.477545
1.693364
1.911433
2.090501
2.185004
2.218568
2.13194
2.000686
2.000686
1.816368
1.633175
1.438919
1.296977
1.261163
1.252163
1.251788
1.268664
1.364292
1.364292
1.581423
1.796305
1.966935
2.248006
2.322258
2.334446
2.281007
2.140753
1.96881
1.96881
1.781492
1.593424
1.436856
1.347041
1.275601
1.279164
1.330166
1.452607
1.452607
1.665613
1.872995
2.11769
2.318321
2.408511
2.442637
2.387135
2.238256
2.060688
2.060688
1.872432
1.688302
1.524609
1.388292
1.309727
1.295477
1.361854
1.494796
1.696927
1.696927
1.902996
2.119377
2.330508
2.43645
2.461763
2.408699
2.251756
2.097626
1.902621
1.902621
1.713802
1.545797
1.398418
1.32454
1.299415
1.323415
1.491421
1.678551
1.897558
1.897558
2.12219
2.290945
2.419386
2.460263
2.399323
2.261507
2.113377
1.864744
1.710052
1.710052
1.528547
1.40198
1.319103
1.294727
1.324728
1.451294
1.647988
1.843369
1.843369
2.095001
2.276507
2.389385
2.436825
2.396886
2.269944
2.081876
1.893245
1.701989
1.701989
1.534359
1.399543
1.318165
1.287602
1.31704
1.428981
1.613862
1.843744
2.062563
2.062563
2.275007
2.384323
2.426324
2.402323
2.275007
2.107189
1.920246
1.741366
1.557047
1.557047
1.37648
1.31404
1.284227
1.321915
1.451107
1.62605
1.79593
2.038937
2.269382
2.269382
2.397073
2.425949
2.456887
2.299008
2.12519
1.942559
1.763304
1.589674
1.589674
1.431231
1.342541
1.283102
1.323978
1.446607
1.633737
1.843181
2.0635
2.232443
2.232443
2.384323
2.460825
2.443199
2.337259
2.175442
1.976873
1.771929
1.610862
1.461607
1.461607
1.383042
1.322665
1.335041
1.405543
1.630175
1.838494
2.081313
2.286632
2.416199
2.416199
2.4522
2.461388
2.354509
2.20188
2.012874
1.821431
1.631862
1.463482
1.392043
1.392043
1.335603
1.358479
1.477733
1.6223
1.781867
2.059563
2.275944
2.434762
2.434762
2.527765
2.509389
2.377198
2.217255
2.0425
1.864932
1.687176
1.515609
1.396543
1.396543
1.316103
1.361479
1.465545
1.630175
1.839244
2.065001
2.240318
2.422011
2.503951
2.503951
2.510702
2.414511
2.252131
2.046438
1.851431
1.681176
1.521421
1.437981
1.373292
1.373292
1.334291
1.417543
1.608987
1.818993
2.046813
2.27782
2.428762
2.484638
2.495139
2.495139
2.419199
2.275569
2.086001
1.890808
1.693739
1.500983
1.428231
1.355479
1.353416
1.353416
1.460295
1.595486
1.73799
2.015311
2.235818
2.418636
2.514264
2.512952
2.512952
2.412824
2.248381
2.081876
1.893808
1.71099
1.552922
1.424668
1.328291
1.325103
1.325103
1.449794
1.591549
1.801555
2.017187
2.189692
2.363884
2.478076
2.481076
2.423324
2.423324
2.287757
2.078314
1.865869
1.676301
1.523672
1.415293
1.351541
1.32079
1.362229
1.362229
1.48767
1.743803
1.974998
2.186504
2.370635
2.4567
2.452575
2.376822
2.254569
2.254569
2.079438
1.903933
1.71474
1.537172
1.377042
1.331666
1.337103
1.422606
1.422606
1.560235
1.751678
1.911433
2.166254
2.373073
2.47395
2.522327
2.4462
2.299757
2.299757
2.096876
1.922309
1.73199
1.573923
1.463107
1.368417
1.307477
1.37873
1.545422
1.545422
1.749616
1.968248
2.192129
2.358634
2.438137
2.506951
2.453887
2.321321
2.158753
2.158753
1.95606
1.739866
1.56436
1.456919
1.386792
1.360916
1.419606
1.524421
1.692614
1.692614
1.949685
2.173754
2.393136
2.507889
2.54464
2.475263
2.327883
2.161003
1.97781
1.97781
1.79443
1.630737
1.480358
1.352666
1.337853
1.413793
1.544485
1.742303
1.742303
1.951184
2.12444
2.343634
2.480701
2.531702
2.496639
2.374197
2.194942
1.958497
1.958497
1.796117
1.638238
1.501921
1.418293
1.353229
1.372354
1.484108
1.704615
1.922684
1.922684
2.160816
2.373447
2.476388
2.501514
2.486513
2.367447
2.186129
1.988686
1.773242
1.773242
1.575611
1.410231
1.346666
1.31629
1.362604
1.478858
1.634675
1.765741
2.012499
2.012499
2.172254
2.260569
2.298633
2.246319
2.085251
1.852556
1.647613
1.454294
1.454294
1.313102
1.260601
1.249163
1.248976
1.281414
1.579548
1.864557
2.059375
2.206005
2.206005
2.390511
2.525702
2.661831
2.661456
2.661081
2.661456
2.661456
2.604267
2.527952
2.527952
2.346822
2.220443
2.103252
2.061813
2.085439
2.14619
2.348322
2.541078
2.625455
2.625455
2.661644
2.661831
2.624892
2.559828
2.407386
2.183129
1.948934
1.732928
1.510546
1.510546
1.348354
1.30504
1.320228
1.414731
1.576173
1.761241
1.942747
2.180504
2.180504
2.348509
2.426887
2.428199
2.325258
2.152941
1.935622
1.758054
1.574861
1.415293
1.415293
1.329228
1.280664
1.276164
1.336916
1.522922
1.72899
1.97481
2.180879
2.329946
2.329946
2.389385
2.309695
2.155191
1.972935
1.779804
1.587236
1.416606
1.328291
1.280852
1.287602
1.287602
1.371042
1.525921
1.71399
1.95681
2.168129
2.340446
2.419574
2.417886
2.417886
2.320196
2.166816
1.98006
1.79368
1.613299
1.442857
1.335603
1.282727
1.283102
1.283102
1.30954
1.418106
1.594174
1.789367
1.997873
2.172254
2.246506
2.257006
2.161566
2.161566
2.001061
1.81243
1.629425
1.449044
1.294165
1.258351
1.250851
1.250476
1.258913
1.258913
1.324728
1.523672
1.736866
1.946309
2.136065
2.218943
2.241443
2.157629
2.009499
2.009499
1.820868
1.637112
1.448107
1.30204
1.258913
1.250663
1.249726
1.256288
1.256288
1.31329
1.492358
1.705552
1.929996
2.097626
2.198692
2.235068
2.152003
1.997873
1.997873
1.81918
1.629237
1.439106
1.297165
1.256288
1.249726
1.248601
1.253288
1.284414
1.284414
1.446044
1.663738
1.884058
2.070626
2.160254
2.186692
2.118065
1.972373
1.78693
1.78693
1.594736
1.398605
1.275226
1.252351
1.248038
1.247288
1.249538
1.263414
1.380042
1.380042
1.593799
1.81468
2.009874
2.103439
2.133815
2.068563
1.923434
1.744553
1.744553
1.55311
1.354166
1.261913
1.248976
1.246913
1.246351
1.247288
1.252163
1.310665
1.310665
1.493671
1.71474
1.915183
2.014936
2.055813
1.996373
1.858369
1.677989
1.48767
1.48767
1.311978
1.254413
1.246913
1.246351
1.246351
1.246538
1.248976
1.281414
1.452232
1.452232
1.686427
1.87937
1.988498
2.040437
2.000499
1.868682
1.690364
1.502671
1.325853
1.325853
1.256288
1.247851
1.246538
1.246351
1.246913
1.249913
1.292477
1.47642
1.71099
1.71099
1.909746
2.032562
2.091626
2.051875
1.930559
1.766491
1.583486
1.369729
1.369729
1.274101
1.250101
1.247663
1.246726
1.247851
1.254788
1.331103
1.537734
1.781304
1.781304
1.998623
2.12519
2.192504
2.166816
2.058438
1.904308
1.715677
1.532484
1.368042
1.368042
1.271289
1.255538
1.251038
1.255538
1.295102
1.460107
1.675176
1.916308
2.138503
2.138503
2.27857
2.345134
2.313633
2.203567
2.041187
1.852369
1.661676
1.492358
1.346854
1.346854
1.281039
1.262289
1.268664
1.344229
1.519921
1.724865
1.957372
2.169441
2.169441
2.311008
2.386198
2.367822
2.255694
2.098752
1.905433
1.714552
1.537172
1.381355
1.381355
1.30504
1.270164
1.276164
1.350041
1.520671
1.729928
1.957372
2.165504
2.309508
2.309508
2.37701
2.372323
2.265444
2.108127
1.923246
1.728053
1.540359
1.386605
1.30204
1.30204
1.265289
1.268664
1.335416
1.489733
1.684176
1.920996
2.134565
2.291882
2.370447
2.370447
2.359385
2.257194
2.109064
1.922309
1.729365
1.542235
1.381917
1.296602
1.296602
1.267726
1.267539
1.32379
1.47342
1.680989
1.897745
2.116002
2.27857
2.361072
2.361072
2.36576
2.268632
2.116565
1.934122
1.742678
1.557985
1.399168
1.302977
1.267539
1.267539
1.265851
1.317228
1.46517
1.673489
1.893058
2.086376
2.256444
2.36426
2.383573
2.383573
2.298258
2.144315
1.950997
1.748678
1.575236
1.422043
1.320978
1.278227
1.267914
1.267914
1.294915
1.454857
1.667488
1.894183
2.109814
2.285882
2.350384
2.392198
2.323008
2.323008
2.181442
2.004999
1.80493
1.600549
1.431231
1.339166
1.284414
1.282539
1.282539
1.331478
1.439856
1.6298
1.88237
2.112627
2.304445
2.394635
2.420324
2.325634
2.325634
2.194942
2.023937
1.834181
1.649675
1.471732
1.344979
1.283102
1.280477
1.338228
1.338228
1.469295
1.664301
1.862494
2.060875
2.293758
2.39426
2.438324
2.374573
2.224193
2.224193
2.019249
1.845431
1.663363
1.49292
1.387542
1.29979
1.274289
1.311228
1.458232
1.458232
1.662988
1.88987
2.097626
2.28007
2.36051
2.427449
2.382823
2.267319
2.267319
2.080189
1.87637
1.662801
1.511671
1.38848
1.318165
1.293977
1.329416
1.403668
1.403668
1.638238
1.86737
2.095939
2.310821
2.407011
2.437762
2.379822
2.260944
2.091626
2.091626
1.902246
1.706302
1.529297
1.363917
1.317603
1.293977
1.342166
1.46817
1.6433
1.6433
1.803055
2.045312
2.280632
2.399886
2.467388
2.395573
2.257381
2.076813
1.909746
1.909746
1.721115
1.545985
1.413981
1.319853
1.271101
1.30729
1.441544
1.620237
1.620237
1.829118
2.043625
2.20188
2.324321
2.403261
2.375323
2.260007
2.087314
1.88012
1.88012
1.656988
1.503233
1.364854
1.299602
1.282539
1.29604
1.351354
1.55236
1.790492
1.790492
2.032937
2.245756
2.36426
2.399698
2.375323
2.274257
2.112252
1.917808
1.737615
1.737615
1.546922
1.357166
1.310853
1.281227
1.305602
1.420168
1.580673
1.72824
1.998249
1.998249
2.230006
2.37701
2.4462
2.409823
2.277632
2.106439
1.922496
1.742491
1.563048
1.563048
1.423168
1.327541
1.271289
1.287977
1.395605
1.570735
1.778679
2.001811
2.001811
2.160066
2.331634
2.423324
2.409448
2.312133
2.146003
1.947809
1.734615
1.57336
1.57336
1.420168
1.337853
1.289664
1.285727
1.319478
1.530797
1.749803
1.986623
2.212193
2.212193
2.351134
2.403261
2.394448
2.302945
2.147878
1.95831
1.780929
1.581798
1.385105
1.385105
1.318165
1.281977
1.292102
1.385667
1.531922
1.672176
1.946684
2.175442
2.339696
2.339696
2.424636
2.413574
2.29957
2.125752
1.961497
1.779429
1.599049
1.444732
1.336353
1.336353
1.273539
1.272976
1.346291
1.495921
1.704615
1.924746
2.097251
2.28007
2.28007
2.393511
2.413386
2.308008
2.143003
1.930746
1.669551
1.442857
1.284977
1.252351
1.252351
1.249913
1.247851
1.248976
1.255726
1.374792
1.602424
1.845994
2.053938
2.244819
2.244819
2.503951
2.587016
2.414136
2.162503
1.948184
1.702177
1.648925
1.684739
1.836994
1.836994
2.022624
2.246694
2.373635
2.492139
2.566953
2.661831
2.661456
2.661456
2.661456
2.661456
2.661644
2.587766
2.426324
2.19738
1.955872
1.755054
1.587048
1.444357
1.444357
1.371042
1.449044
1.562673
1.733678
1.910308
2.066875
2.19363
2.303695
2.325446
2.325446
2.234506
2.094626
1.899245
1.694302
1.491233
1.350229
1.272976
1.259476
1.254413
1.254413
1.262664
1.299977
1.522171
1.745678
1.971435
2.174316
2.255506
2.264507
2.19963
2.19963
2.078501
1.903746
1.735178
1.525547
1.348166
1.268476
1.256288
1.254226
1.267914
1.267914
1.350979
1.533234
1.682676
1.947997
2.169441
2.271257
2.323758
2.249131
2.249131
2.091439
1.904683
1.738178
1.549172
1.391292
1.291164
1.257976
1.252351
1.262101
1.262101
1.337291
1.531172
1.746991
1.96281
2.123315
2.226255
2.30407
2.265819
2.142628
2.142628
1.948184
1.747178
1.543547
1.38923
1.283289
1.260601
1.256663
1.260976
1.285164
1.285164
1.488045
1.709677
1.943309
2.158566
2.250818
2.283445
2.227943
2.122565
1.955872
1.955872
1.778304
1.570173
1.38473
1.271851
1.256851
1.252726
1.260601
1.309915
1.465732
1.465732
1.614237
1.894933
2.108315
2.228131
2.297132
2.239006
2.104752
1.928121
1.928121
1.752991
1.558923
1.391667
1.284227
1.256476
1.250288
1.253663
1.288164
1.446232
1.446232
1.660926
1.873557
2.044187
2.161191
2.247631
2.22363
2.102877
1.930371
1.512984
1.353229
1.353229
1.266039
1.254601
1.250288
1.250851
1.258163
1.370292
1.576548
1.79968
2.013624
2.013624
2.13044
2.173379
2.141315
2.040437
1.88462
1.676676
1.501171
1.311415
1.254226
1.254226
1.248788
1.247288
1.248226
1.255163
1.307665
1.432169
1.689801
1.912371
2.04925
2.04925
2.12144
2.089001
1.962435
1.79218
1.604861
1.411918
1.274851
1.251226
1.251226
1.247101
1.246726
1.246538
1.248413
1.268664
1.39973
1.613862
1.81468
1.953997
1.953997
2.039125
2.025999
1.922684
1.764804
1.565485
1.369542
1.264351
1.249163
1.246913
1.246913
1.246538
1.246351
1.247663
1.258913
1.363729
1.599049
1.795367
1.982123
2.045875
2.045875
2.031437
1.935059
1.785054
1.602237
1.413231
1.275414
1.250288
1.247101
1.246351
1.246351
1.246538
1.248038
1.262664
1.374042
1.606737
1.832681
2.003124
2.088814
2.084876
2.084876
1.999936
1.866057
1.692239
1.504733
1.336916
1.261351
1.250851
1.247851
1.247851
1.248226
1.254788
1.306727
1.511671
1.734241
1.966373
2.162316
2.234693
2.268444
2.268444
2.181254
2.05075
1.874495
1.688864
1.508859
1.357729
1.281414
1.260038
1.261913
1.261913
1.298477
1.419043
1.642175
1.869432
2.083001
2.264882
2.363135
2.374573
2.301445
2.301445
2.159503
1.977998
1.795367
1.611799
1.441919
1.334666
1.280289
1.272601
1.315165
1.315165
1.448857
1.663926
1.875432
2.089376
2.27932
2.366885
2.39426
2.315883
2.315883
2.173941
1.993561
1.80118
1.606549
1.443232
1.31404
1.272414
1.264164
1.296977
1.296977
1.415668
1.608799
1.827993
2.049813
2.240693
2.331446
2.361447
2.290945
2.150128
2.150128
1.974248
1.785242
1.590049
1.425981
1.309165
1.268289
1.261163
1.287789
1.388105
1.388105
1.579736
1.784867
2.005561
2.209942
2.313821
2.350197
2.278195
2.146003
1.971998
1.971998
1.782992
1.592299
1.421481
1.30579
1.265851
1.258913
1.277289
1.373104
1.373104
1.569048
1.776429
1.998623
2.195317
2.302195
2.347384
2.296383
2.159691
1.989811
1.989811
1.797805
1.597361
1.426356
1.30654
1.265476
1.256476
1.275976
1.356229
1.543547
1.543547
1.753553
1.981185
2.188192
2.296195
2.345321
2.302758
2.172066
2.005561
1.814493
1.814493
1.625112
1.451669
1.314228
1.270539
1.259663
1.271101
1.357354
1.535484
1.742303
1.742303
1.972373
2.175442
2.297508
2.352259
2.312508
2.191379
2.025437
1.837368
1.837368
1.644988
1.473795
1.329041
1.277476
1.261539
1.274476
1.359041
1.532484
1.736303
1.736303
1.96431
2.178066
2.303883
2.363509
2.331821
2.209942
2.041562
1.858744
1.671051
1.671051
1.495358
1.345916
1.284602
1.262664
1.271476
1.354166
1.523859
1.73199
1.957747
1.957747
2.169441
2.28907
2.358822
2.341572
2.22588
2.065563
1.87187
1.678176
1.505108
1.505108
1.351166
1.284039
1.263414
1.269601
1.332228
1.501733
1.71324
1.950997
2.157254
2.157254
2.301445
2.365572
2.351697
2.244069
2.084689
1.89812
1.695989
1.525172
1.525172
1.374792
1.287602
1.266601
1.271101
1.343666
1.493296
1.699364
1.931121
2.142253
2.142253
2.302945
2.344009
2.336696
2.240506
2.089751
1.899245
1.715302
1.513171
1.367479
1.367479
1.285914
1.262101
1.266414
1.315165
1.463295
1.658301
1.868119
2.092001
2.262819
2.262819
2.337634
2.336321
2.223818
2.063313
1.886495
1.701427
1.525734
1.369729
1.286477
1.286477
1.262101
1.263039
1.318165
1.471732
1.685301
1.900933
2.094439
2.264507
2.264507
2.359947
2.371947
2.273694
2.124627
1.933559
1.73199
1.557047
1.401043
1.31479
1.31479
1.274289
1.270351
1.304102
1.469857
1.682676
1.912183
2.123315
2.293945
2.353197
2.353197
2.377198
2.299945
2.157254
1.97706
1.78843
1.580111
1.38923
1.332416
1.288164
1.288164
1.273351
1.328853
1.450544
1.624362
1.882183
2.102689
2.294508
2.391073
2.405136
2.405136
2.300508
2.163253
1.990561
1.803805
1.625862
1.446982
1.319478
1.271289
1.271476
1.271476
1.321165
1.47417
1.666176
1.855369
2.057125
2.280445
2.367635
2.400636
2.400636
2.342696
2.190067
1.980435
1.809243
1.619862
1.456732
1.357916
1.286477
1.268289
1.268289
1.309352
1.457482
1.672364
1.896245
2.097439
2.269757
2.36201
2.421262
2.362947
2.362947
2.217443
2.052625
1.852369
1.6298
1.491796
1.365792
1.289289
1.271664
1.313665
1.313665
1.373479
1.581236
1.847119
2.078126
2.264882
2.344947
2.339696
2.205442
2.044
2.044
1.823868
1.579923
1.39523
1.266039
1.247476
1.246351
1.246351
1.246913
1.246913
1.251038
1.298102
1.513359
1.921371
2.369322
2.562453
2.569766
2.438324
2.314196
2.314196
2.20638
2.133628
2.065001
2.075501
2.127065
2.066688
1.987748
1.995811
2.121065
2.121065
2.274257
2.454638
2.598079
2.627705
2.657519
2.661644
2.651143
2.583829
2.391448
2.391448
2.130815
1.884058
1.704802
1.520296
1.398605
1.321915
1.32079
1.348541
1.497421
1.497421
1.733865
1.97331
2.144691
2.253819
2.291882
2.230568
2.130815
1.971435
1.971435
1.782992
1.617799
1.418481
1.285914
1.257976
1.253663
1.259288
1.319103
1.469857
1.469857
1.629425
1.866057
2.100064
2.234318
2.309695
2.281569
2.140565
1.957935
1.783179
1.783179
1.599986
1.426919
1.29679
1.265101
1.254226
1.256288
1.309727
1.470982
1.685676
1.685676
1.909933
2.096127
2.20938
2.311196
2.288882
2.175816
2.026749
1.827993
1.626987
1.626987
1.429356
1.304102
1.266039
1.258913
1.265664
1.303352
1.396918
1.647613
1.904308
1.904308
2.120877
2.269757
2.321508
2.281569
2.183129
2.023937
1.854432
1.661301
1.661301
1.494233
1.320415
1.264164
1.255351
1.258538
1.305415
1.46967
1.673301
1.844306
1.844306
2.047563
2.238068
2.317946
2.295445
2.209755
2.038187
1.828556
1.657738
1.481108
1.481108
1.327165
1.282352
1.257226
1.255351
1.273726
1.422231
1.636737
1.868682
2.072501
2.072501
2.210317
2.256444
2.294883
2.200192
2.0425
1.875995
1.665613
1.455044
1.305227
1.305227
1.265289
1.254976
1.260038
1.283289
1.353604
1.538484
1.80643
2.036125
2.036125
2.197942
2.287382
2.272757
2.150691
2.012311
1.838119
1.646488
1.469482
1.306915
1.306915
1.261539
1.251038
1.250851
1.264726
1.346854
1.555923
1.760866
1.909371
2.118627
2.118627
2.218943
2.229443
2.163253
1.976123
1.774367
1.583673
1.407605
1.284602
1.255913
1.255913
1.249351
1.248413
1.250663
1.288164
1.457482
1.675926
1.895683
2.058063
2.104752
2.104752
2.12519
2.059563
1.920246
1.749803
1.536797
1.337103
1.258163
1.249163
1.246913
1.246913
1.246913
1.250663
1.261913
1.340666
1.566985
1.806055
2.000874
2.096876
2.096876
2.112064
2.029937
1.863807
1.700114
1.525172
1.352104
1.266039
1.249163
1.247101
1.247101
1.246538
1.248038
1.260976
1.387917
1.590236
1.787117
1.969185
2.090314
2.129877
2.129877
2.055625
1.921559
1.746991
1.548047
1.362979
1.270539
1.249913
1.248038
1.247101
1.247101
1.249163
1.262289
1.386605
1.605424
1.840181
2.035
2.145253
2.182567
2.135878
2.135878
2.007624
1.841869
1.653988
1.312915
1.258726
1.254226
1.251226
1.255351
1.299977
1.299977
1.47042
1.703115
1.935809
2.149566
2.262257
2.29132
2.253819
2.131377
1.96731
1.96731
1.765741
1.586298
1.430294
1.304665
1.264164
1.259101
1.273539
1.350791
1.538484
1.538484
1.754491
1.996748
2.204317
2.307445
2.363322
2.317946
2.198317
2.032562
2.032562
1.833993
1.654176
1.48017
1.331291
1.277851
1.261726
1.277851
1.369542
1.548985
1.548985
1.746616
1.982873
2.185192
2.303508
2.364635
2.331634
2.179566
2.038375
1.846181
1.846181
1.64255
1.46592
1.312915
1.269601
1.258538
1.270726
1.350416
1.498733
1.709302
1.709302
1.950435
2.147128
2.256819
2.352072
2.302008
2.185942
2.022999
1.822556
1.631675
1.631675
1.467045
1.30129
1.270726
1.257601
1.262664
1.323228
1.503421
1.675551
1.675551
1.910308
2.131565
2.247819
2.317571
2.297132
2.182754
2.016624
1.826118
1.6298
1.6298
1.449982
1.310103
1.264164
1.254038
1.257601
1.30804
1.448857
1.646488
1.901871
1.901871
2.095001
2.226443
2.295445
2.278195
2.169441
2.012499
1.817493
1.619487
1.441919
1.441919
1.300727
1.264726
1.249726
1.259663
1.289102
1.427294
1.615737
1.855182
2.062938
2.062938
2.218005
2.277632
2.28907
2.151628
2.014374
1.824431
1.635237
1.442857
1.303352
1.303352
1.263039
1.254226
1.255726
1.283477
1.413418
1.614237
1.848994
2.047563
2.047563
2.20338
2.283632
2.280257
2.153316
2.025812
1.863432
1.657176
1.46592
1.320415
1.320415
1.270351
1.255351
1.255351
1.291727
1.409293
1.612924
1.829306
2.042125
2.215005
2.215005
2.29807
2.293758
2.205067
2.05975
1.866619
1.699739
1.491608
1.333541
1.270914
1.270914
1.259288
1.256663
1.283102
1.407793
1.607862
1.825931
2.038187
2.222318
2.299757
2.299757
2.307258
2.222693
2.073251
1.875432
1.689052
1.502483
1.347041
1.275601
1.259663
1.259663
1.255726
1.279727
1.398605
1.590986
1.809055
2.027687
2.204692
2.265444
2.265444
2.29432
2.246694
2.090501
1.885745
1.700677
1.509233
1.352666
1.276539
1.259851
1.259851
1.254601
1.269976
1.364667
1.563048
1.782429
2.000311
2.192692
2.278382
2.315883
2.315883
2.229068
2.085064
1.903183
1.71249
1.517296
1.357916
1.274101
1.256476
1.253663
1.253663
1.265101
1.339353
1.524796
1.740803
1.965998
2.14544
2.237693
2.266194
2.203755
2.203755
2.065188
1.871307
1.679489
1.488608
1.331853
1.262664
1.253101
1.250288
1.250288
1.257601
1.318728
1.447919
1.727678
1.943872
2.127252
2.235818
2.269757
2.21388
2.21388
2.071938
1.915558
1.725803
1.537172
1.369167
1.275601
1.257788
1.253663
1.261163
1.261163
1.332791
1.500608
1.722053
1.951184
2.156503
2.237318
2.300508
2.253631
2.113189
2.113189
1.949497
1.764054
1.560235
1.390918
1.290789
1.259476
1.254226
1.264164
1.338603
1.338603
1.512609
1.718865
1.931871
2.156316
2.255506
2.316446
2.274632
2.146753
2.146753
1.96356
1.770429
1.590611
1.408543
1.297165
1.262851
1.255163
1.266226
1.328103
1.328103
1.502108
1.71624
1.953622
2.142253
2.233193
2.349634
2.282882
2.158753
1.999936
1.999936
1.817493
1.621737
1.464795
1.30504
1.266226
1.257788
1.265664
1.332228
1.510359
1.510359
1.70499
1.939184
2.14544
2.259819
2.344572
2.311571
2.185567
2.024687
1.844869
1.844869
1.661863
1.479608
1.334291
1.278789
1.261913
1.271664
1.347791
1.511859
1.716052
1.716052
1.949122
2.145253
2.274257
2.330696
2.283257
2.150128
1.992061
1.815993
1.815993
1.628675
1.451857
1.310103
1.263789
1.251976
1.251038
1.259101
1.313102
1.438356
1.438356
1.651175
1.828181
1.912183
1.938059
1.912558
1.803805
1.666363
1.443232
1.311228
1.311228
1.259288
1.256851
1.347041
1.345916
1.333541
1.38848
1.586298
1.874307
2.247819
2.247819
2.534702
2.661644
2.661081
2.661081
2.661269
2.661456
2.624705
2.455387
2.210505
2.210505
1.951372
1.802305
1.700114
1.667301
1.714177
1.821431
1.97631
2.158191
2.158191
2.329196
2.443762
2.475263
2.427824
2.28982
2.091064
1.871495
1.645175
1.441919
1.441919
1.288727
1.257976
1.252351
1.249538
1.261726
1.349479
1.54711
1.764241
1.969748
1.969748
2.144878
2.222505
2.230381
2.129315
1.97406
1.780742
1.573173
1.406293
1.280664
1.280664
1.254413
1.249538
1.249351
1.259851
1.332416
1.518046
1.743241
1.965435
2.129315
2.129315
2.199255
2.257194
2.155753
1.996373
1.823493
1.6343
1.445669
1.30504
1.30504
1.260976
1.251038
1.250663
1.261913
1.342166
1.542047
1.770054
1.988311
2.190442
2.190442
2.27632
2.290195
2.21838
2.065376
1.874307
1.701427
1.494608
1.310477
1.290414
1.290414
1.257413
1.255726
1.271664
1.385667
1.607112
1.803992
2.017187
2.221193
2.301445
2.301445
2.341197
2.246319
2.122377
1.936934
1.746428
1.57036
1.413231
1.30654
1.267726
1.267726
1.258163
1.29529
1.458607
1.658488
1.893995
2.137565
2.339884
2.437949
2.469638
2.469638
2.407386
2.270507
2.093502
1.898308
1.693927
1.534922
1.410418
1.342166
1.342166
1.31854
1.374792
1.491983
1.685676
1.903183
2.129315
2.329571
2.419949
2.451825
2.451825
2.391823
2.240318
2.0665
1.871307
1.675926
1.511109
1.366354
1.296977
1.274289
1.274289
1.323228
1.437794
1.631112
1.828368
2.063125
2.256444
2.359572
2.395573
2.347759
2.347759
2.188379
2.034062
1.837744
1.6268
1.460857
1.31104
1.275414
1.260788
1.267539
1.267539
1.358854
1.552172
1.762554
1.990748
2.177504
2.275194
2.329009
2.281007
2.281007
2.14394
1.979498
1.761616
1.572798
1.39448
1.277664
1.256476
1.249351
1.260038
1.260038
1.293414
1.454857
1.667113
1.890808
2.079438
2.202442
2.244069
2.20488
2.070626
2.070626
1.89587
1.700489
1.491421
1.332603
1.261726
1.251601
1.248788
1.250101
1.271289
1.271289
1.401043
1.605049
1.839619
2.042125
2.177129
2.225693
2.200005
2.080751
1.913121
1.913121
1.705364
1.520859
1.332416
1.261163
1.252351
1.249163
1.251788
1.271664
1.403668
1.403668
1.595111
1.839994
2.054313
2.148628
2.285882
2.237693
2.109627
1.951747
1.951747
1.758804
1.584423
1.407418
1.291352
1.260038
1.254038
1.255726
1.307477
1.472295
1.472295
1.683426
1.925684
2.14394
2.282882
2.370635
2.37026
2.253256
2.106252
1.921559
1.921559
1.745678
1.572986
1.420356
1.331291
1.292664
1.319665
1.381542
1.641988
1.81093
1.81093
2.048687
2.259819
2.417511
2.494014
2.477326
2.396698
2.242381
2.049813
1.88462
1.88462
1.687176
1.527609
1.428044
1.371604
1.380792
1.48242
1.656238
1.860807
1.860807
2.090689
2.308571
2.47245
2.54614
2.539577
2.439825
2.279132
2.099501
1.899995
1.899995
1.730678
1.55836
1.459732
1.38173
1.368417
1.481295
1.640488
1.859869
2.091814
2.091814
2.28532
2.448637
2.525515
2.536015
2.422574
2.296945
2.108127
1.912371
1.724865
1.724865
1.547672
1.446044
1.38473
1.377229
1.468732
1.620049
1.815993
2.052813
2.266007
2.266007
2.432887
2.501139
2.53339
2.443762
2.290945
2.096876
1.904871
1.715115
1.552922
1.552922
1.370854
1.356791
1.450357
1.591549
1.795742
2.025062
2.239193
2.419011
2.504326
2.504326
2.527015
2.444512
2.299195
2.102127
1.915934
1.726365
1.556485
1.447357
1.365417
1.365417
1.351166
1.436669
1.561923
1.790867
1.997873
2.178254
2.425199
2.488951
2.512014
2.512014
2.432699
2.283632
2.112064
1.919684
1.72974
1.561173
1.441544
1.360167
1.342916
1.342916
1.423356
1.561923
1.764241
1.97331
2.20038
2.395386
2.487451
2.522514
2.449012
2.449012
2.308946
2.127627
1.935434
1.740803
1.576548
1.448294
1.369354
1.327728
1.407418
1.407418
1.551797
1.750928
1.962247
2.182004
2.378885
2.472826
2.530015
2.430074
2.430074
2.320571
2.137753
1.95006
1.749803
1.579736
1.450732
1.378542
1.336353
1.386605
1.386605
1.540547
1.737803
1.946872
2.178629
2.370447
2.471888
2.512389
2.461388
2.332384
2.332384
2.158003
1.971998
1.780554
1.599799
1.470607
1.38323
1.348166
1.408355
1.533609
1.533609
1.719052
1.926059
2.153128
2.358822
2.46945
2.533015
2.467013
2.348134
2.171691
2.171691
1.986811
1.78918
1.620799
1.470795
1.390918
1.347041
1.404418
1.519921
1.519921
1.710615
1.922496
2.151628
2.346071
2.462138
2.519702
2.490076
2.361259
2.192317
2.192317
2.002749
1.80043
1.628862
1.48617
1.402918
1.351916
1.391855
1.515046
1.699552
1.699552
1.905246
2.132503
2.345134
2.46045
2.526265
2.501514
2.375323
2.202067
2.008186
2.008186
1.808305
1.630925
1.480358
1.396918
1.343479
1.38698
1.47267
1.64705
1.864744
1.864744
2.100252
2.301445
2.424824
2.484076
2.472075
2.355072
2.193442
1.995811
1.995811
1.795555
1.621174
1.468357
1.382105
1.325853
1.359979
1.479608
1.655113
1.863057
1.863057
2.102502
2.302195
2.446762
2.512389
2.496076
2.397636
2.220068
2.034812
1.847681
1.847681
1.662988
1.497796
1.412106
1.353229
1.369542
1.477733
1.655488
1.865494
2.095752
2.095752
2.305008
2.460825
2.531327
2.525327
2.415824
2.253631
2.062001
1.876557
1.700864
1.700864
1.533609
1.434606
1.369542
1.38473
1.481483
1.650613
1.852931
2.090314
2.090314
2.292445
2.452575
2.533015
2.53564
2.424636
2.278757
2.082626
1.87337
1.712115
1.712115
1.536797
1.443607
1.378542
1.384542
1.479045
1.639925
1.842994
2.076063
2.28682
2.28682
2.458575
2.529077
2.53639
2.44695
2.289257
2.101939
1.908433
1.721115
1.558735
1.558735
1.463107
1.388105
1.381542
1.482795
1.638238
1.845619
2.070251
2.275569
2.44995
2.44995
2.536952
2.546515
2.4597
2.306695
2.115252
1.935809
1.742303
1.583486
1.48092
1.48092
1.394668
1.386042
1.46067
1.591174
1.787117
2.022249
2.236943
2.417511
2.417511
2.516327
2.535827
2.440949
2.284195
2.085064
1.844494
1.590986
1.371979
1.273914
1.273914
1.254413
1.251788
1.253663
1.284789
1.440794
1.683426
1.888933
2.059938
2.201692
2.201692
2.411511
2.558703
2.485576
2.240881
1.996373
1.796305
1.73049
1.770429
1.840369
1.840369
2.069876
2.306883
2.485763
2.629393
2.661644
2.661269
2.661269
2.661081
2.661081
2.661081
2.660894
2.661644
2.596579
2.37551
2.143565
1.917808
1.745491
1.6283
1.6283
1.590611
1.614237
1.702177
1.853869
2.032187
2.20938
2.372698
2.448637
2.482388
2.482388
2.410011
2.248194
2.057125
1.867745
1.679676
1.510734
1.38773
1.315353
1.286477
1.286477
1.338041
1.466295
1.655301
1.866245
2.088439
2.288695
2.391823
2.437949
2.38076
2.38076
2.247631
2.069688
1.88537
1.688114
1.513546
1.386605
1.31029
1.285727
1.329603
1.329603
1.455794
1.651738
1.868119
2.092376
2.29732
2.406261
2.456887
2.409074
2.273882
2.273882
2.105689
1.914621
1.720365
1.552547
1.412668
1.331291
1.29904
1.343104
1.343104
1.466857
1.656613
1.862682
2.096501
2.305008
2.417136
2.473013
2.43945
2.310071
2.310071
2.14094
1.944622
1.754304
1.580486
1.438169
1.356604
1.310103
1.352104
1.476983
1.476983
1.655301
1.844681
2.080751
2.287195
2.407386
2.468325
2.435324
2.309508
2.141128
2.141128
1.944997
1.761991
1.585548
1.431606
1.350791
1.30054
1.332416
1.441356
1.620237
1.620237
1.829118
2.059938
2.269569
2.39501
2.459137
2.436262
2.314571
2.150691
2.150691
1.956997
1.756366
1.579173
1.420168
1.333728
1.286289
1.303915
1.409105
1.585548
1.585548
1.793492
2.024499
2.21913
2.365572
2.427824
2.406636
2.28907
2.138128
1.943122
1.943122
1.734803
1.55686
1.396543
1.308977
1.271101
1.280477
1.359041
1.522734
1.727115
1.727115
1.956622
2.155378
2.297883
2.362197
2.360135
2.242381
2.077751
1.884433
1.688489
1.688489
1.503983
1.335978
1.272039
1.256851
1.257601
1.291727
1.426731
1.630175
1.630175
1.861744
2.064626
2.215193
2.279882
2.274069
2.165879
2.003124
1.808868
1.603736
1.603736
1.415481
1.285727
1.256476
1.250476
1.250476
1.262476
1.350229
1.549172
1.775117
1.775117
1.985873
2.149191
2.217255
2.224568
2.123877
1.961497
1.771554
1.581048
1.394855
1.394855
1.276914
1.254226
1.249538
1.249351
1.258163
1.330916
1.535859
1.762929
1.972748
1.972748
2.151628
2.233943
2.241256
2.149753
2.003874
1.823118
1.635237
1.448107
1.304665
1.304665
1.260413
1.252351
1.251788
1.268476
1.366729
1.576923
1.804368
2.024499
2.024499
2.209942
2.299195
2.327134
2.251756
2.113002
1.929809
1.749053
1.57186
1.413981
1.413981
1.317228
1.274851
1.273164
1.340291
1.491421
1.708365
1.932997
2.158566
2.352447
2.352447
2.452013
2.496076
2.423324
2.287945
2.112627
1.925309
1.740053
1.582361
1.474545
1.474545
1.400293
1.384355
1.467795
1.621737
1.828368
2.05
2.274069
2.469638
2.563016
2.563016
2.599204
2.53264
2.38451
2.20563
2.020937
1.825368
1.659238
1.537547
1.457857
1.457857
1.432731
1.505296
1.644425
1.843181
2.053
2.284007
2.482013
2.578954
2.578954
2.613267
2.550265
2.412074
2.231131
2.037625
1.837556
1.671051
1.539422
1.459732
1.459732
1.417918
1.485045
1.618549
1.814868
2.027124
2.252131
2.452013
2.558891
2.599579
2.599579
2.53864
2.395573
2.218943
2.03725
1.824056
1.655113
1.522171
1.439856
1.40348
1.40348
1.458982
1.587611
1.785429
1.999374
2.223443
2.423512
2.536952
2.583829
2.533765
2.533765
2.400636
2.230568
2.038375
1.842431
1.662988
1.524234
1.438919
1.398605
1.398605
1.454482
1.582548
1.766491
1.976873
2.201317
2.401198
2.527015
2.583454
2.53414
2.53414
2.406449
2.237506
2.039875
1.844119
1.672364
1.525547
1.446232
1.39448
1.441169
1.441169
1.570923
1.754304
1.960935
2.196255
2.397073
2.523827
2.586829
2.542765
2.417324
2.417324
2.257944
2.068376
1.87487
1.701802
1.553672
1.464232
1.409105
1.451107
1.57036
1.57036
1.757679
1.962435
2.193254
2.399886
2.53489
2.602767
2.578579
2.453512
2.453512
2.28832
2.095189
1.907496
1.734428
1.575798
1.48767
1.433856
1.463107
1.576923
1.576923
1.753741
1.954935
2.185004
2.397261
2.539015
2.60483
2.590204
2.474325
2.312883
2.312883
2.121815
1.924934
1.746428
1.594549
1.504358
1.439294
1.578986
1.742491
1.949122
1.949122
2.187254
2.400448
2.551953
2.621893
2.605767
2.497201
2.334071
2.147128
1.949122
1.949122
1.770429
1.613487
1.524984
1.458982
1.46967
1.572423
1.737803
1.945559
2.185754
2.185754
2.396323
2.548578
2.61458
2.615705
2.512952
2.355447
2.162503
1.966935
1.784117
1.784117
1.6223
1.527047
1.452044
1.457294
1.560985
1.724865
1.931684
2.161003
2.366135
2.366135
2.530015
2.607642
2.612517
2.517452
2.35676
2.158566
1.959247
1.766679
1.601299
1.601299
1.494421
1.417918
1.422606
1.521046
1.672739
1.88087
2.110002
2.327883
2.327883
2.501889
2.575954
2.588517
2.504514
2.357884
2.171879
1.985686
1.794992
1.634487
1.634487
1.534359
1.45617
1.444732
1.54186
1.692802
1.896245
2.11994
2.335384
2.515014
2.515014
2.596204
2.61833
2.537702
2.38301
2.200192
2.015311
1.811305
1.652863
1.553485
1.553485
1.475483
1.458232
1.54636
1.691677
1.902058
2.123315
2.337821
2.532077
2.611955
2.611955
2.614205
2.560766
2.419199
2.235818
2.045312
1.858182
1.686051
1.572048
1.572048
1.493671
1.472295
1.559485
1.698052
1.901683
2.120502
2.331446
2.529452
2.606704
2.606704
2.592642
2.578016
2.437199
2.260194
2.081126
1.878057
1.705552
1.589674
1.503233
1.503233
1.480545
1.549922
1.691677
1.88912
2.107189
2.332196
2.528327
2.602579
2.608955
2.608955
2.581579
2.4597
2.278195
2.091251
1.893808
1.720927
1.598486
1.518421
1.482233
1.482233
1.550672
1.687927
1.886495
2.089751
2.322821
2.521577
2.603892
2.590579
2.590579
2.590204
2.471888
2.282132
2.090501
1.868495
1.72749
1.596799
1.521046
1.48392
1.48392
1.549735
1.665988
1.836244
2.029937
2.210505
2.375135
2.428387
2.439262
2.372885
2.372885
2.222318
1.995436
1.761991
1.574486
1.39898
1.305415
1.271664
1.346666
1.661301
1.661301
1.926809
2.072501
2.205067
2.402886
2.548953
2.661831
2.661269
2.661081
2.660894
2.660894
2.660894
2.661644
2.640455
2.490638
2.280257
2.14694
2.069126
2.086939
2.201692
2.201692
2.335009
2.458387
2.594517
2.660331
2.661831
2.661644
2.661831
2.621143
2.621143
2.45745
2.227755
1.988686
1.773429
1.591549
1.484295
1.396168
1.424856
1.534172
1.534172
1.703302
1.908996
2.149753
2.36201
2.498139
2.563016
2.541078
2.416199
2.253819
2.253819
2.058063
1.861744
1.679864
1.523672
1.433294
1.380792
1.412293
1.530422
1.708927
1.708927
1.922309
2.160066
2.36276
2.503577
2.570141
2.553828
2.435887
2.269757
2.073438
2.073438
1.879932
1.699739
1.549922
1.454669
1.397855
1.427669
1.54336
1.713802
1.713802
1.920809
2.152566
2.361072
2.499451
2.570141
2.554953
2.443012
2.282132
2.089189
2.089189
1.89512
1.711177
1.553672
1.463295
1.400293
1.411918
1.524984
1.690927
1.897558
1.897558
2.13119
2.334071
2.497764
2.556641
2.552703
2.451637
2.284195
2.097814
1.904121
1.904121
1.71849
1.555735
1.453732
1.391292
1.401793
1.501921
1.664301
1.856682
2.101564
2.101564
2.312883
2.477888
2.542953
2.545765
2.4492
2.29207
2.093876
1.906183
1.906183
1.715677
1.549172
1.447169
1.376104
1.373667
1.474545
1.629612
1.838494
2.064063
2.064063
2.274257
2.444512
2.524577
2.530577
2.431949
2.270507
2.083751
1.890245
1.700302
1.700302
1.529859
1.424481
1.350416
1.339728
1.430481
1.565298
1.793492
2.011936
2.22213
2.22213
2.404948
2.481451
2.494576
2.410198
2.245194
2.04775
1.862307
1.663738
1.490296
1.490296
1.38248
1.307665
1.293414
1.372917
1.523296
1.71624
1.931121
2.145253
2.328821
2.328821
2.408136
2.424262
2.338384
2.181067
1.998249
1.785992
1.600174
1.426356
1.426356
1.311415
1.268476
1.264351
1.296227
1.419231
1.614799
1.833806
2.051875
2.232068
2.232068
2.320758
2.341197
2.256069
2.116002
1.929059
1.72674
1.530609
1.365229
1.277289
1.277289
1.256851
1.253476
1.269414
1.357541
1.55761
1.768742
1.974623
2.200755
2.274632
2.274632
2.315883
2.244256
2.097439
1.919496
1.732178
1.541109
1.368792
1.278789
1.258726
1.258726
1.255351
1.270726
1.365979
1.558735
1.783367
2.004436
2.207505
2.309695
2.350384
2.350384
2.291882
2.157441
1.985123
1.79668
1.603736
1.438919
1.319853
1.275414
1.275414
1.266976
1.311228
1.422418
1.6253
1.854244
2.086001
2.299383
2.410198
2.465513
2.465513
2.423324
2.296757
2.133065
1.948934
1.762179
1.601861
1.463295
1.394105
1.366167
1.366167
1.427106
1.572235
1.769491
1.982123
2.218755
2.432324
2.556266
2.613642
2.572391
2.572391
2.452013
2.284757
2.092939
1.906558
1.73724
1.598861
1.521421
1.476233
1.530984
1.530984
1.660738
1.836244
2.04775
2.28457
2.495701
2.601267
2.588704
2.602204
2.602204
2.503389
2.334634
2.137753
1.942934
1.768742
1.614612
1.515421
1.493671
1.527797
1.527797
1.634675
1.828368
2.030312
2.266569
2.466075
2.590767
2.595642
2.603142
2.497201
2.497201
2.326759
2.127252
1.931871
1.762179
1.600736
1.503421
1.449044
1.483358
1.590611
1.590611
1.761991
1.985686
2.217443
2.412449
2.552515
2.609704
2.588142
2.469263
2.304445
2.304445
2.113752
1.923246
1.72899
1.57261
1.482608
1.419043
1.452982
1.567173
1.567173
1.739116
1.947247
2.166816
2.375323
2.521577
2.585516
2.574266
2.460075
2.299383
2.299383
2.097814
1.917996
1.719802
1.575986
1.476608
1.412856
1.428606
1.519546
1.718115
1.718115
1.926246
2.14094
2.355259
2.501514
2.571828
2.565641
2.456512
2.29057
2.107377
2.107377
1.919496
1.734615
1.578236
1.461607
1.401418
1.417168
1.520484
1.680426
1.890808
1.890808
2.126127
2.331821
2.492139
2.564516
2.562828
2.460825
2.304633
2.111127
1.925684
1.925684
1.743241
1.577861
1.47792
1.409855
1.413606
1.517859
1.679114
1.884245
1.884245
2.112814
2.339884
2.502451
2.574079
2.576329
2.480513
2.325446
2.134565
1.935434
1.935434
1.757491
1.605424
1.493858
1.422606
1.416043
1.514859
1.664863
1.872057
2.097064
2.097064
2.304445
2.489513
2.569766
2.586454
2.486326
2.347009
2.162879
1.955872
1.773617
1.773617
1.614799
1.500983
1.420731
1.414543
1.508484
1.6463
1.860057
2.085251
2.300508
2.300508
2.479013
2.556641
2.576891
2.512014
2.353572
2.157441
1.96581
1.770617
1.770617
1.618549
1.512796
1.429169
1.408731
1.506046
1.633925
1.812993
2.079063
2.28307
2.28307
2.465513
2.54914
2.576329
2.506576
2.350572
2.171879
1.985686
1.804555
1.620612
1.620612
1.514109
1.424481
1.40498
1.468732
1.6223
1.841681
2.029374
2.259819
2.457638
2.457638
2.539202
2.568453
2.512202
2.364447
2.179191
1.999186
1.800242
1.623987
1.495921
1.495921
1.415481
1.377229
1.451107
1.590799
1.780179
1.994686
2.21838
2.411699
2.411699
2.496826
2.557391
2.483138
2.334071
2.158191
1.971248
1.756366
1.593799
1.468545
1.468545
1.38023
1.353041
1.422606
1.55386
1.737615
1.962997
2.185004
2.388261
2.503014
2.503014
2.549328
2.495326
2.36501
2.171316
1.981935
1.804555
1.638425
1.488233
1.403855
1.403855
1.372729
1.427669
1.55086
1.967123
2.198692
2.401386
2.503014
2.545953
2.507326
2.377198
2.377198
2.19813
2.003874
1.814868
1.638613
1.497983
1.418856
1.371792
1.424481
1.526859
1.526859
1.744928
1.944622
2.180129
2.380385
2.494764
2.551015
2.498139
2.377948
2.21763
2.21763
2.024124
1.815055
1.645925
1.497796
1.409668
1.37948
1.415481
1.531172
1.531172
1.721678
1.925121
2.161003
2.356572
2.477513
2.542765
2.509952
2.38301
2.218755
2.218755
2.019999
1.820118
1.6493
1.496671
1.415856
1.355104
1.397668
1.513171
1.698427
1.698427
1.890245
2.135503
2.349822
2.459137
2.536577
2.510139
2.383198
2.225505
2.0395
2.0395
1.830431
1.663176
1.495358
1.412856
1.361854
1.393543
1.516921
1.670301
1.875432
1.875432
2.106064
2.28682
2.420887
2.480138
2.46795
2.350197
2.197192
2.004436
2.004436
1.80193
1.602986
1.413606
1.303727
1.257226
1.253476
1.262476
1.341978
1.496671
1.496671
1.668238
1.857619
2.011374
2.084501
2.054313
1.929621
1.830993
1.743428
1.765741
1.765741
1.71699
1.573923
1.423731
1.390918
1.39748
1.640488
1.880307
2.199067
2.596954
2.596954
2.661644
2.660894
2.661081
2.661081
2.661269
2.661644
2.556641
2.306508
2.083751
2.083751
1.88462
1.726928
1.62605
1.588548
1.6463
1.756366
1.921184
2.116377
2.293195
2.293195
2.410761
2.444137
2.410386
2.264507
2.092376
1.899621
1.692802
1.501171
1.501171
1.334853
1.264726
1.254413
1.255538
1.279727
1.40573
1.610674
1.843744
2.059375
2.059375
2.211817
2.287945
2.308008
2.196255
2.044
1.852182
1.670114
1.478483
1.325665
1.325665
1.267914
1.254038
1.253851
1.273914
1.375917
1.585548
1.808493
2.022624
2.204505
2.204505
2.288695
2.306133
2.219505
2.066875
1.883682
1.684739
1.501358
1.344791
1.271851
1.271851
1.255913
1.255351
1.268476
1.374792
1.574111
1.789929
2.011561
2.194567
2.194567
2.285507
2.310633
2.232256
2.074376
1.910496
1.712115
1.517484
1.355854
1.276539
1.276539
1.257976
1.254601
1.271101
1.369354
1.570548
1.789555
2.007436
2.200192
2.288882
2.288882
2.316633
2.232068
2.11769
1.910496
1.721678
1.522922
1.365042
1.274476
1.256476
1.256476
1.254788
1.271476
1.361854
1.558173
1.776617
1.998249
2.179754
2.278757
2.289632
2.289632
2.248381
2.111502
1.913308
1.72524
1.541297
1.372729
1.274664
1.256851
1.253101
1.253101
1.263226
1.339353
1.511109
1.735928
1.947247
2.147316
2.240131
2.29207
2.29207
2.227005
2.079626
1.911246
1.717177
1.526484
1.347791
1.271101
1.254413
1.250851
1.250851
1.255351
1.301477
1.474358
1.667676
1.899245
2.089001
2.200005
2.235631
2.177504
2.177504
2.047937
1.865307
1.664301
1.467795
1.314603
1.254601
1.250288
1.247663
1.249726
1.249726
1.263039
1.383417
1.583673
1.801367
2.016062
2.113752
2.156128
2.094626
1.981185
1.981185
1.80268
1.602799
1.38848
1.268101
1.249913
1.247288
1.246726
1.247101
1.247101
1.251788
1.304102
1.490296
1.714927
1.915371
2.049062
2.073063
2.035375
1.917996
1.917996
1.739491
1.544485
1.350229
1.260976
1.248413
1.246726
1.246538
1.246351
1.249913
1.249913
1.282164
1.458982
1.691677
1.87862
2.028062
2.086939
2.050188
1.927184
1.755804
1.755804
1.574486
1.382292
1.269414
1.249351
1.247101
1.246351
1.247101
1.250663
1.289852
1.289852
1.486358
1.710802
1.914246
2.069688
2.136065
2.109064
1.991686
1.844119
1.844119
1.652863
1.46817
1.316103
1.257226
1.250663
1.248226
1.248788
1.260601
1.356979
1.356979
1.570548
1.824056
2.010999
2.188379
2.264132
2.254569
2.146003
1.988498
1.79518
1.79518
1.62605
1.444919
1.309165
1.267351
1.255163
1.259851
1.313665
1.47717
1.687739
1.687739
1.920809
2.127252
2.288882
2.354134
2.346071
2.268069
2.114502
1.905621
1.736115
1.736115
1.554798
1.378542
1.304477
1.269789
1.275789
1.351541
1.508671
1.687364
1.687364
1.944997
2.168504
2.323008
2.391073
2.397073
2.285695
2.13269
1.937872
1.752241
1.752241
1.570548
1.396543
1.295477
1.275601
1.274664
1.343479
1.483545
1.70649
1.934309
1.934309
2.128377
2.308571
2.395386
2.37476
2.29132
2.139628
1.954372
1.757866
1.578423
1.578423
1.394855
1.30429
1.270726
1.269039
1.333166
1.470607
1.668801
1.890245
2.117127
2.117127
2.281195
2.368197
2.380948
2.27707
2.143753
1.958497
1.758804
1.568298
1.402918
1.402918
1.278789
1.274664
1.267914
1.304852
1.454857
1.64405
1.88387
2.081876
2.081876
2.267882
2.359385
2.365385
2.281007
2.134753
1.96431
1.760491
1.577298
1.410606
1.410606
1.298102
1.266789
1.259851
1.290602
1.422231
1.6268
1.863057
2.073063
2.260944
2.260944
2.342134
2.364447
2.29057
2.147128
1.969185
1.774554
1.580486
1.40648
1.302227
1.302227
1.266039
1.261726
1.292477
1.412293
1.614612
1.826493
2.055063
2.246694
2.317383
2.317383
2.359572
2.293758
2.166066
1.953247
1.79743
1.587986
1.414356
1.308977
1.308977
1.266976
1.260226
1.293414
1.39448
1.591924
1.80568
2.025999
2.244444
2.327321
2.327321
2.367822
2.298258
2.165316
1.977998
1.795367
1.595861
1.431419
1.32229
1.270164
1.270164
1.259476
1.279727
1.38248
1.572986
1.770617
1.996186
2.215755
2.294508
2.36576
2.36576
2.310446
2.154441
1.990561
1.797242
1.602986
1.430294
1.30204
1.266976
1.259476
1.259476
1.273726
1.366917
1.55761
1.777929
1.994498
2.184254
2.315133
2.353759
2.353759
2.311758
2.183879
1.989061
1.805118
1.608799
1.448107
1.307477
1.269414
1.260038
1.260038
1.273351
1.369729
1.547485
1.753179
1.991686
2.202817
2.301633
2.36651
2.319446
2.319446
2.197755
2.017749
1.818806
1.623987
1.458982
1.307477
1.276914
1.258726
1.267914
1.267914
1.335041
1.515609
1.738928
1.973498
2.176566
2.293008
2.363884
2.308196
2.20938
2.20938
2.030499
1.840556
1.650613
1.463857
1.329978
1.274289
1.259663
1.266039
1.321728
1.321728
1.510546
1.703115
1.928309
2.139253
2.263569
2.323571
2.302945
2.171504
2.171504
2.001624
1.80718
1.629987
1.448294
1.298852
1.262289
1.253851
1.255913
1.304852
1.304852
1.453919
1.670114
1.901308
2.106252
2.231693
2.288882
2.284007
2.159316
2.003499
2.003499
1.812243
1.633362
1.457482
1.302977
1.265101
1.255351
1.258538
1.315165
1.469295
1.469295
1.665801
1.891558
2.11844
2.269007
2.314196
2.283257
2.232631
2.065188
1.867932
1.867932
1.673676
1.512234
1.339916
1.276351
1.260226
1.263414
1.30804
1.467795
1.467795
1.686427
1.943684
2.112814
2.265632
2.335759
2.337071
2.231693
2.079626
1.891558
1.891558
1.695239
1.507921
1.357729
1.284789
1.258351
1.266601
1.314978
1.474545
1.676301
1.676301
1.894183
2.093876
2.27782
2.335009
2.340071
2.227755
2.068376
1.918184
1.729365
1.729365
1.533609
1.361104
1.275976
1.266226
1.263039
1.31029
1.450357
1.668051
1.894183
1.894183
2.092564
2.276132
2.338009
2.355822
2.266007
2.10869
1.927184
1.740241
1.554047
1.554047
1.378167
1.29829
1.263976
1.259663
1.305602
1.446419
1.657176
1.864744
2.265257
2.265257
2.364072
2.37476
2.270132
2.106814
1.908433
1.701614
1.508296
1.346104
1.272976
1.272976
1.255726
1.254038
1.276164
1.350791
1.512234
1.671051
1.900745
2.052813
2.092189
2.092189
2.094626
1.980435
1.79293
1.593986
1.392605
1.266976
1.250663
1.246913
1.246913
1.246351
1.246538
1.284602
1.541484
1.778867
1.935622
2.12594
2.320758
2.548015
2.548015
2.62808
2.661831
2.661644
2.661456
2.636331
2.506389
2.30707
2.148628
2.035
2.035
1.946122
1.921184
1.989436
2.12519
2.286445
2.464575
2.602954
2.587579
2.614205
2.614205
2.536577
2.36051
2.136815
1.900183
1.651738
1.454482
1.299602
1.260226
1.253476
1.253476
1.262476
1.315353
1.501358
1.698614
1.935809
2.116377
2.216693
2.233568
2.233568
2.21988
2.083376
1.905058
1.690177
1.497421
1.332416
1.264914
1.249726
1.251788
1.251788
1.257226
1.29979
1.476608
1.683614
1.928309
2.12969
2.21088
2.272944
2.236381
2.236381
2.104752
1.933371
1.741366
1.535484
1.369542
1.271664
1.257601
1.252163
1.259288
1.259288
1.317978
1.504358
1.707802
1.937684
2.133253
2.261694
2.300883
2.259444
2.128565
2.128565
1.95981
1.764616
1.572048
1.397855
1.291352
1.260038
1.254038
1.263039
1.329978
1.329978
1.509046
1.716427
1.918934
2.173754
2.282882
2.328634
2.299383
2.159503
2.159503
1.994498
1.803992
1.63355
1.423543
1.311228
1.265851
1.254976
1.262476
1.338416
1.338416
1.506608
1.710427
1.944247
2.141503
2.267694
2.334634
2.30107
2.162879
2.010436
2.010436
1.815618
1.624175
1.448669
1.307665
1.263976
1.256851
1.264164
1.31704
1.485608
1.485608
1.706677
1.906933
2.127065
2.266569
2.30182
2.300133
2.186504
2.017374
1.827993
1.827993
1.611049
1.452794
1.303165
1.264539
1.253288
1.260038
1.302415
1.437794
1.437794
1.648363
1.871682
2.076438
2.238443
2.295633
2.280445
2.163253
1.98456
1.79143
1.79143
1.597924
1.403855
1.284977
1.258913
1.251976
1.252163
1.266414
1.38998
1.594174
1.594174
1.809243
2.03875
2.153878
2.216693
2.214068
2.093876
1.951747
1.740991
1.53961
1.53961
1.363542
1.266789
1.251226
1.247288
1.249351
1.254788
1.32004
1.504921
1.733865
1.733865
1.942747
2.104377
2.165691
2.151441
2.073063
1.896433
1.701989
1.515234
1.343853
1.343853
1.259663
1.251226
1.247476
1.248038
1.256101
1.317978
1.524984
1.722053
1.722053
1.945747
2.114689
2.200192
2.212005
2.088251
1.96131
1.779242
1.586486
1.382855
1.382855
1.271289
1.252538
1.251788
1.249913
1.261163
1.327353
1.548797
1.775492
1.979873
1.979873
2.161941
2.237131
2.260382
2.173191
2.030312
1.835306
1.625112
1.506796
1.311978
1.311978
1.271289
1.255913
1.255913
1.288164
1.422606
1.651925
1.888933
2.097626
2.294132
2.294132
2.381698
2.419011
2.334446
2.223443
2.025999
1.844681
1.660926
1.507359
1.402543
1.402543
1.345729
1.330541
1.425043
1.595861
1.806055
2.021124
2.256069
2.4507
2.4507
2.551015
2.581954
2.499639
2.339321
2.21538
2.012311
1.81618
1.655488
1.54711
1.54711
1.485233
1.450732
1.549922
1.685489
1.895308
2.111877
2.340634
2.527765
2.599954
2.599954
2.605205
2.575579
2.434762
2.261319
2.072501
1.856494
1.704802
1.573548
1.496108
1.496108
1.454482
1.543922
1.682864
1.875995
2.091251
2.320008
2.512577
2.591516
2.593204
2.593204
2.580266
2.427449
2.276695
2.051125
1.884433
1.678926
1.574486
1.504171
1.504171
1.468357
1.532484
1.661488
1.860057
2.06125
2.289257
2.491576
2.577079
2.593954
2.593954
2.575016
2.430074
2.244069
2.072688
1.88012
1.70499
1.544297
1.48017
1.445482
1.445482
1.500046
1.62755
1.80793
2.053563
2.257756
2.459512
2.566766
2.601642
2.54014
2.54014
2.412261
2.268444
2.047
1.874495
1.695239
1.572423
1.476608
1.424106
1.506234
1.506234
1.602611
1.793867
2.005374
2.21988
2.436637
2.511077
2.598079
2.53264
2.365385
2.365385
2.20488
1.990186
1.828556
1.642738
1.501171
1.39673
1.348354
1.398605
1.398605
1.534734
1.707052
1.934684
2.129877
2.351697
2.473388
2.533952
2.487638
2.374197
2.374197
2.183879
2.013061
1.826681
1.671614
1.491421
1.414731
1.351541
1.416043
1.501733
1.501733
1.692802
1.889495
2.142066
2.349072
2.478826
2.529265
2.499264
2.382635
2.206567
2.206567
2.026562
1.837931
1.657551
1.537172
1.422981
1.370104
1.396355
1.518421
1.670301
1.670301
1.908808
2.122565
2.340446
2.478263
2.550828
2.539952
2.397073
2.244819
2.244819
2.063875
1.859869
1.667301
1.515046
1.449232
1.374604
1.415668
1.520109
1.699739
1.699739
1.87262
2.117502
2.320571
2.450512
2.529077
2.53039
2.422574
2.257756
2.076251
2.076251
1.856869
1.701802
1.562485
1.456544
1.375355
1.369354
1.469295
1.704427
1.871682
1.871682
2.113377
2.28907
2.44695
2.533952
2.524952
2.411699
2.267882
2.064063
1.890245
1.890245
1.704802
1.53811
1.452419
1.375167
1.378355
1.48092
1.647613
1.861932
2.090126
2.090126
2.30182
2.463075
2.529265
2.524577
2.426512
2.276695
2.098939
1.901495
1.901495
1.716802
1.546922
1.459169
1.386042
1.378542
1.479608
1.641237
1.849556
2.080376
2.080376
2.287757
2.448637
2.519139
2.53039
2.443012
2.292258
2.110189
1.919871
1.731615
1.731615
1.557235
1.457107
1.391105
1.380417
1.48317
1.6343
1.776617
2.089376
2.274444
2.274444
2.455575
2.525515
2.551765
2.455387
2.317571
2.12669
1.941059
1.747553
1.577298
1.577298
1.471732
1.390918
1.378355
1.472857
1.604486
1.802493
2.0365
2.236381
2.236381
2.431949
2.508827
2.527202
2.437574
2.290945
2.112814
1.921934
1.725428
1.579173
1.579173
1.449044
1.375167
1.356604
1.441919
1.569985
1.781304
2.001061
2.221943
2.419949
2.419949
2.502076
2.536202
2.4657
2.324696
2.135503
1.95831
1.763866
1.592299
1.491045
1.491045
1.412293
1.38773
1.443794
1.592111
1.775304
2.002561
2.243131
2.436825
2.534515
2.534515
2.54689
2.492139
2.352072
2.157441
1.995623
1.779242
1.628487
1.505671
1.505671
1.423543
1.397105
1.454857
1.597549
1.784305
2.017749
2.255694
2.433449
2.519139
2.519139
2.563766
2.505076
2.372135
2.178442
2.011374
1.809993
1.624737
1.512984
1.452419
1.452419
1.404605
1.470982
1.600174
1.797805
2.007811
2.229256
2.431574
2.53114
2.574454
2.574454
2.522139
2.38376
2.232818
2.021687
1.830993
1.666926
1.536984
1.442482
1.406855
1.406855
1.471545
1.601299
1.772867
1.993373
2.22588
2.438699
2.53789
2.574079
2.541453
2.541453
2.409448
2.231131
2.036312
1.839994
1.672364
1.528172
1.452232
1.410606
1.410606
1.460857
1.586111
1.775304
1.982123
2.195692
2.349634
2.484451
2.53114
2.493639
2.493639
2.360135
2.21538
2.005936
1.777929
1.621924
1.458232
1.32154
1.265289
1.269601
1.269601
1.330541
1.515984
1.717365
1.906183
2.121252
2.254006
2.346071
2.266007
2.11769
2.11769
2.021124
2.039312
2.002186
1.848806
1.634862
1.528172
1.47117
1.645363
1.935434
1.935434
2.312508
2.64308
2.661081
2.660706
2.660706
2.660519
2.660894
2.661081
2.653394
2.525327
2.525327
2.29132
2.05675
1.919309
1.798742
1.770242
1.842806
2.000499
2.149378
2.149378
2.346071
2.502264
2.600142
2.621143
2.556641
2.415261
2.237318
2.034062
1.81243
1.81243
1.633925
1.479045
1.383792
1.325478
1.336916
1.466482
1.6253
1.838306
2.061813
2.061813
2.258694
2.403448
2.480138
2.460263
2.347947
2.189504
1.995811
1.812993
1.630925
1.630925
1.455232
1.368042
1.31629
1.324728
1.438919
1.597361
1.800805
2.031062
2.235443
2.235443
2.401011
2.481638
2.485013
2.377948
2.218755
2.024499
1.836431
1.641237
1.641237
1.490858
1.394293
1.327541
1.344791
1.446232
1.605611
1.808118
2.036687
2.254381
2.254381
2.422199
2.477701
2.481826
2.382448
2.228881
2.052063
1.840931
1.659613
1.493296
1.493296
1.40648
1.341228
1.341603
1.431794
1.57036
1.802493
2.014936
2.209755
2.381323
2.381323
2.462888
2.493826
2.378135
2.21613
2.035562
1.837744
1.6433
1.460857
1.371792
1.371792
1.313102
1.31254
1.401793
1.561173
1.747366
1.965435
2.187629
2.343071
2.433449
2.433449
2.454825
2.360884
2.21088
2.019437
1.833806
1.641988
1.466857
1.374042
1.374042
1.308227
1.292102
1.356229
1.514109
1.696927
1.949685
2.144503
2.323758
2.398761
2.398761
2.414886
2.350197
2.176566
1.995436
1.822181
1.618174
1.452044
1.339353
1.278977
1.278977
1.271851
1.320415
1.450919
1.654926
1.872807
2.074938
2.251944
2.333884
2.36426
2.36426
2.28682
2.140753
1.954185
1.756366
1.552547
1.382667
1.286102
1.259663
1.255726
1.255726
1.272789
1.347979
1.564735
1.777742
1.979873
2.168504
2.254006
2.28307
2.28307
2.191192
2.062938
1.872432
1.667676
1.479983
1.314978
1.258351
1.250663
1.248788
1.248788
1.253663
1.284414
1.446044
1.652488
1.890808
2.072501
2.151066
2.197005
2.120877
2.120877
1.989248
1.799117
1.6403
1.423731
1.293227
1.253851
1.249351
1.248038
1.251038
1.251038
1.274664
1.424106
1.636925
1.865119
2.061625
2.160441
2.208255
2.154816
2.016437
2.016437
1.838869
1.654738
1.471357
1.31629
1.258538
1.251038
1.249538
1.253476
1.286289
1.286289
1.46217
1.676676
1.900371
2.107189
2.22363
2.269944
2.229631
2.108877
2.108877
1.936747
1.752428
1.575423
1.416793
1.29904
1.266789
1.258351
1.277101
1.378917
1.378917
1.577673
1.793492
2.036687
2.244631
2.36651
2.439637
2.407573
2.283632
2.117877
2.117877
1.934872
1.763304
1.587799
1.449794
1.38473
1.334853
1.400293
1.541109
1.71549
1.71549
1.942559
2.179004
2.384885
2.514827
2.595079
2.549515
2.432699
2.273319
2.085251
2.085251
1.89362
1.73274
1.579736
1.504921
1.442294
1.47792
1.594924
1.775117
1.775117
1.986998
2.220068
2.408699
2.550453
2.605392
2.580266
2.461388
2.301258
2.106252
2.106252
1.910496
1.73724
1.583486
1.494421
1.436106
1.462545
1.576923
1.753741
1.957372
1.957372
2.187254
2.390136
2.526827
2.601079
2.574454
2.461388
2.301445
2.099314
1.917996
1.917996
1.732928
1.574673
1.480358
1.421293
1.436106
1.554985
1.723553
1.924934
2.161378
2.161378
2.361259
2.502451
2.577641
2.574641
2.457075
2.304258
2.106252
1.916496
1.736115
1.736115
1.573735
1.480733
1.416231
1.432356
1.537734
1.707802
1.901308
2.14694
2.14694
2.346447
2.520827
2.581391
2.575016
2.465325
2.310258
2.124253
1.926809
1.749803
1.749803
1.589861
1.493108
1.424106
1.426356
1.535859
1.688864
1.896058
2.125002
2.332009
2.332009
2.499826
2.574266
2.573141
2.475451
2.327696
2.137753
1.948747
1.755616
1.595111
1.595111
1.502483
1.424293
1.417731
1.525172
1.687364
1.88762
2.11094
2.318321
2.489701
2.489701
2.570328
2.586079
2.492514
2.337821
2.153878
1.966935
1.776804
1.611237
1.611237
1.516171
1.439856
1.429356
1.524234
1.673114
1.87412
2.100439
2.310071
2.488389
2.488389
2.570516
2.585704
2.501701
2.355072
2.166816
1.978935
1.79518
1.6313
1.525359
1.525359
1.441919
1.431981
1.524796
1.668613
1.873745
2.091439
2.313071
2.491763
2.577641
2.577641
2.591892
2.517452
2.370635
2.188004
1.997873
1.814118
1.642925
1.527047
1.443607
1.443607
1.434981
1.514671
1.651738
1.855557
2.068938
2.294695
2.476013
2.569203
2.597704
2.597704
2.52439
2.381135
2.198317
2.007999
1.818618
1.652113
1.531547
1.451107
1.451107
1.427106
1.499858
1.64405
1.850681
2.056563
2.273882
2.467013
2.575391
2.606704
2.606704
2.538827
2.398948
2.22138
2.030312
1.835868
1.665801
1.539422
1.460295
1.422043
1.422043
1.497046
1.633737
1.831181
2.038937
2.260944
2.460638
2.570703
2.601642
2.541265
2.541265
2.405324
2.227193
2.035375
1.841681
1.676489
1.548422
1.470045
1.434419
1.500796
1.500796
1.627737
1.827056
2.050188
2.274069
2.475075
2.581391
2.622643
2.572579
2.572579
2.429137
2.248381
2.062001
1.863244
1.693177
1.560798
1.479045
1.435169
1.483545
1.483545
1.604111
1.794617
2.000686
2.232443
2.428387
2.53864
2.587204
2.54014
2.404948
2.404948
2.245006
2.04025
1.847494
1.674051
1.536422
1.455607
1.411168
1.464982
1.591549
1.591549
1.782617
1.997123
2.229068
2.432887
2.555703
2.612142
2.578954
2.447887
2.284382
2.284382
2.095376
1.895495
1.71699
1.573173
1.490296
1.439481
1.482045
1.608612
1.795367
1.795367
1.998999
2.235256
2.436074
2.566391
2.619455
2.591329
2.470013
2.303695
2.303695
2.105314
1.916121
1.745303
1.594736
1.508671
1.447919
1.48392
1.602611
