3734.0
1.482983
1.438731
1.326416
1.305602
1.30804
1.326041
1.361104
1.399355
1.473232
1.498921
1.521046
1.509421
1.47867
1.434044
1.391667
1.349854
1.32379
1.31029
1.310665
1.323603
1.362979
1.48992
1.524047
1.54636
1.537734
1.513734
1.48092
1.443232
1.405543
1.37873
1.355291
1.363167
1.38323
1.426919
1.54861
1.586861
1.615924
1.627362
1.620612
1.596799
1.488795
1.460857
1.445107
1.444732
1.455607
1.478108
1.605049
1.646863
1.680989
1.704427
1.712865
1.700677
1.610299
1.584236
1.553672
1.527984
1.524796
1.536047
1.619299
1.664488
1.704615
1.72674
1.751303
1.761616
1.679114
1.639363
1.605986
1.574673
1.54711
1.538297
1.560235
1.596049
1.670488
1.708177
1.73574
1.752991
1.753928
1.739303
1.712865
1.674239
1.596986
1.563798
1.54186
1.53811
1.570548
1.64555
1.686802
1.713427
1.735928
1.725615
1.703864
1.617612
1.575048
1.54261
1.510734
1.500046
1.510359
1.54936
1.595486
1.63205
1.664113
1.712115
1.718115
1.704427
1.691864
1.655863
1.618737
1.583111
1.505858
1.516171
1.54186
1.581423
1.617424
1.658113
1.72224
1.709115
1.692427
1.6538
1.610862
1.569235
1.490108
1.492171
1.501733
1.528359
1.569985
1.614612
1.694489
1.718302
1.72374
1.71099
1.654738
1.617237
1.539235
1.507733
1.497796
1.522734
1.55461
1.596986
1.681551
1.714177
1.734803
1.748116
1.739678
1.72074
1.679864
1.600174
1.565673
1.540172
1.522922
1.518984
1.525921
1.670864
1.702739
1.72599
1.738928
1.728053
1.713802
1.600924
1.557985
1.518796
1.494608
1.487295
1.499296
1.605799
1.64855
1.679489
1.708552
1.718302
1.712865
1.704802
1.626425
1.599986
1.569423
1.539235
1.517296
1.511859
1.63955
1.680426
1.708927
1.743803
1.755804
1.747366
1.658676
1.618362
1.579173
1.562673
1.543547
1.537172
1.616299
1.653613
1.693177
1.722428
1.744928
1.759929
1.705364
1.668426
1.629237
1.588548
1.563798
1.547297
1.577861
1.610299
1.659613
1.700677
1.736303
1.757304
1.753553
1.72449
1.681739
1.63955
1.603549
1.581236
1.556485
1.565485
1.580111
1.620049
1.656988
1.701239
1.733865
1.754866
1.727115
1.686051
1.643113
1.607112
1.579173
1.563423
1.581236
1.622112
1.660738
1.700114
1.728428
1.769679
1.767617
1.737615
1.698614
1.658863
1.612549
1.535672
1.556298
1.564735
1.605424
1.658676
1.696552
1.727303
1.670676
1.617049
1.549735
1.479795
1.417918
1.266601
1.261163
1.263414
1.257601
1.272976
1.347791
1.867182
1.80118
1.775867
1.740991
1.794805
1.826868
2.013999
1.986061
1.950997
1.924184
1.925309
1.955497
2.015499
2.032937
2.025999
1.991498
1.957185
1.896433
1.71024
1.653988
1.598299
1.56211
1.551797
1.524047
1.54411
1.615549
1.657363
1.674239
1.687739
1.699177
1.693177
1.557047
1.529109
1.500421
1.488795
1.49292
1.501171
1.578611
1.655301
1.689052
1.714552
1.718865
1.70724
1.684926
1.647425
1.605424
1.523484
1.497046
1.490108
1.509046
1.6313
1.662801
1.694864
1.716052
1.716615
1.701052
1.646488
1.538297
1.515421
1.508296
1.513921
1.523109
1.599986
1.6418
1.678739
1.708365
1.725428
1.728615
1.693927
1.6523
1.616674
1.583861
1.522922
1.509984
1.518234
1.532297
1.569235
1.605799
1.6478
1.687927
1.739491
1.705364
1.667113
1.6223
1.578048
1.54336
1.522734
1.515046
1.528922
1.56061
1.602611
1.646675
1.681551
1.710052
1.703115
1.664488
1.625487
1.586673
1.547672
1.523296
1.515796
1.530234
1.593986
1.634862
1.669363
1.699552
1.72974
1.721115
1.668801
1.626425
1.584048
1.542047
1.509796
1.504733
1.504546
1.53811
1.574673
1.609174
1.64555
1.686989
1.668988
1.632612
1.589486
1.541484
1.497421
1.46217
1.447357
1.454669
1.476608
1.514296
1.548235
1.581611
1.62305
1.607862
1.567923
1.527422
1.491421
1.451294
1.420918
1.398418
1.40498
1.429731
1.471732
1.509421
1.544672
1.595299
1.579923
1.539797
1.500796
1.46892
1.427481
1.393355
1.38098
1.392417
1.421293
1.458795
1.499858
1.54336
1.585361
1.583111
1.546172
1.503421
1.470045
1.436669
1.40348
1.38698
1.40423
1.430669
1.47567
1.515234
1.56436
1.642738
1.636362
1.600549
1.560798
1.521046
1.492546
1.476233
1.464045
1.48317
1.507921
1.546547
1.592486
1.640488
1.729553
1.72524
1.71249
1.656613
1.617237
1.57261
1.556485
1.537172
1.536234
1.553485
1.572798
1.617612
1.699739
1.776429
1.772492
1.759554
1.724303
1.685489
1.6508
1.568298
1.561923
1.574861
1.588923
1.630925
1.668238
1.770054
1.782429
1.784117
1.770429
1.732928
1.690177
1.576361
1.560423
1.554985
1.558548
1.579923
1.615362
1.731428
1.751866
1.763304
1.759741
1.749241
1.714365
1.600736
1.566798
1.53961
1.533984
1.541672
1.560423
1.600549
1.677426
1.707802
1.738178
1.746428
1.749241
1.742116
1.582736
1.55086
1.531172
1.520671
1.534922
1.548985
1.674801
1.70499
1.732928
1.747366
1.752053
1.746241
1.71099
1.631112
1.592486
1.558923
1.54186
1.527422
1.536234
1.663738
1.698614
1.730303
1.748116
1.752616
1.735928
1.6283
1.589298
1.559485
1.536984
1.519359
1.536422
1.549172
1.622112
1.659988
1.702177
1.739678
1.751303
1.761616
1.640863
1.602611
1.570923
1.542235
1.532484
1.54186
1.624925
1.669176
1.714365
1.741366
1.764429
1.770054
1.693364
1.653425
1.616112
1.587423
1.562673
1.553485
1.577673
1.614424
1.685864
1.72974
1.761804
1.775867
1.782054
1.764616
1.698052
1.659238
1.609549
1.583486
1.557235
1.576361
1.622675
1.658863
1.691302
1.720927
1.745116
1.71024
1.674801
1.6403
1.598486
1.572235
1.534547
1.549547
1.588923
1.634487
1.677051
1.712865
1.739678
1.779804
1.766491
1.747178
1.706302
1.665426
1.585923
1.547672
1.552547
1.565298
1.599611
1.637112
1.719052
1.768929
1.777742
1.769116
1.750178
1.707802
1.63505
1.570735
1.55911
1.55911
1.57186
1.602799
1.683801
1.724303
1.752803
1.774179
1.785617
1.776992
1.724303
1.686051
1.576173
1.56661
1.566235
1.578986
1.609174
1.656426
1.764616
1.783929
1.790117
1.778492
1.755991
1.72599
1.608987
1.578611
1.569235
1.571486
1.584236
1.605986
1.649675
1.731428
1.759366
1.778304
1.794242
1.790492
1.770617
1.614987
1.581798
1.570735
1.559673
1.557235
1.56061
1.686989
1.721678
1.752053
1.758991
1.730115
1.694489
1.450169
1.362604
1.311603
1.277476
1.264726
1.259288
1.263789
1.267914
1.281977
1.312728
1.407043
1.613862
1.662426
1.639925
1.6298
1.715302
1.73274
1.806055
1.984748
2.132878
2.14394
2.167004
2.194567
2.182567
2.148441
1.96431
1.901495
1.833806
1.762554
1.714552
1.689801
1.683989
1.668238
1.702739
1.71324
1.737053
1.744366
1.734241
1.6283
1.590424
1.552922
1.528359
1.511484
1.508671
1.519359
1.540922
1.612362
1.6538
1.681551
1.704802
1.714177
1.664676
1.584611
1.548985
1.518234
1.499858
1.498171
1.524609
1.563798
1.608237
1.648925
1.710052
1.72299
1.703677
1.676301
1.636362
1.597174
1.529109
1.507546
1.501358
1.511859
1.533797
1.574861
1.655113
1.686239
1.711927
1.715865
1.687551
1.608799
1.566423
1.541484
1.524796
1.528359
1.544672
1.609924
1.651363
1.691114
1.71999
1.72899
1.71549
1.65155
1.611424
1.576548
1.549172
1.520109
1.527609
1.576736
1.617424
1.653613
1.692802
1.735928
1.740616
1.731615
1.701239
1.656988
1.616487
1.523672
1.513546
1.516734
1.539235
1.57336
1.607487
1.647988
1.71699
1.735553
1.73799
1.725803
1.695052
1.654176
1.515609
1.502108
1.506984
1.517859
1.550672
1.592111
1.692052
1.699927
1.699552
1.686427
1.654363
1.618362
1.494233
1.462545
1.448482
1.45842
1.464982
1.494421
1.533047
1.599424
1.624925
1.639738
1.641613
1.631112
1.604299
1.435919
1.404605
1.388667
1.393543
1.40498
1.436669
1.547297
1.572048
1.591736
1.596424
1.584236
1.566985
1.443607
1.410793
1.38623
1.374792
1.385667
1.391855
1.419418
1.496108
1.534922
1.563048
1.585923
1.592299
1.582736
1.443794
1.413793
1.391105
1.382292
1.392043
1.40798
1.538859
1.579923
1.608237
1.6328
1.65005
1.63805
1.554798
1.513734
1.486733
1.458607
1.448857
1.455607
1.46817
1.551797
1.598861
1.646488
1.684551
1.708927
1.717177
1.666926
1.627737
1.56211
1.534547
1.523109
1.529484
1.540922
1.576361
1.621924
1.665238
1.750366
1.775867
1.786367
1.722803
1.680239
1.611237
1.579736
1.564548
1.567173
1.602611
1.65155
1.730303
1.762179
1.786367
1.79218
1.760491
1.726178
1.64555
1.610674
1.579173
1.564173
1.560798
1.576923
1.602799
1.633362
1.713427
1.741928
1.765929
1.754491
1.707615
1.674239
1.599049
1.572048
1.56136
1.574486
1.595111
1.640675
1.721303
1.752241
1.778117
1.773617
1.760304
1.725615
1.638238
1.603174
1.566235
1.548985
1.566985
1.587048
1.6268
1.707615
1.739116
1.762179
1.774179
1.768179
1.754116
1.718115
1.63355
1.593986
1.540172
1.55311
1.572423
1.604861
1.682864
1.715302
1.743991
1.775304
1.766491
1.755616
1.725053
1.679301
1.6373
1.538297
1.561735
1.583486
1.622487
1.701427
1.736115
1.773804
1.769304
1.756366
1.717552
1.6448
1.605611
1.576361
1.55386
1.548422
1.564923
1.586673
1.6223
1.659426
1.776804
1.776054
1.755804
1.722803
1.677426
1.630925
1.569423
1.538672
1.551422
1.563985
1.603174
1.637487
1.724865
1.783179
1.781492
1.768554
1.734991
1.700114
1.625675
1.564735
1.563798
1.582736
1.593611
1.637862
1.717927
1.782242
1.794992
1.783179
1.763116
1.733115
1.657551
1.590611
1.558923
1.557985
1.575986
1.594174
1.664863
1.709115
1.771367
1.779804
1.782617
1.768366
1.694864
1.65005
1.579923
1.55311
1.534172
1.545985
1.566985
1.602986
1.688676
1.728428
1.762366
1.770242
1.752616
1.678176
1.594924
1.557047
1.532109
1.524421
1.536234
1.590424
1.681176
1.72374
1.754304
1.772304
1.772492
1.740428
1.664113
1.62605
1.592861
1.565298
1.547485
1.55686
1.574673
1.606174
1.647613
1.72449
1.753741
1.766491
1.73349
1.659051
1.618362
1.580486
1.553485
1.541672
1.559485
1.578798
1.618549
1.660176
1.736866
1.767991
1.783554
1.752616
1.706677
1.627925
1.594174
1.574486
1.565485
1.583861
1.620424
1.699177
1.744178
1.766866
1.784679
1.789929
1.759366
1.675551
1.636737
1.575798
1.563985
1.55836
1.573735
1.645738
1.687364
1.724303
1.757679
1.793867
1.781867
1.719802
1.678739
1.637487
1.603924
1.56511
1.571298
1.581048
1.609737
1.658301
1.680239
1.70799
1.741178
1.750928
1.739866
1.733115
1.644425
1.579923
1.375355
1.32979
1.31329
1.31479
1.308977
1.31329
1.334478
1.325478
1.305227
1.302977
1.315353
1.559673
1.660551
1.581798
1.608049
1.758054
1.849556
1.989998
2.182379
2.322071
2.294695
2.284382
2.230381
2.135128
2.060126
1.882933
1.843556
1.805118
1.773617
1.771179
1.800055
1.820306
1.809993
1.787867
1.749803
1.72899
1.687176
1.538672
1.506984
1.492546
1.495358
1.510734
1.535109
1.661676
1.695052
1.708552
1.718865
1.70649
1.687739
1.572798
1.530609
1.503796
1.486733
1.480733
1.490108
1.601299
1.652675
1.678926
1.707615
1.711177
1.700677
1.613299
1.581423
1.550297
1.520109
1.506234
1.503046
1.573735
1.610862
1.655113
1.686051
1.713615
1.720178
1.665801
1.620987
1.581048
1.54561
1.514859
1.492546
1.532859
1.57336
1.609362
1.64705
1.680426
1.710427
1.716427
1.673114
1.636925
1.594549
1.557235
1.530984
1.497983
1.514484
1.531922
1.578798
1.657363
1.692614
1.734241
1.72524
1.708927
1.673114
1.589861
1.552172
1.505671
1.495546
1.505858
1.524796
1.598299
1.635237
1.700114
1.709865
1.708365
1.698989
1.664863
1.619487
1.510171
1.486545
1.47567
1.486733
1.506234
1.54636
1.642925
1.680051
1.693927
1.689239
1.670864
1.637112
1.503233
1.46967
1.449794
1.436669
1.444169
1.449607
1.483545
1.553297
1.583111
1.613299
1.625675
1.621737
1.610487
1.442669
1.39223
1.377417
1.362979
1.374792
1.386605
1.487858
1.519359
1.54711
1.564173
1.56661
1.551235
1.434419
1.402168
1.368604
1.337666
1.32304
1.339916
1.388855
1.428981
1.503608
1.537172
1.55236
1.558923
1.548985
1.523672
1.488045
1.447544
1.375355
1.357729
1.348541
1.415106
1.488045
1.534734
1.568673
1.587986
1.591549
1.564923
1.491608
1.45617
1.422418
1.400293
1.396168
1.431606
1.46967
1.54861
1.604861
1.634862
1.664113
1.678926
1.676676
1.656426
1.619299
1.546172
1.515796
1.500796
1.525921
1.564923
1.609362
1.692239
1.72899
1.742491
1.749053
1.726178
1.688676
1.606737
1.581423
1.548985
1.557423
1.567735
1.606924
1.650238
1.722053
1.749616
1.784117
1.767241
1.750928
1.715302
1.669926
1.594549
1.551985
1.56211
1.576173
1.607487
1.680614
1.720178
1.773054
1.781492
1.765366
1.744553
1.711365
1.631487
1.557235
1.552922
1.55536
1.564173
1.592861
1.635237
1.715302
1.741366
1.759741
1.763116
1.757116
1.741741
1.70349
1.554422
1.542047
1.54861
1.555547
1.620424
1.658488
1.73049
1.740241
1.757866
1.743803
1.723365
1.645925
1.606924
1.577111
1.550485
1.533797
1.539422
1.552735
1.585173
1.719802
1.739678
1.748866
1.734241
1.71399
1.684926
1.570735
1.539984
1.527047
1.531172
1.543735
1.576736
1.691114
1.719052
1.749616
1.752241
1.741366
1.72899
1.617237
1.578423
1.54861
1.535109
1.533422
1.54486
1.656801
1.698239
1.731428
1.756554
1.766304
1.756554
1.740803
1.655301
1.623425
1.585361
1.552735
1.537359
1.536797
1.652488
1.690927
1.722615
1.748116
1.755804
1.749241
1.662426
1.625112
1.589111
1.560235
1.538859
1.537359
1.62755
1.663551
1.696927
1.724115
1.752241
1.767241
1.71549
1.676676
1.636925
1.600736
1.572235
1.55611
1.545797
1.576548
1.616299
1.656426
1.696177
1.72674
1.749803
1.708552
1.663176
1.626425
1.587236
1.559298
1.537734
1.55536
1.617612
1.663176
1.701802
1.733115
1.759366
1.763116
1.717927
1.678926
1.640675
1.597736
1.572048
1.542047
1.55386
1.573548
1.6493
1.699364
1.725615
1.754679
1.767617
1.763491
1.750366
1.673676
1.6343
1.597174
1.53811
1.543922
1.552547
1.589298
1.664676
1.70499
1.740803
1.761991
1.756741
1.744928
1.714552
1.678176
1.6388
1.533047
1.550485
1.57261
1.613862
1.655488
1.694489
1.764241
1.762929
1.755054
1.722803
1.677426
1.629425
1.559298
1.528359
1.536047
1.543172
1.573923
1.611987
1.686427
1.718302
1.72074
1.71324
1.685114
1.650613
1.572048
1.525547
1.518609
1.527797
1.541672
1.576548
1.660738
1.699177
1.735928
1.754116
1.737053
1.710615
1.6268
1.590049
1.565673
1.540359
1.543735
1.560423
1.633925
1.679114
1.715302
1.745866
1.770429
1.755804
1.684364
1.647238
1.610487
1.576173
1.549922
1.541297
1.590236
1.632425
1.670864
1.709865
1.741553
1.761991
1.72824
1.691302
1.653425
1.611424
1.583486
1.555735
1.547672
1.565673
1.601111
1.643863
1.683239
1.716052
1.744178
1.726928
1.689989
1.65005
1.614237
1.581236
1.55536
1.564735
1.599799
1.6388
1.676489
1.715115
1.743616
1.756554
1.734428
1.694489
1.64105
1.581048
1.53961
1.511296
1.504921
1.530609
1.569423
1.601111
1.622487
1.629425
1.53811
1.46592
1.393355
1.313478
1.279164
1.265476
1.255913
1.254601
1.327541
1.583298
1.767804
1.815055
1.834181
1.854807
1.979873
2.043625
2.088814
2.209005
2.118627
2.068001
2.065938
2.053375
2.040625
2.057125
2.056563
2.05075
2.014374
1.957185
1.912183
1.793117
1.724678
1.656426
1.591736
1.546172
1.526859
1.525172
1.585361
1.668426
1.695989
1.695989
1.675176
1.6373
1.599611
1.514859
1.480358
1.469295
1.479045
1.506234
1.547485
1.618737
1.643113
1.669551
1.683614
1.674051
1.658488
1.556298
1.516921
1.490296
1.469857
1.460857
1.474545
1.581236
1.621174
1.644988
1.665051
1.674051
1.665801
1.577861
1.548797
1.509046
1.480733
1.468357
1.474545
1.574298
1.607112
1.653425
1.683426
1.701239
1.71249
1.65155
1.611237
1.571486
1.536984
1.512046
1.496671
1.519734
1.562673
1.598486
1.64405
1.674614
1.698052
1.684551
1.65305
1.608799
1.57036
1.531922
1.506046
1.48992
1.479045
1.513546
1.548985
1.584236
1.627925
1.663551
1.699364
1.6538
1.605986
1.56211
1.524796
1.494046
1.467607
1.479045
1.530797
1.570548
1.607487
1.643113
1.677989
1.669926
1.651925
1.617237
1.576548
1.536797
1.439856
1.426919
1.434044
1.451857
1.486358
1.520484
1.612737
1.622862
1.612924
1.597174
1.564923
1.520109
1.394855
1.37873
1.371042
1.37648
1.38998
1.420356
1.458982
1.525921
1.544485
1.551985
1.546922
1.524984
1.492733
1.345166
1.321165
1.31779
1.329041
1.348729
1.381355
1.487108
1.513921
1.527422
1.527422
1.516359
1.492546
1.367667
1.339353
1.323603
1.308977
1.320603
1.334478
1.442482
1.48392
1.512609
1.526672
1.523672
1.519734
1.488608
1.410043
1.375542
1.355479
1.328291
1.321353
1.336916
1.48692
1.521234
1.554422
1.580486
1.595299
1.583298
1.488795
1.453169
1.422418
1.410981
1.414543
1.425606
1.527234
1.57261
1.616487
1.65155
1.673489
1.681364
1.674051
1.616299
1.580673
1.545047
1.516359
1.502858
1.497046
1.604674
1.644613
1.680614
1.711365
1.732553
1.732365
1.672176
1.6388
1.597174
1.566423
1.547297
1.536422
1.595299
1.629612
1.662988
1.704052
1.734615
1.752803
1.740428
1.72599
1.640675
1.604299
1.571486
1.540735
1.530609
1.54186
1.548235
1.622862
1.659613
1.696927
1.727115
1.73349
1.660551
1.634487
1.591549
1.551985
1.530984
1.523109
1.557985
1.598111
1.63505
1.663363
1.698802
1.717552
1.692052
1.651175
1.618737
1.581611
1.548235
1.527234
1.516359
1.530234
1.590049
1.630362
1.670301
1.70349
1.736115
1.720365
1.64705
1.605049
1.562673
1.531172
1.503421
1.489545
1.500046
1.54786
1.585923
1.625862
1.664863
1.732178
1.694864
1.655301
1.613299
1.575236
1.543922
1.495358
1.496671
1.501733
1.576736
1.622487
1.659051
1.722053
1.726553
1.715865
1.662988
1.620424
1.57111
1.512984
1.499671
1.496483
1.533797
1.575048
1.617987
1.659238
1.692427
1.71399
1.72749
1.699927
1.669926
1.628112
1.522734
1.500608
1.523296
1.545985
1.578798
1.622862
1.690552
1.714552
1.732365
1.72299
1.672176
1.632237
1.592299
1.555735
1.527984
1.511671
1.510734
1.552735
1.589111
1.704615
1.734428
1.72974
1.71324
1.687927
1.650988
1.56886
1.537922
1.521046
1.523296
1.54486
1.579548
1.618549
1.654363
1.687551
1.720927
1.724865
1.714927
1.673489
1.55386
1.526484
1.509233
1.503796
1.513921
1.577861
1.663176
1.699177
1.728803
1.741928
1.73724
1.682676
1.605424
1.567735
1.531734
1.515984
1.509609
1.522734
1.617799
1.659238
1.697114
1.72524
1.73274
1.728803
1.714927
1.633737
1.597549
1.554047
1.524984
1.503983
1.503421
1.611612
1.658863
1.694677
1.721865
1.734615
1.728428
1.642738
1.607487
1.572048
1.537172
1.512046
1.501546
1.569985
1.615737
1.655676
1.689801
1.71474
1.734991
1.689614
1.644988
1.601486
1.559298
1.533234
1.508296
1.522359
1.557985
1.599049
1.635612
1.676489
1.708552
1.693364
1.673676
1.6283
1.588923
1.554235
1.520109
1.507171
1.520671
1.564735
1.601861
1.633362
1.673864
1.727303
1.720927
1.702552
1.633362
1.589674
1.548422
1.499296
1.48392
1.510921
1.535672
1.555547
1.616862
1.638425
1.661301
1.677801
1.678739
1.652675
1.602424
1.566423
1.478483
1.488233
1.506608
1.536234
1.583111
1.608424
1.686051
1.707802
1.702739
1.693927
1.641613
1.605611
1.536797
1.491421
1.498733
1.513734
1.552172
1.598111
1.673864
1.72224
1.726365
1.71324
1.686427
1.649863
1.575048
1.516171
1.477545
1.527984
1.537359
1.564548
1.642363
1.679489
1.701427
1.720552
1.713427
1.688114
1.609549
1.572986
1.535297
1.515421
1.509984
1.527609
1.601486
1.642925
1.679676
1.708927
1.72749
1.725053
1.708927
1.660363
1.616299
1.579548
1.545235
1.519359
1.509796
1.606737
1.648363
1.690739
1.735553
1.742491
1.731428
1.679114
1.626987
1.572048
1.512234
1.503796
1.506046
1.566798
1.617799
1.637112
1.676114
1.654551
1.627737
1.515421
1.450357
1.418668
1.285164
1.265289
1.261163
1.267539
1.285164
1.515796
1.89737
1.866619
1.857807
1.794242
1.888183
1.938997
2.158566
2.190067
2.132128
2.005374
1.960747
1.971998
1.986623
2.025437
2.061438
2.003686
1.951935
1.908621
1.849556
1.770242
1.643675
1.551235
1.522922
1.495546
1.478858
1.533797
1.581986
1.641613
1.662426
1.647425
1.634112
1.596986
1.515046
1.456357
1.434981
1.432544
1.447732
1.46742
1.545047
1.587986
1.621924
1.648363
1.661488
1.644988
1.63205
1.569423
1.475108
1.447919
1.447169
1.455982
1.53811
1.564173
1.603174
1.63505
1.655488
1.667488
1.662988
1.601486
1.563235
1.476045
1.453919
1.451107
1.494046
1.513734
1.563235
1.642175
1.659988
1.677239
1.674426
1.614799
1.587611
1.505483
1.47417
1.448482
1.440419
1.477733
1.525547
1.565485
1.601299
1.628675
1.657363
1.671988
1.644238
1.618549
1.504171
1.462357
1.441356
1.453919
1.47867
1.515046
1.593799
1.634862
1.661488
1.64705
1.652113
1.620237
1.556485
1.493108
1.434606
1.433106
1.444169
1.46592
1.511859
1.579173
1.622487
1.665051
1.662238
1.639363
1.611237
1.527047
1.48542
1.451107
1.431606
1.442482
1.464232
1.505671
1.533047
1.54861
1.590611
1.630175
1.6358
1.617612
1.487108
1.460482
1.38998
1.37423
1.380792
1.399918
1.434981
1.47267
1.511296
1.539235
1.552735
1.550485
1.571673
1.437794
1.395793
1.375355
1.341228
1.323228
1.337853
1.420731
1.455794
1.506234
1.522922
1.54336
1.528922
1.533984
1.466857
1.414731
1.38398
1.341041
1.326041
1.321915
1.410981
1.456919
1.489545
1.522547
1.512984
1.551047
1.468357
1.420356
1.382292
1.350229
1.330541
1.330541
1.387355
1.432356
1.470607
1.517671
1.544485
1.569048
1.526859
1.498921
1.471545
1.428044
1.398418
1.377229
1.40723
1.437044
1.48767
1.533047
1.56886
1.616674
1.636925
1.646488
1.588548
1.598299
1.566798
1.522734
1.499671
1.505108
1.536047
1.56661
1.624549
1.667863
1.693739
1.709677
1.694864
1.658863
1.623612
1.582361
1.548985
1.513546
1.528922
1.566985
1.595486
1.645175
1.689427
1.734615
1.73199
1.710802
1.670301
1.62155
1.596799
1.549735
1.522734
1.520109
1.529859
1.566798
1.605424
1.6388
1.728053
1.719427
1.702552
1.664676
1.622112
1.571298
1.495546
1.491796
1.498733
1.529859
1.572048
1.617424
1.690739
1.705552
1.713802
1.681551
1.640488
1.601299
1.530234
1.496858
1.475295
1.47942
1.510546
1.552547
1.592299
1.6358
1.670488
1.679301
1.676114
1.664676
1.631487
1.505858
1.483733
1.463857
1.47417
1.498546
1.54411
1.584423
1.62305
1.650425
1.670301
1.681176
1.65155
1.614237
1.501733
1.476045
1.463107
1.456544
1.505483
1.547297
1.622112
1.658301
1.681176
1.685676
1.679489
1.667863
1.543547
1.508484
1.481295
1.464982
1.469482
1.487483
1.588548
1.628487
1.661863
1.685114
1.688114
1.681176
1.596799
1.560423
1.529484
1.500983
1.482983
1.486358
1.554047
1.599236
1.643488
1.669738
1.691489
1.698239
1.647425
1.614612
1.574111
1.536609
1.515609
1.501546
1.528359
1.569985
1.581986
1.648738
1.674801
1.702927
1.690552
1.656426
1.618362
1.576548
1.544672
1.518609
1.497796
1.519734
1.55986
1.593611
1.642175
1.670488
1.706115
1.696177
1.657926
1.616112
1.579361
1.533797
1.491045
1.488608
1.516359
1.55386
1.592299
1.63205
1.697677
1.697864
1.687927
1.6508
1.616862
1.576361
1.506608
1.480545
1.492733
1.520109
1.554422
1.589298
1.646488
1.694489
1.696552
1.692052
1.681176
1.601861
1.520484
1.496296
1.478108
1.474732
1.492171
1.54411
1.624362
1.657363
1.697489
1.702927
1.695614
1.677801
1.611049
1.591736
1.521984
1.497608
1.48467
1.471732
1.500608
1.605049
1.666738
1.691489
1.695239
1.683801
1.65305
1.57036
1.532109
1.500608
1.479795
1.468357
1.494233
1.55461
1.598299
1.636737
1.669738
1.693739
1.695802
1.664301
1.614987
1.554047
1.537547
1.495546
1.46667
1.457857
1.561173
1.598299
1.636925
1.667863
1.691864
1.691864
1.608612
1.571298
1.524796
1.48542
1.463482
1.454482
1.519359
1.555735
1.595674
1.6298
1.661676
1.681739
1.644613
1.605799
1.557423
1.502296
1.468545
1.431231
1.424856
1.438919
1.496858
1.542985
1.585173
1.624175
1.643488
1.638613
1.62305
1.542985
1.502296
1.46217
1.437044
1.453544
1.446794
1.54186
1.581423
1.611799
1.647238
1.670488
1.671801
1.657176
1.635425
1.559298
1.510171
1.446419
1.451294
1.462357
1.500983
1.582361
1.616674
1.668051
1.673864
1.658676
1.637675
1.54711
1.515609
1.451107
1.438544
1.451107
1.466107
1.530422
1.571673
1.6463
1.667113
1.64105
1.590611
1.566235
1.519921
1.47942
1.453919
1.446982
1.447544
1.459357
1.530422
1.608237
1.634675
1.655301
1.662988
1.646675
1.634112
1.555547
1.520671
1.47342
1.451107
1.447544
1.449794
1.478295
1.512234
1.563423
1.57036
1.592299
1.611612
1.600736
1.458982
1.388667
1.326416
1.280477
1.267164
1.262101
1.260226
1.261351
1.265851
1.265476
1.260976
1.257038
1.256288
1.420918
1.498921
1.434231
1.428231
1.421481
1.645363
1.875245
2.084126
2.164754
2.215568
2.19363
2.155753
1.971623
1.904871
1.839619
1.789929
1.73799
1.707427
1.684926
1.686802
1.71024
1.71174
1.721115
1.700489
1.608237
1.514671
1.481858
1.431794
1.394855
1.368792
1.374604
1.404043
1.448857
1.488983
1.56661
1.590986
1.595674
1.579736
1.535859
1.507546
1.418856
1.395793
1.368604
1.377417
1.402918
1.453169
1.481108
1.524421
1.602611
1.593424
1.575986
1.546547
1.501733
1.46742
1.376667
1.370104
1.380792
1.40423
1.444357
1.488233
1.55011
1.579361
1.592674
1.580486
1.56961
1.542235
1.46442
1.375917
1.379667
1.39148
1.405918
1.443044
1.529109
1.557797
1.592299
1.604299
1.595299
1.595486
1.566048
1.527422
1.392417
1.392043
1.40498
1.412668
1.448107
1.487108
1.592861
1.602237
1.606549
1.594924
1.555547
1.519921
1.412668
1.379855
1.370854
1.391855
1.403293
1.447357
1.552547
1.579173
1.596611
1.592486
1.592111
1.542985
1.434606
1.404418
1.382105
1.371229
1.378917
1.39598
1.507733
1.540172
1.57036
1.573735
1.573735
1.564548
1.536234
1.445482
1.40123
1.377042
1.354729
1.340478
1.352854
1.463295
1.498733
1.520484
1.524984
1.519921
1.523672
1.435356
1.349479
1.323228
1.29679
1.291164
1.29754
1.302602
1.322665
1.391105
1.419981
1.445482
1.451857
1.454294
1.370854
1.30729
1.290414
1.278977
1.273726
1.274851
1.29904
1.371042
1.403855
1.434044
1.444169
1.455607
1.453732
1.418293
1.381542
1.353416
1.302227
1.279164
1.274289
1.30504
1.378167
1.421856
1.447919
1.470607
1.474358
1.446419
1.374604
1.336728
1.30879
1.295477
1.289664
1.290977
1.301102
1.327165
1.410793
1.457107
1.498733
1.521046
1.469107
1.438169
1.405168
1.376104
1.357729
1.353416
1.40798
1.463107
1.504733
1.546547
1.571673
1.608424
1.600736
1.548235
1.512421
1.477357
1.450357
1.421856
1.418668
1.422043
1.512421
1.552172
1.579173
1.614424
1.650613
1.636925
1.577111
1.526297
1.481108
1.47192
1.412481
1.415668
1.464607
1.505483
1.546922
1.588736
1.620237
1.646675
1.656801
1.627175
1.586861
1.548985
1.511296
1.437231
1.442669
1.481483
1.514484
1.553297
1.590986
1.6493
1.6403
1.623987
1.585736
1.534547
1.502858
1.439294
1.426356
1.433669
1.464045
1.507921
1.540172
1.592111
1.635612
1.631675
1.618737
1.602237
1.571673
1.452232
1.417918
1.399355
1.40048
1.410793
1.435919
1.488608
1.568485
1.606362
1.637862
1.64855
1.628112
1.612549
1.465545
1.432544
1.412856
1.410793
1.426544
1.491796
1.568298
1.599986
1.633175
1.638613
1.627175
1.618174
1.505108
1.464607
1.429544
1.410981
1.405543
1.418856
1.514859
1.561548
1.597361
1.631487
1.639925
1.635425
1.536047
1.501546
1.461795
1.419606
1.412293
1.409293
1.494233
1.536422
1.569235
1.600174
1.625112
1.636737
1.592111
1.555735
1.518609
1.485045
1.450357
1.431419
1.459732
1.495546
1.537359
1.583673
1.618174
1.647238
1.638613
1.584798
1.561173
1.522922
1.484483
1.46217
1.437981
1.455232
1.495733
1.531547
1.573173
1.611612
1.640112
1.645175
1.637487
1.601861
1.550672
1.516921
1.482233
1.426544
1.541109
1.582923
1.609737
1.637862
1.646488
1.651925
1.640488
1.606924
1.565298
1.498733
1.473982
1.440419
1.447357
1.461982
1.504171
1.542797
1.615549
1.659801
1.655488
1.640863
1.614049
1.573735
1.496296
1.440231
1.428794
1.441919
1.457294
1.496296
1.578048
1.641988
1.649675
1.647988
1.634487
1.606362
1.526109
1.457294
1.437231
1.434981
1.452419
1.467232
1.536422
1.616299
1.647238
1.657176
1.661113
1.6523
1.593049
1.502108
1.47267
1.445294
1.432356
1.441169
1.484108
1.532484
1.57186
1.608424
1.6388
1.653988
1.656988
1.64105
1.506046
1.470045
1.443419
1.437231
1.445669
1.457669
1.529859
1.569985
1.601674
1.631675
1.652488
1.656238
1.642925
1.508109
1.479608
1.451857
1.437231
1.449044
1.467982
1.575986
1.610674
1.633925
1.65005
1.654363
1.637862
1.537547
1.495733
1.460295
1.436856
1.425231
1.434231
1.492171
1.569423
1.604299
1.637862
1.654176
1.660926
1.619487
1.531359
1.494983
1.460482
1.444169
1.434794
1.439481
1.516734
1.557423
1.602424
1.626425
1.639175
1.611424
1.551047
1.516546
1.475108
1.439481
1.408918
1.403855
1.450544
1.500421
1.54336
1.580486
1.613674
1.638613
1.650425
1.612924
1.579548
1.542985
1.500796
1.476983
1.444919
1.47792
1.515234
1.55611
1.598111
1.626987
1.648925
1.634862
1.595861
1.557235
1.516546
1.481858
1.436294
1.436856
1.47267
1.514109
1.553672
1.591924
1.618549
1.64705
1.656801
1.631112
1.596986
1.559485
1.521796
1.443044
1.45992
1.483545
1.523296
1.563423
1.601111
1.627925
1.65305
1.664676
1.640488
1.604674
1.562485
1.523484
1.445294
1.448294
1.474545
1.515609
1.557047
1.600361
1.656238
1.665426
1.641988
1.608424
1.56511
1.526109
1.488233
1.455982
1.432919
1.411168
1.429356
1.475295
1.511296
1.616112
1.587799
1.545047
1.452982
1.365792
1.305415
1.255163
1.252163
1.251601
1.251976
1.253663
1.253476
1.393355
1.633175
1.737053
1.695989
1.622675
1.581986
1.758429
1.872807
1.997311
2.051312
2.063313
2.080376
2.128002
2.114877
2.084876
2.054688
2.012124
1.939559
1.708927
1.652488
1.603174
1.569423
1.558548
1.54561
1.57336
1.597736
1.618362
1.62755
1.615362
1.595111
1.48617
1.449232
1.419793
1.400105
1.39223
1.408543
1.421856
1.458607
1.490858
1.524796
1.585548
1.598111
1.591736
1.505483
1.468732
1.429544
1.406293
1.375729
1.386605
1.442482
1.48842
1.528922
1.56736
1.597549
1.604299
1.561923
1.520671
1.485045
1.446607
1.417168
1.386042
1.417918
1.455607
1.494796
1.539984
1.573735
1.604861
1.605236
1.572423
1.539047
1.496671
1.459169
1.433294
1.415106
1.428981
1.464795
1.504546
1.537547
1.572798
1.620799
1.612924
1.584048
1.55311
1.512984
1.47267
1.443982
1.400668
1.411918
1.426544
1.458232
1.500233
1.542797
1.62905
1.613487
1.591736
1.549735
1.508109
1.458607
1.39373
1.413793
1.430669
1.459545
1.499296
1.537172
1.569048
1.614237
1.618737
1.598486
1.57336
1.532672
1.494046
1.38848
1.387542
1.39598
1.428794
1.467795
1.504171
1.541672
1.582361
1.577111
1.567548
1.545047
1.502671
1.460857
1.340666
1.340666
1.349666
1.377417
1.413793
1.447544
1.518609
1.521046
1.501546
1.475483
1.438169
1.39598
1.291164
1.285914
1.288914
1.296602
1.310477
1.350416
1.447357
1.466107
1.47717
1.463107
1.437044
1.397105
1.301852
1.286852
1.281227
1.282539
1.287602
1.308415
1.38623
1.424481
1.472482
1.483358
1.478483
1.457294
1.378355
1.342728
1.29604
1.284789
1.287039
1.292289
1.31779
1.361104
1.39673
1.437981
1.497046
1.509421
1.501921
1.420168
1.327916
1.326416
1.332978
1.345729
1.376104
1.416981
1.506421
1.536609
1.563423
1.576548
1.565673
1.541484
1.495921
1.461795
1.432919
1.403855
1.405355
1.46367
1.514296
1.560235
1.598674
1.659801
1.666176
1.650238
1.623237
1.572986
1.539797
1.476795
1.46667
1.482608
1.511109
1.546172
1.578798
1.630175
1.661676
1.700864
1.693364
1.686989
1.64255
1.600549
1.561923
1.531734
1.488983
1.516359
1.55161
1.586298
1.660176
1.684926
1.692239
1.680426
1.654363
1.612549
1.57111
1.524234
1.472107
1.465545
1.479045
1.499483
1.540735
1.582173
1.62305
1.681739
1.660551
1.629237
1.584611
1.539797
1.480545
1.455607
1.469857
1.488795
1.526297
1.577111
1.64555
1.682676
1.672739
1.664301
1.627362
1.589486
1.541672
1.498171
1.451107
1.454107
1.471545
1.490296
1.529672
1.572423
1.673114
1.668238
1.659988
1.634487
1.593799
1.499671
1.446232
1.441919
1.463295
1.481858
1.522922
1.604299
1.658676
1.668426
1.664301
1.657926
1.628487
1.54411
1.48317
1.463295
1.453544
1.468357
1.48842
1.563048
1.631862
1.670488
1.686427
1.685864
1.673114
1.605799
1.518609
1.493858
1.474732
1.461795
1.477545
1.492733
1.609924
1.645925
1.675739
1.681926
1.671988
1.657738
1.552172
1.520671
1.493108
1.473045
1.46817
1.47417
1.570548
1.615174
1.652863
1.671239
1.681926
1.688302
1.64705
1.598111
1.530047
1.501733
1.476608
1.471545
1.491608
1.501358
1.535484
1.577111
1.648363
1.670864
1.685864
1.653238
1.573923
1.533797
1.505858
1.481858
1.47192
1.497046
1.572986
1.606362
1.643113
1.677239
1.699739
1.680989
1.625487
1.586111
1.54861
1.512984
1.488233
1.482608
1.490483
1.525172
1.598299
1.6313
1.672739
1.695989
1.694677
1.681926
1.655488
1.619487
1.546922
1.513734
1.479795
1.491608
1.524047
1.567548
1.636925
1.658113
1.672176
1.659051
1.628112
1.576736
1.496483
1.459732
1.417356
1.421293
1.453169
1.495733
1.575048
1.635425
1.672364
1.681739
1.682114
1.679864
1.604674
1.570548
1.513546
1.501546
1.510921
1.525172
1.593799
1.635612
1.696927
1.720552
1.722615
1.71249
1.637112
1.601299
1.532859
1.500608
1.47942
1.47567
1.469295
1.520671
1.577673
1.595861
1.603549
1.594924
1.576173
1.572986
1.467045
1.440231
1.410231
1.397105
1.405543
1.418668
1.533422
1.582173
1.612362
1.648175
1.672926
1.668238
1.597174
1.567173
1.534172
1.495921
1.489358
1.497233
1.567735
1.605611
1.63805
1.672551
1.704427
1.712302
1.698802
1.632987
1.588173
1.550672
1.507359
1.469107
1.45842
1.546172
1.585923
1.627175
1.668051
1.692052
1.694114
1.628862
1.592861
1.565485
1.527984
1.494796
1.479608
1.509796
1.545985
1.574298
1.612174
1.646863
1.672926
1.669738
1.644238
1.606362
1.567548
1.531172
1.500796
1.499483
1.522734
1.558173
1.594924
1.636175
1.657176
1.687176
1.672176
1.63055
1.589486
1.54861
1.507733
1.480545
1.467607
1.483545
1.502858
1.549172
1.599986
1.64855
1.730303
1.711365
1.673864
1.639175
1.604861
1.560798
1.495546
1.499858
1.516921
1.561548
1.599611
1.646675
1.708177
13236.0
1.513734
1.476608
1.483733
1.497421
1.536984
1.583298
1.661676
1.71174
1.686427
1.657551
1.610299
1.520109
1.448857
1.328291
1.299415
1.30204
1.289664
1.284789
1.290602
1.476795
1.727303
1.901495
1.960747
1.853869
1.761241
1.674051
1.750366
1.908808
2.051875
2.127815
2.103064
2.073813
2.089189
2.097626
2.110189
2.099501
2.040062
1.764241
1.701802
1.659613
1.613487
1.593611
1.600549
1.632987
1.634112
1.656238
1.650425
1.598111
1.578986
1.520671
1.48017
1.453357
1.434419
1.433481
1.437231
1.514109
1.599236
1.624549
1.660363
1.668613
1.659051
1.612737
1.586298
1.496296
1.471732
1.452982
1.445107
1.456544
1.500421
1.575048
1.617424
1.645175
1.654738
1.648925
1.626987
1.544297
1.500796
1.466482
1.449044
1.437419
1.459169
1.537359
1.578236
1.610299
1.6418
1.658113
1.643863
1.55311
1.539047
1.500233
1.46067
1.433294
1.428044
1.422231
1.479983
1.514859
1.553485
1.599799
1.637112
1.642738
1.62605
1.592111
1.56886
1.483545
1.422793
1.428606
1.432731
1.467982
1.518046
1.593611
1.64855
1.667488
1.642175
1.613862
1.573548
1.531172
1.490296
1.453732
1.437419
1.446607
1.451669
1.455419
1.509984
1.633362
1.640675
1.6478
1.633175
1.600549
1.560235
1.450169
1.435731
1.435731
1.447544
1.477545
1.521234
1.638988
1.659801
1.656613
1.64105
1.619112
1.578236
1.539235
1.448107
1.424293
1.39598
1.40798
1.404605
1.433669
1.572986
1.593799
1.590236
1.569798
1.540547
1.490483
1.426169
1.365979
1.340666
1.327165
1.342166
1.372167
1.442857
1.485608
1.495358
1.501546
1.498546
1.477733
1.400855
1.341791
1.31779
1.307102
1.301102
1.355854
1.365042
1.382105
1.47267
1.514296
1.532297
1.540735
1.531922
1.387167
1.350604
1.31704
1.30204
1.306352
1.31704
1.340478
1.421481
1.457107
1.502671
1.525359
1.527797
1.521421
1.471357
1.435731
1.394855
1.372542
1.376667
1.407605
1.40573
1.46742
1.580861
1.605799
1.623987
1.620237
1.563798
1.510921
1.476233
1.456919
1.443232
1.438544
1.507171
1.552172
1.587986
1.62305
1.664676
1.70724
1.705364
1.673864
1.6358
1.595674
1.560048
1.514109
1.536609
1.561735
1.601299
1.644613
1.687551
1.723928
1.761616
1.755429
1.720365
1.678364
1.634112
1.602611
1.548797
1.546547
1.572423
1.615174
1.6538
1.687364
1.744366
1.758616
1.753366
1.717927
1.669176
1.6283
1.591361
1.572423
1.554422
1.546547
1.568298
1.604111
1.63805
1.734428
1.753741
1.744928
1.695427
1.651175
1.596424
1.528734
1.511484
1.507359
1.509984
1.576736
1.6328
1.705177
1.72824
1.725053
1.734053
1.727678
1.648175
1.608424
1.57186
1.532859
1.524796
1.533984
1.522171
1.593986
1.701239
1.729178
1.733678
1.737428
1.714177
1.675176
1.560798
1.519546
1.512234
1.495171
1.493296
1.523296
1.640675
1.685489
1.72524
1.740616
1.730115
1.716052
1.616862
1.586673
1.553672
1.525921
1.519546
1.527422
1.612924
1.661863
1.703115
1.738741
1.747366
1.739866
1.674051
1.630737
1.597736
1.573923
1.541109
1.523859
1.595299
1.618737
1.672364
1.709865
1.73124
1.735553
1.71099
1.663738
1.625862
1.582173
1.558923
1.54186
1.524984
1.590611
1.616674
1.659426
1.697864
1.73799
1.768742
1.748491
1.743616
1.646863
1.608237
1.569423
1.54786
1.536984
1.543547
1.566798
1.590799
1.668238
1.708177
1.770429
1.754304
1.696739
1.660926
1.62155
1.580298
1.544297
1.55911
1.578423
1.606549
1.681926
1.724865
1.768554
1.780367
1.779804
1.764429
1.71699
1.632425
1.582173
1.557985
1.561923
1.579361
1.610674
1.643675
1.748116
1.770617
1.775117
1.757116
1.73799
1.703677
1.588173
1.559298
1.551797
1.556672
1.567548
1.599611
1.727678
1.754304
1.773429
1.785992
1.785992
1.742491
1.625112
1.605049
1.573735
1.551985
1.557047
1.570923
1.671051
1.712115
1.73724
1.757116
1.761991
1.739866
1.735553
1.681176
1.612549
1.591924
1.563048
1.55911
1.556298
1.687739
1.726178
1.761804
1.777742
1.779054
1.779429
1.689239
1.643113
1.607299
1.578236
1.566048
1.565485
1.6268
1.662426
1.70649
1.736678
1.770429
1.78618
1.71999
1.681926
1.63655
1.605986
1.584611
1.571298
1.575798
1.585548
1.603736
1.660738
1.700864
1.733303
1.754304
1.718865
1.701052
1.655488
1.614799
1.570173
1.530609
1.536609
1.559298
1.596424
1.646488
1.688676
1.751116
1.752991
1.73574
1.709115
1.677239
1.641988
1.567735
1.540735
1.557423
1.580486
1.619487
1.661113
1.732365
1.773617
1.761616
1.754866
1.728803
1.689801
1.650238
1.56661
1.55611
1.574673
1.586111
1.619299
1.660926
1.698802
1.755616
1.771179
1.763866
1.763679
1.729365
1.692802
1.570173
1.55536
1.563048
1.586486
1.624362
1.674989
1.773804
1.780367
1.787867
1.770617
1.734053
1.699364
1.579923
1.552735
1.545797
1.565298
1.581423
1.612174
1.745116
1.758804
1.780367
1.768742
1.78693
1.746053
1.695614
1.611612
1.582173
1.549547
1.524609
1.521984
1.534172
1.70349
1.71624
1.706677
1.686051
1.632425
1.540735
1.322103
1.283664
1.263414
1.256851
1.256101
1.257601
1.268101
1.301477
1.470607
1.710427
1.81168
1.772117
1.710615
1.682301
1.78768
1.803805
1.861557
2.011749
2.086376
2.162879
2.142815
2.152941
2.132503
2.122002
2.080939
1.883495
1.805868
1.745303
1.697302
1.671614
1.648925
1.658863
1.682489
1.704427
1.731803
1.739678
1.735928
1.639363
1.609549
1.577111
1.54561
1.527422
1.518796
1.519359
1.56586
1.608237
1.6403
1.671988
1.699177
1.716615
1.64555
1.605611
1.56511
1.537359
1.511109
1.503421
1.506796
1.550672
1.597736
1.627175
1.660926
1.692989
1.714927
1.686427
1.65005
1.582736
1.554985
1.518234
1.512234
1.533984
1.56811
1.652113
1.688302
1.714552
1.732365
1.744553
1.728615
1.690177
1.661676
1.62905
1.548985
1.524047
1.535859
1.56736
1.644988
1.677614
1.71474
1.742116
1.742678
1.730678
1.719615
1.685864
1.600174
1.568298
1.540359
1.537922
1.568673
1.609924
1.684739
1.722615
1.73649
1.723178
1.71174
1.674614
1.593799
1.562485
1.539047
1.517296
1.526484
1.565485
1.6373
1.670676
1.70874
1.737428
1.747741
1.735928
1.713052
1.685489
1.640488
1.545422
1.515234
1.525172
1.554235
1.596611
1.637862
1.680051
1.734803
1.705364
1.697302
1.664676
1.615362
1.57261
1.482233
1.48542
1.497983
1.513921
1.54261
1.582361
1.668801
1.675364
1.661113
1.64255
1.605424
1.558735
1.514484
1.433669
1.411731
1.39673
1.412668
1.434419
1.483733
1.610862
1.614237
1.610674
1.584423
1.536797
1.48692
1.40648
1.375355
1.344041
1.335041
1.390167
1.429919
1.459732
1.512609
1.55311
1.607487
1.607487
1.606174
1.561173
1.449044
1.424481
1.39748
1.409855
1.438544
1.469482
1.531547
1.563235
1.597361
1.6328
1.655113
1.640112
1.617612
1.493296
1.456357
1.458607
1.47717
1.494046
1.538859
1.583861
1.620987
1.659613
1.691302
1.703115
1.699364
1.670114
1.547672
1.53811
1.521609
1.537359
1.55986
1.588736
1.696739
1.719615
1.755241
1.761429
1.760491
1.732365
1.654551
1.622112
1.592674
1.578986
1.584236
1.589861
1.680239
1.721865
1.736866
1.79293
1.79293
1.79068
1.757491
1.710052
1.670301
1.632237
1.606174
1.579736
1.578048
1.679676
1.714365
1.745116
1.776992
1.792555
1.790492
1.701802
1.657176
1.620237
1.590049
1.570923
1.56661
1.630175
1.660738
1.695802
1.743991
1.765929
1.781867
1.744178
1.700864
1.670676
1.631487
1.593799
1.567548
1.587423
1.616487
1.665613
1.696364
1.733303
1.769304
1.771179
1.740616
1.701802
1.659426
1.617237
1.581236
1.56211
1.578423
1.613299
1.662988
1.692802
1.72374
1.776054
1.754866
1.725803
1.6448
1.613299
1.540359
1.535672
1.556672
1.571673
1.597736
1.639925
1.667113
1.762929
1.773992
1.776992
1.762929
1.690364
1.662051
1.596986
1.574111
1.560235
1.569048
1.582361
1.640863
1.73199
1.756179
1.774179
1.780179
1.747741
1.70874
1.630737
1.598674
1.56811
1.559298
1.565298
1.607862
1.650425
1.687739
1.730303
1.758054
1.778492
1.785242
1.767054
1.625112
1.591361
1.566423
1.55386
1.562298
1.580486
1.677426
1.728053
1.752428
1.776992
1.782054
1.761991
1.686614
1.641613
1.604299
1.585173
1.567548
1.56736
1.644613
1.681926
1.724678
1.756366
1.784492
1.788992
1.725428
1.683426
1.633362
1.602237
1.566798
1.562298
1.592299
1.6403
1.682864
1.72599
1.760116
1.780554
1.78693
1.762741
1.734241
1.683239
1.6448
1.609924
1.583673
1.604299
1.639363
1.680051
1.727303
1.753366
1.777929
1.775679
1.753928
1.723553
1.684551
1.650988
1.588548
1.570173
1.583298
1.609362
1.646113
1.690177
1.758804
1.792367
1.777179
1.767804
1.72974
1.686051
1.612549
1.570923
1.560798
1.580111
1.604674
1.6493
1.720927
1.749053
1.755991
1.79518
1.774742
1.764991
1.712865
1.682301
1.567548
1.549172
1.578048
1.596611
1.6343
1.673301
1.772867
1.789367
1.781679
1.768366
1.734615
1.702177
1.620424
1.576548
1.563423
1.585173
1.610112
1.644988
1.714927
1.771742
1.79218
1.770617
1.746053
1.712677
1.635987
1.550297
1.538859
1.538484
1.558923
1.571298
1.6448
1.685301
1.717927
1.746616
1.73274
1.725428
1.700677
1.659988
1.616112
1.56436
1.54261
1.543922
1.554798
1.655113
1.691677
1.732178
1.775679
1.772117
1.763116
1.681926
1.6388
1.595299
1.558735
1.54261
1.538484
1.551047
1.620612
1.659238
1.704615
1.73574
1.770804
1.784117
1.686802
1.655488
1.620612
1.589298
1.557047
1.548985
1.63205
1.668988
1.701427
1.738178
1.770992
1.787117
1.748678
1.713427
1.671051
1.625112
1.596236
1.56661
1.573548
1.620799
1.660926
1.693927
1.722428
1.758429
1.775304
1.781867
1.738553
1.693552
1.651925
1.627175
1.594736
1.590986
1.630925
1.665801
1.708927
1.748491
1.776054
1.779804
1.736866
1.681551
1.626237
1.580111
1.551235
1.525359
1.527797
1.545235
1.560235
1.552547
1.527422
1.502483
1.456732
1.392043
1.321915
1.280102
1.268101
1.254226
1.263601
1.398605
1.622112
1.716052
1.698239
1.856869
1.987186
2.057125
2.176941
2.254006
2.248569
2.087314
2.070063
2.049625
2.013249
2.015874
2.037812
2.047188
2.024312
1.989061
1.950997
1.912371
1.843556
1.632425
1.579923
1.550485
1.546547
1.551047
1.573923
1.679676
1.71099
1.732553
1.735553
1.72374
1.695614
1.55986
1.523672
1.498733
1.482233
1.488045
1.495358
1.564173
1.606174
1.644613
1.704427
1.717365
1.705364
1.651738
1.609924
1.569985
1.537359
1.495358
1.496483
1.544485
1.582736
1.621737
1.663551
1.722615
1.730303
1.702177
1.663176
1.6223
1.581048
1.519921
1.509046
1.512609
1.521609
1.55236
1.591174
1.634862
1.697864
1.72299
1.701614
1.650238
1.615362
1.580486
1.511109
1.48767
1.491796
1.501171
1.535484
1.585361
1.63055
1.674239
1.732178
1.711927
1.676489
1.64105
1.596799
1.566985
1.520859
1.528734
1.552172
1.587048
1.6313
1.671239
1.701614
1.732553
1.72374
1.70799
1.671988
1.626987
1.591549
1.553297
1.508484
1.529484
1.560798
1.599236
1.633737
1.666176
1.686802
1.679489
1.652113
1.602237
1.56286
1.526672
1.47342
1.47867
1.500421
1.538672
1.579173
1.617612
1.643488
1.672926
1.678739
1.649675
1.618924
1.582736
1.531734
1.425418
1.417543
1.446982
1.482795
1.549172
1.575048
1.598299
1.599799
1.582548
1.541109
1.502296
1.455794
1.386042
1.364104
1.365417
1.382105
1.417918
1.458232
1.522922
1.55161
1.552172
1.540359
1.503046
1.46067
1.378167
1.341041
1.31254
1.331291
1.366542
1.419606
1.496483
1.527984
1.560048
1.579736
1.570548
1.541109
1.461982
1.421293
1.390543
1.371042
1.361667
1.375542
1.479983
1.524421
1.566985
1.598674
1.613112
1.618737
1.536797
1.502483
1.463295
1.438544
1.419231
1.418481
1.498358
1.546547
1.588736
1.622112
1.6523
1.674989
1.6418
1.619299
1.578798
1.54336
1.525921
1.509609
1.506608
1.546547
1.585173
1.624549
1.670114
1.708365
1.746616
1.751116
1.689614
1.65155
1.611987
1.586673
1.56511
1.561923
1.615174
1.659238
1.693927
1.725615
1.760679
1.778117
1.765741
1.699927
1.654363
1.617237
1.583673
1.547672
1.551422
1.565673
1.606362
1.678364
1.716615
1.756929
1.762741
1.746241
1.71474
1.625675
1.586486
1.538484
1.530797
1.543172
1.561548
1.63055
1.668426
1.728053
1.747928
1.761991
1.750928
1.720552
1.681926
1.567548
1.54411
1.534359
1.541109
1.55761
1.586111
1.620799
1.703864
1.73274
1.751491
1.748678
1.733115
1.707052
1.56361
1.532672
1.523296
1.520296
1.540172
1.565485
1.678551
1.706865
1.73199
1.745491
1.721865
1.701239
1.670301
1.588923
1.558548
1.525359
1.512046
1.519359
1.536984
1.695052
1.73124
1.745678
1.751303
1.740053
1.720365
1.605611
1.569423
1.541672
1.530047
1.534172
1.542235
1.656801
1.694302
1.72374
1.743241
1.754304
1.739491
1.72449
1.641613
1.603924
1.572423
1.541109
1.522922
1.530047
1.638425
1.685864
1.712865
1.72974
1.747366
1.734803
1.639363
1.603736
1.575048
1.54861
1.537359
1.539797
1.552735
1.581048
1.655863
1.703302
1.72749
1.749803
1.758429
1.652675
1.619487
1.590799
1.555547
1.542235
1.541297
1.580298
1.660176
1.701052
1.73199
1.756929
1.761429
1.740616
1.665426
1.619112
1.581236
1.552735
1.533797
1.545985
1.566423
1.608424
1.680051
1.708177
1.727678
1.734053
1.738928
1.706865
1.612924
1.578798
1.55461
1.543547
1.562298
1.582923
1.658113
1.695239
1.732365
1.755804
1.764991
1.760679
1.745491
1.667676
1.625487
1.590049
1.541484
1.578986
1.616299
1.652488
1.698802
1.723178
1.761429
1.746241
1.710615
1.667676
1.625675
1.590424
1.539422
1.54186
1.561735
1.604486
1.640675
1.679114
1.734053
1.744741
1.732928
1.705364
1.665426
1.624737
1.564173
1.540922
1.529484
1.56661
1.607487
1.63355
1.679301
1.706677
1.730865
1.744178
1.720927
1.687551
1.638988
1.521796
1.504171
1.495921
1.516359
1.55161
1.593049
1.674239
1.712677
1.728428
1.716052
1.683426
1.643488
1.572423
1.543735
1.520296
1.503983
1.527797
1.57111
1.648738
1.686989
1.72674
1.747366
1.721865
1.702552
1.638988
1.608987
1.582173
1.557235
1.55161
1.564173
1.604861
1.643113
1.673676
1.712302
1.744553
1.756929
1.760116
1.6358
1.600924
1.570923
1.544485
1.539047
1.555923
1.641237
1.672926
1.711177
1.742678
1.758991
1.762179
1.683426
1.637862
1.598299
1.570923
1.53961
1.524421
1.535672
1.577486
1.616862
1.652113
1.692239
1.721678
1.740428
1.686614
1.650613
1.609737
1.582173
1.561735
1.549547
1.616112
1.652863
1.678926
1.701989
1.725615
1.747741
1.726553
1.684364
1.633737
1.585361
1.541297
1.479795
1.385667
1.397293
1.442107
1.479233
1.483358
1.472107
1.455982
1.46892
1.552172
1.764804
1.857244
1.815805
1.609362
1.692989
1.811493
2.001811
2.197567
2.335384
2.305945
2.233568
2.169441
2.118065
2.065751
2.028624
1.857994
1.818618
1.785992
1.776429
1.800992
1.80043
1.821431
1.800055
1.757116
1.71624
1.656801
1.598111
1.550297
1.464607
1.455982
1.463295
1.47942
1.512609
1.553485
1.678176
1.685489
1.670676
1.649863
1.614049
1.574486
1.46892
1.453544
1.453732
1.468545
1.497233
1.531547
1.566423
1.632612
1.662988
1.672926
1.663551
1.654551
1.620237
1.484108
1.469295
1.47117
1.48167
1.507733
1.546172
1.660551
1.686989
1.700864
1.691114
1.673301
1.638238
1.55461
1.488045
1.473982
1.471357
1.484483
1.508671
1.549735
1.588923
1.657363
1.680801
1.690177
1.679676
1.665426
1.511109
1.484858
1.468357
1.462357
1.472295
1.494421
1.610862
1.637862
1.660363
1.661301
1.648175
1.631487
1.536609
1.504358
1.475857
1.464795
1.456919
1.475295
1.577673
1.611237
1.648363
1.679864
1.691489
1.675364
1.578048
1.541672
1.502296
1.473795
1.446607
1.440044
1.506796
1.542235
1.579548
1.609362
1.631675
1.643113
1.585736
1.54261
1.501171
1.455607
1.424481
1.403293
1.416981
1.455044
1.491045
1.530609
1.55836
1.576923
1.578798
1.569985
1.523109
1.477545
1.433669
1.398793
1.370292
1.355479
1.384917
1.422606
1.461232
1.488045
1.515609
1.502108
1.465732
1.420543
1.379667
1.340666
1.315353
1.299602
1.30954
1.340666
1.381167
1.419418
1.449419
1.484858
1.474732
1.444544
1.411356
1.375167
1.334853
1.29904
1.30279
1.316478
1.355104
1.392043
1.430669
1.467982
1.498921
1.520484
1.510734
1.48392
1.442294
1.405918
1.327541
1.338041
1.356041
1.392792
1.439669
1.48392
1.56886
1.587236
1.589111
1.56286
1.530984
1.499296
1.464982
1.440044
1.424106
1.431981
1.454482
1.497983
1.544485
1.677239
1.692239
1.701427
1.668801
1.6358
1.598486
1.54261
1.525359
1.516546
1.543922
1.578048
1.626612
1.699177
1.73274
1.754491
1.766491
1.751678
1.725428
1.610487
1.579361
1.556672
1.543922
1.55461
1.574861
1.608612
1.686614
1.72299
1.753741
1.775117
1.778492
1.763491
1.609924
1.573923
1.54711
1.538484
1.545985
1.557423
1.585173
1.658863
1.693927
1.72224
1.739866
1.745678
1.732553
1.588548
1.55386
1.527422
1.511296
1.519734
1.534172
1.564735
1.6358
1.668613
1.700489
1.724303
1.73124
1.718865
1.576736
1.54486
1.519359
1.507171
1.509046
1.513921
1.543172
1.620424
1.655301
1.684926
1.709865
1.718115
1.700114
1.573173
1.532297
1.508296
1.495171
1.498921
1.504921
1.620424
1.661676
1.693364
1.713615
1.722803
1.71099
1.614799
1.577111
1.544672
1.519734
1.502108
1.500608
1.585736
1.633175
1.669738
1.695614
1.72224
1.733115
1.719615
1.709302
1.628112
1.587048
1.552735
1.523859
1.508484
1.592674
1.631487
1.674801
1.705739
1.732928
1.743241
1.674614
1.636925
1.598861
1.565298
1.535672
1.520296
1.564173
1.603549
1.641613
1.685489
1.720365
1.737803
1.726178
1.691677
1.654738
1.611424
1.578986
1.547485
1.533797
1.565298
1.601861
1.642363
1.679864
1.715302
1.749053
1.733303
1.697864
1.659238
1.620799
1.580486
1.530984
1.548235
1.572986
1.612174
1.652863
1.691489
1.761991
1.749616
1.732365
1.705927
1.658863
1.620237
1.529672
1.524047
1.539422
1.561923
1.605424
1.644238
1.745116
1.756741
1.757304
1.743428
1.710427
1.670676
1.557047
1.532672
1.531734
1.545797
1.566423
1.605049
1.71849
1.745116
1.750366
1.750366
1.741553
1.71624
1.591549
1.56061
1.543547
1.536609
1.55311
1.574673
1.611049
1.638988
1.714552
1.739491
1.754304
1.753928
1.741366
1.639925
1.598299
1.566423
1.523484
1.539235
1.55536
1.616299
1.653238
1.684551
1.72074
1.714365
1.679676
1.634862
1.596424
1.524796
1.501733
1.495921
1.509984
1.561548
1.606549
1.660176
1.687176
1.721303
1.737053
1.699177
1.662988
1.626237
1.591736
1.558548
1.532484
1.554985
1.588736
1.626612
1.675176
1.705739
1.72899
1.738178
1.705552
1.666551
1.628112
1.586298
1.548422
1.533609
1.548797
1.587986
1.631675
1.670114
1.70349
1.759929
1.754116
1.727865
1.687176
1.64255
1.599611
1.530422
1.535297
1.553485
1.594361
1.63655
1.674801
1.70724
1.755616
1.759741
1.746241
1.720927
1.687364
1.650238
1.537547
1.548422
1.558923
1.593049
1.631487
1.671239
1.758429
1.760116
1.748303
1.723178
1.683989
1.643863
1.540172
1.530234
1.529109
1.518046
1.537547
1.570173
1.676864
1.706302
1.705552
1.674801
1.62755
1.556672
1.303165
1.279727
1.267351
1.261163
1.259288
1.260226
1.273539
1.272414
1.354166
1.510734
1.715677
1.795742
1.664488
1.6448
1.742116
1.776429
1.868682
2.030499
2.152566
2.172629
2.208255
2.209567
2.170191
2.121065
2.026562
1.953247
1.881057
1.808118
1.735553
1.677426
1.668238
1.668988
1.679864
1.692427
1.707052
1.735365
1.688302
1.639925
1.589111
1.55386
1.513734
1.476608
1.490483
1.523296
1.56361
1.591924
1.631112
1.674239
1.676864
1.658488
1.624549
1.586861
1.544672
1.514859
1.467982
1.480733
1.497421
1.533609
1.578423
1.624925
1.686802
1.677614
1.668801
1.63205
1.590049
1.55236
1.474732
1.472857
1.482795
1.509421
1.55536
1.597736
1.630175
1.690927
1.701052
1.697114
1.681176
1.63355
1.600361
1.48392
1.476795
1.480358
1.506984
1.553297
1.587799
1.668801
1.699927
1.694302
1.684926
1.643488
1.601486
1.529109
1.499858
1.480733
1.488045
1.514109
1.55761
1.642925
1.671239
1.696552
1.694677
1.685489
1.64705
1.604111
1.57036
1.532859
1.502296
1.47267
1.485608
1.513359
1.637862
1.662238
1.695614
1.686427
1.673489
1.643488
1.562485
1.523672
1.490296
1.468545
1.45842
1.493858
1.571298
1.609549
1.638988
1.668613
1.678364
1.650238
1.581986
1.537359
1.495733
1.464982
1.439856
1.429731
1.48542
1.525547
1.563423
1.592299
1.615924
1.623425
1.617987
1.563048
1.524234
1.47642
1.431044
1.40198
1.37948
1.418106
1.460482
1.491608
1.529859
1.55461
1.56361
1.548235
1.517109
1.476233
1.445669
1.403668
1.370854
1.346479
1.398418
1.443044
1.472857
1.510359
1.542797
1.55911
1.523859
1.474732
1.439481
1.407418
1.37798
1.357541
1.383042
1.415856
1.456357
1.492546
1.538672
1.564923
1.587799
1.582923
1.553672
1.476983
1.442294
1.412481
1.375917
1.393355
1.413606
1.498921
1.532484
1.580111
1.6328
1.638238
1.606362
1.575423
1.538484
1.503421
1.479233
1.46367
1.459357
1.476795
1.539422
1.584986
1.623425
1.715302
1.717552
1.684551
1.64705
1.608049
1.575798
1.54636
1.524234
1.512234
1.526109
1.539984
1.6238
1.661863
1.732553
1.738928
1.710052
1.672176
1.631487
1.594549
1.533797
1.525359
1.537734
1.553485
1.591736
1.626612
1.723178
1.745491
1.746241
1.734428
1.715115
1.678176
1.560985
1.532859
1.519546
1.524047
1.536047
1.56811
1.685489
1.713615
1.729178
1.735553
1.725428
1.711177
1.622112
1.582923
1.54261
1.519546
1.517109
1.518234
1.527797
1.667488
1.697114
1.72149
1.730303
1.716427
1.659988
1.615362
1.578611
1.54861
1.522171
1.506421
1.510546
1.521984
1.670488
1.696552
1.716802
1.73199
1.72224
1.667676
1.625862
1.584986
1.55311
1.526109
1.512609
1.513359
1.57186
1.80193
1.825181
1.837181
1.829868
1.782242
1.758429
1.640863
1.566048
1.534172
1.500608
1.49292
1.481483
1.55536
1.625112
1.657738
1.682489
1.697302
1.686427
1.671801
1.638613
1.576923
1.528172
1.506984
1.499108
1.492546
1.496858
1.6448
1.677614
1.704052
1.714927
1.71099
1.699927
1.585548
1.55011
1.528359
1.505483
1.509046
1.527047
1.549547
1.629987
1.661676
1.696177
1.721303
1.73724
1.724303
1.591549
1.557047
1.524796
1.507921
1.503046
1.512609
1.591924
1.678551
1.700302
1.728803
1.740241
1.736115
1.692614
1.615362
1.567735
1.54786
1.522359
1.519921
1.533047
1.558548
1.629612
1.669926
1.702364
1.72674
1.738928
1.6478
1.614612
1.577673
1.54336
1.522359
1.515984
1.540922
1.554235
1.6313
1.677239
1.709115
1.733115
1.743803
1.698614
1.650613
1.575048
1.543922
1.517484
1.507921
1.547297
1.576361
1.6268
1.661863
1.696364
1.745116
1.740428
1.73199
1.702177
1.654926
1.619674
1.587611
1.537172
1.55386
1.596986
1.629987
1.669926
1.700302
1.734241
1.731428
1.718302
1.678364
1.640863
1.607862
1.56436
1.522922
1.513546
1.549547
1.593611
1.625112
1.661113
1.691677
1.683989
1.658113
1.622675
1.587986
1.551235
1.524234
1.507359
1.526484
1.571486
1.619299
1.6538
1.686802
1.725615
1.732928
1.722803
1.697114
1.658113
1.617799
1.577298
1.527234
1.53811
1.573735
1.614612
1.6478
1.694677
1.73049
1.719615
1.701052
1.660738
1.613674
1.572986
1.520484
1.513359
1.527422
1.535297
1.567735
1.616299
1.651738
1.745491
1.72974
1.713427
1.672926
1.631112
1.594174
1.521796
1.527234
1.539984
1.573923
1.611799
1.652488
1.737053
1.741553
1.724865
1.706865
1.670864
1.629425
1.531172
1.517109
1.521984
1.531734
1.565298
1.611612
1.72449
1.731428
1.727303
1.696177
1.665988
1.623237
1.587423
1.509421
1.491045
1.47942
1.482233
1.467232
1.468732
1.431794
1.427294
1.401043
1.335416
1.300165
1.271289
1.251413
1.252538
1.268289
1.426919
1.56811
1.594736
1.581048
1.702927
1.869057
1.987186
2.104564
2.254194
2.293008
2.059938
2.010624
1.950622
1.911246
1.913683
1.914433
1.939372
1.925121
1.919121
1.907308
1.870932
1.819931
1.613862
1.55536
1.509984
1.48917
1.48692
1.494233
1.583486
1.621362
1.652488
1.681926
1.690739
1.674051
1.618362
1.574486
1.536422
1.461607
1.446607
1.446794
1.48767
1.521421
1.562298
1.627362
1.651363
1.664488
1.653988
1.63805
1.602049
1.568485
1.488983
1.459169
1.446419
1.483358
1.56211
1.604111
1.628487
1.657551
1.668613
1.665238
1.651363
1.619487
1.574298
1.494983
1.466107
1.451294
1.48917
1.571298
1.608424
1.638238
1.664488
1.675364
1.651925
1.576361
1.544672
1.504733
1.477545
1.463857
1.467982
1.492358
1.529109
1.607862
1.641988
1.667676
1.677426
1.658488
1.624175
1.544485
1.509796
1.476795
1.456544
1.465357
1.488233
1.563235
1.604861
1.634487
1.678926
1.674239
1.665426
1.593424
1.555923
1.515421
1.462545
1.450732
1.470232
1.506984
1.54786
1.585361
1.618174
1.63955
1.654551
1.656051
1.605236
1.560048
1.519171
1.428794
1.425231
1.450732
1.484108
1.520484
1.558923
1.614612
1.6298
1.625862
1.568485
1.525921
1.485983
1.439669
1.412481
1.387542
1.38398
1.39148
1.419418
1.460482
1.55311
1.563048
1.543735
1.507359
1.47042
1.432169
1.393543
1.365979
1.341978
1.330353
1.338416
1.348541
1.420543
1.520296
1.529109
1.534922
1.515796
1.490483
1.412293
1.348729
1.326791
1.320228
1.330916
1.344604
1.418293
1.485608
1.518234
1.530047
1.526672
1.520296
1.46967
1.400855
1.374979
1.348729
1.349854
1.364667
1.416418
1.496483
1.529484
1.561923
1.576923
1.582173
1.554422
1.48992
1.430669
1.40948
1.415481
1.436481
1.47492
1.516921
1.552547
1.589674
1.628487
1.65305
1.671801
1.617799
1.584048
1.549172
1.524047
1.503796
1.497421
1.517484
1.549922
1.592111
1.663363
1.696552
1.71774
1.719052
1.696364
1.669363
1.593986
1.558735
1.543547
1.532109
1.532297
1.54786
1.617424
1.654551
1.686427
1.715302
1.718865
1.666738
1.631862
1.592674
1.566235
1.538484
1.527984
1.537734
1.596986
1.636737
1.674989
1.704427
1.72524
1.71249
1.665426
1.627737
1.590799
1.565298
1.520109
1.517671
1.54711
1.584236
1.617237
1.649863
1.703115
1.715302
1.696927
1.679301
1.648175
1.577861
1.527984
1.509233
1.503608
1.515046
1.543922
1.576548
1.674051
1.692614
1.701802
1.689052
1.674239
1.641613
1.543172
1.521046
1.506608
1.501546
1.507733
1.538484
1.647238
1.674051
1.691302
1.704802
1.694114
1.680801
1.578048
1.552735
1.524234
1.511109
1.501171
1.510171
1.599611
1.628675
1.656613
1.685114
1.70349
1.692802
1.619112
1.586673
1.560423
1.538297
1.527234
1.520859
1.583111
1.616299
1.657738
1.683239
1.70349
1.710427
1.658301
1.6283
1.591174
1.557047
1.54186
1.533797
1.522734
1.584798
1.650238
1.709677
1.747366
1.778679
1.767617
1.736866
1.681551
1.65005
1.623237
1.550485
1.584611
1.597924
1.617987
1.65155
1.668988
1.745678
1.766679
1.768742
1.757116
1.775867
1.781867
1.746616
1.691114
1.528922
1.512609
1.520484
1.560048
1.604486
1.646113
1.675364
1.671239
1.657926
1.628112
1.605424
1.540735
1.504921
1.493108
1.505671
1.526672
1.556298
1.629425
1.689801
1.701239
1.695239
1.685114
1.674426
1.609924
1.552735
1.526672
1.522922
1.537922
1.546922
1.618549
1.677989
1.701802
1.712302
1.716802
1.712302
1.654926
1.592486
1.572986
1.558548
1.554422
1.555172
1.591549
1.6493
1.680614
1.708365
1.71549
1.713052
1.670114
1.597549
1.56961
1.545047
1.525359
1.511484
1.525172
1.589861
1.613299
1.644238
1.659238
1.677614
1.674989
1.638425
1.582923
1.552172
1.531359
1.517671
1.507921
1.526672
1.602424
1.642363
1.674614
1.698427
1.705364
1.699177
1.642738
1.608237
1.578798
1.56586
1.546735
1.54486
1.575986
1.611799
1.647988
1.679301
1.696364
1.719615
1.709865
1.689052
1.623612
1.589486
1.563798
1.530234
1.542235
1.554422
1.581986
1.64255
1.668238
1.705552
1.715115
1.711177
1.695989
1.665801
1.604486
1.563235
1.541484
1.542235
1.558173
1.588923
1.619862
1.698989
1.71024
1.715115
1.700302
1.682301
1.657926
1.603174
1.587423
1.566235
1.550485
1.56436
1.573173
1.590611
1.700489
1.719427
1.729178
1.719052
1.652113
1.604299
1.55836
1.546922
1.531359
1.543922
1.551235
1.560985
1.600361
1.610487
1.576361
1.565298
1.532109
1.492733
1.465732
1.276164
1.267726
1.264914
1.263226
1.471732
1.742116
1.797242
1.773429
1.73649
1.765929
1.991123
2.153316
2.263381
2.173004
2.104939
2.038937
1.990561
1.998061
2.031437
2.025249
2.008561
1.989623
1.949309
1.909933
1.773242
1.709865
1.647988
1.599424
1.566048
1.542985
1.548985
1.569235
1.593986
1.627175
1.646113
1.648175
1.607674
1.582361
1.55386
1.525359
1.500796
1.493108
1.482608
1.509796
1.537922
1.561735
1.594924
1.625112
1.6418
1.615174
1.583673
1.551047
1.530234
1.494046
1.493108
1.513171
1.54261
1.569048
1.598674
1.64855
1.656238
1.64405
1.632612
1.605799
1.575986
1.545422
1.515234
1.503046
1.521046
1.543735
1.567923
1.597924
1.628675
1.652113
1.649863
1.626612
1.591549
1.556298
1.530422
1.516171
1.494983
1.509609
1.541297
1.571298
1.595486
1.625112
1.647238
1.640675
1.620987
1.593049
1.56361
1.530984
1.510171
1.490108
1.496483
1.513734
1.538859
1.560798
1.593799
1.652488
1.637112
1.607299
1.575611
1.547485
1.515609
1.47792
1.495921
1.504921
1.519546
1.54711
1.582923
1.63205
1.63805
1.623425
1.598299
1.565298
1.536422
1.467232
1.457669
1.462357
1.465545
1.490296
1.516921
1.567548
1.582173
1.595111
1.581798
1.558735
1.526672
1.451669
1.431044
1.414543
1.398793
1.402168
1.419606
1.470045
1.495171
1.520671
1.519171
1.506796
1.48467
1.412106
1.382292
1.356979
1.327916
1.338228
1.342541
1.365604
1.394293
1.417356
1.443982
1.48242
1.491421
1.483358
1.40498
1.353416
1.332416
1.327916
1.330166
1.339916
1.371229
1.40423
1.429356
1.46817
1.487295
1.490108
1.48542
1.412481
1.362792
1.351916
1.343479
1.350041
1.362417
1.390355
1.418668
1.462545
1.493296
1.532109
1.546735
1.540735
1.473607
1.454482
1.422418
1.424106
1.433106
1.445857
1.508484
1.535859
1.592111
1.613112
1.626612
1.6223
1.590236
1.572798
1.533422
1.516921
1.562485
1.599799
1.656801
1.690739
1.70949
1.71474
1.70349
1.699552
1.681926
1.650613
1.62605
1.580486
1.57261
1.606362
1.635425
1.659238
1.689427
1.733678
1.732928
1.715865
1.681364
1.648175
1.617799
1.595111
1.574673
1.584798
1.598674
1.62755
1.655676
1.679864
1.701989
1.71624
1.696364
1.673864
1.649113
1.618174
1.590049
1.554798
1.560048
1.583486
1.612737
1.638613
1.662988
1.698427
1.706115
1.684926
1.651363
1.6223
1.595861
1.542422
1.527422
1.524796
1.557797
1.583861
1.614799
1.668051
1.683989
1.693739
1.692989
1.680051
1.652675
1.558735
1.534922
1.528172
1.529109
1.532672
1.55011
1.639175
1.661113
1.678551
1.683801
1.672551
1.667488
1.611799
1.583298
1.557423
1.535109
1.528547
1.529297
1.538297
1.64105
1.664301
1.686427
1.695614
1.678926
1.652863
1.602799
1.575798
1.551797
1.539047
1.544297
1.564173
1.618737
1.647425
1.670114
1.691864
1.701427
1.688676
1.63205
1.607674
1.579361
1.558923
1.54636
1.546922
1.576173
1.600361
1.631487
1.663363
1.685489
1.706115
1.71474
1.656988
1.627737
1.594736
1.569235
1.559673
1.555547
1.588923
1.62155
1.659426
1.689614
1.70949
1.710802
1.704615
1.684176
1.658488
1.626425
1.606924
1.588923
1.56586
1.603924
1.634112
1.662988
1.688489
1.714177
1.726365
1.691114
1.668801
1.641988
1.616299
1.590236
1.569985
1.578048
1.606549
1.636737
1.667301
1.691302
1.720927
1.721115
1.699739
1.672176
1.648738
1.612549
1.583486
1.566423
1.578986
1.601674
1.625112
1.647238
1.673114
1.690364
1.680614
1.654363
1.625112
1.599986
1.572798
1.524234
1.534547
1.549547
1.576173
1.606362
1.640488
1.703864
1.702927
1.700489
1.678364
1.652675
1.6313
1.567923
1.560423
1.56136
1.567735
1.594361
1.622112
1.654176
1.708927
1.717927
1.72224
1.713615
1.695052
1.669926
1.574298
1.560423
1.567548
1.579923
1.604861
1.63955
1.667676
1.692614
1.721865
1.727115
1.72074
1.708552
1.677051
1.580673
1.570923
1.57336
1.590049
1.613112
1.635237
1.661488
1.689239
1.722053
1.72974
1.722615
1.714365
1.688302
1.589111
1.575798
1.588361
1.596611
1.618737
1.646488
1.700302
1.737615
1.745491
1.734053
1.717927
1.690927
1.636362
1.589486
1.582548
1.589111
1.601299
1.620424
1.64555
1.682114
1.704615
1.708177
1.710427
1.702552
1.672739
1.638613
1.546172
1.473607
1.424668
1.394668
1.369354
1.339541
1.330541
1.356416
1.342353
1.339728
1.383792
1.817118
1.723365
1.666176
1.617424
1.663738
1.887433
2.233381
2.258881
2.226818
2.201317
2.170566
2.14394
2.046813
2.000311
1.943122
1.888933
1.844869
1.808493
1.78618
1.786367
1.781117
1.770617
1.765554
1.741928
1.710615
1.641613
1.600174
1.564923
1.531547
1.520109
1.514671
1.576173
1.607862
1.634862
1.652488
1.668051
1.674239
1.625862
1.599424
1.572798
1.55086
1.522359
1.507733
1.53961
1.565298
1.595299
1.626237
1.650238
1.669551
1.661113
1.629237
1.599611
1.581611
1.550297
1.523859
1.515609
1.527047
1.580298
1.607674
1.632987
1.656426
1.679301
1.681926
1.654926
1.627175
1.605986
1.56661
1.530797
1.524421
1.54486
1.572986
1.603549
1.634487
1.671426
1.680989
1.668613
1.643113
1.613487
1.587986
1.541297
1.532672
1.524421
1.524234
1.541297
1.607112
1.660551
1.678739
1.688114
1.686427
1.668613
1.618362
1.570173
1.542797
1.532109
1.524984
1.533984
1.572423
1.631862
1.655488
1.671988
1.683426
1.682114
1.650988
1.594736
1.554985
1.532672
1.513359
1.504546
1.530047
1.581611
1.609362
1.633925
1.656613
1.670114
1.658863
1.606549
1.578798
1.54711
1.517859
1.504171
1.493858
1.503608
1.530047
1.55161
1.579736
1.602049
1.622862
1.608049
1.539235
1.512421
1.479983
1.431231
1.424481
1.431606
1.460295
1.487483
1.505858
1.529484
1.545422
1.551047
1.527797
1.495546
1.464982
1.438544
1.415668
1.394293
1.40423
1.422606
1.445669
1.476233
1.510171
1.542797
1.544297
1.539235
1.518421
1.485983
1.458045
1.424106
1.381542
1.394105
1.425606
1.455044
1.479983
1.535109
1.548235
1.551985
1.530422
1.497608
1.445107
1.423356
1.40348
1.40723
1.427294
1.46142
1.528734
1.566798
1.593049
1.620049
1.611987
1.595299
1.547672
1.520296
1.505483
1.479983
1.491233
1.503796
1.536984
1.575611
1.608799
1.689801
1.696739
1.690364
1.677051
1.655863
1.6253
1.556485
1.550297
1.55461
1.566798
1.591549
1.62905
1.664113
1.71999
1.735365
1.743053
1.73574
1.713615
1.685489
1.598111
1.561173
1.561923
1.573923
1.596799
1.628112
1.693364
1.71474
1.726553
1.73574
1.713802
1.682676
1.646488
1.621174
1.586673
1.567173
1.55911
1.55236
1.579923
1.674989
1.692239
1.709302
1.717927
1.700864
1.673489
1.599799
1.587236
1.556298
1.543172
1.543922
1.544485
1.622675
1.652863
1.675739
1.695614
1.696177
1.686989
1.624362
1.597174
1.57111
1.547485
1.536609
1.538484
1.585361
1.612362
1.646113
1.667113
1.686239
1.693177
1.6478
1.619862
1.593424
1.569985
1.545797
1.520671
1.526297
1.54861
1.586673
1.618362
1.646488
1.662426
1.678551
1.648925
1.622112
1.595674
1.56511
1.540547
1.534734
1.535109
1.557235
1.583486
1.612549
1.639363
1.657176
1.687176
1.661113
1.630737
1.606737
1.57261
1.549547
1.532109
1.559298
1.592674
1.62305
1.662988
1.687176
1.710052
1.711927
1.70349
1.680801
1.643675
1.611424
1.588361
1.568485
1.572986
1.599236
1.627362
1.660551
1.690364
1.712302
1.704052
1.679489
1.646113
1.614612
1.588923
1.564923
1.554985
1.567735
1.595674
1.626987
1.661113
1.687364
1.719052
1.70949
1.684739
1.654363
1.621924
1.593986
1.572986
1.55161
1.562673
1.575798
1.605236
1.636737
1.666176
1.719052
1.711365
1.683801
1.655676
1.620612
1.594924
1.547297
1.562485
1.577298
1.603924
1.633362
1.669176
1.730865
1.72899
1.721865
1.697114
1.666926
1.631487
1.596424
1.55986
1.557985
1.570735
1.583673
1.611424
1.639925
1.727303
1.726178
1.71924
1.699364
1.661301
1.631487
1.601674
1.543547
1.531172
1.542797
1.55536
1.579173
1.614424
1.692052
1.697489
1.688864
1.666363
1.62905
1.544485
1.528734
1.514109
1.522922
1.537172
1.570923
1.610862
1.692802
1.707427
1.708552
1.704239
1.687739
1.655863
1.571298
1.545422
1.54486
1.553672
1.56136
1.585548
1.671614
1.705739
1.71474
1.719052
1.708927
1.694114
1.664863
1.623237
1.596236
1.557235
1.54711
1.55611
1.558923
1.651925
1.704239
1.72449
1.72824
1.72149
1.705927
1.672364
1.639925
1.611799
1.587423
1.547485
1.55761
1.567923
1.664676
1.692614
1.714927
1.728053
1.734803
1.710615
1.648175
1.612174
1.586486
1.565485
1.554798
1.551047
1.6523
1.673489
1.700677
1.71099
1.72074
1.723365
1.686239
1.669363
1.640488
1.614237
1.587986
1.56286
1.552172
1.583486
1.616299
1.677051
1.712865
1.72374
1.707802
1.659238
1.611987
1.464045
1.404418
1.357166
1.297352
1.269226
1.256663
1.256101
1.265289
1.293227
1.466295
1.689801
1.661113
1.645925
1.697114
1.781304
1.816368
1.930559
2.097814
2.091439
2.106252
2.130815
2.118252
2.092752
2.032562
1.967123
1.911808
1.847494
1.775679
1.726365
1.645363
1.628862
1.635425
1.636362
1.654551
1.673489
1.668051
1.643863
1.615924
1.580111
1.554985
1.526109
1.501546
1.504921
1.532672
1.545047
1.584236
1.606362
1.657738
1.640675
1.629237
1.609362
1.584798
1.55236
1.492358
1.489545
1.500233
1.519171
1.544297
1.569985
1.654738
1.667488
1.665426
1.644988
1.619299
1.588923
1.537172
1.496296
1.491608
1.506608
1.530984
1.55461
1.615362
1.659801
1.672176
1.665613
1.654926
1.6373
1.603174
1.576173
1.525921
1.512796
1.504733
1.514109
1.535672
1.620237
1.6448
1.676489
1.673864
1.667676
1.6463
1.585173
1.554235
1.528922
1.506608
1.513734
1.529109
1.563985
1.590424
1.615737
1.641425
1.658488
1.673114
1.663363
1.580673
1.557235
1.530797
1.507921
1.503046
1.526859
1.582173
1.604299
1.6328
1.6538
1.663551
1.645738
1.597549
1.564735
1.541297
1.512234
1.487483
1.496483
1.503233
1.551047
1.582548
1.607112
1.6343
1.639363
1.62905
1.56961
1.524047
1.495358
1.472857
1.451482
1.440981
1.445857
1.470232
1.502108
1.555735
1.578986
1.578798
1.568298
1.545047
1.517859
1.478483
1.443607
1.380417
1.38323
1.39223
1.422043
1.453732
1.47792
1.532109
1.529672
1.521609
1.501921
1.476795
1.439669
1.392417
1.368229
1.374604
1.385105
1.406293
1.429731
1.479045
1.512984
1.525172
1.511484
1.503796
1.48167
1.420918
1.401793
1.376667
1.388667
1.400293
1.427106
1.453169
1.473795
1.503796
1.545235
1.554422
1.551047
1.527422
1.447732
1.434044
1.430481
1.437794
1.452794
1.47942
1.56511
1.586486
1.606362
1.617049
1.610862
1.599986
1.526297
1.511296
1.497233
1.494421
1.495733
1.511109
1.566423
1.602986
1.636362
1.655863
1.684926
1.681739
1.6523
1.622675
1.601861
1.587611
1.551047
1.559673
1.566423
1.581611
1.613862
1.643113
1.686802
1.701427
1.708177
1.660551
1.63655
1.609362
1.56361
1.552547
1.557047
1.585173
1.610487
1.6268
1.680801
1.703302
1.699927
1.686051
1.659426
1.630925
1.605236
1.578986
1.561173
1.55461
1.57186
1.601674
1.624925
1.651925
1.663551
1.687176
1.671426
1.649675
1.619299
1.590986
1.564923
1.533422
1.532109
1.554422
1.579548
1.606362
1.6328
1.672739
1.676864
1.665801
1.629987
1.597736
1.580861
1.559673
1.533797
1.528359
1.521796
1.553297
1.578611
1.602986
1.674426
1.680989
1.662238
1.638988
1.621924
1.599236
1.533984
1.518046
1.524234
1.54261
1.573548
1.596799
1.64405
1.664113
1.667488
1.657551
1.632987
1.608612
1.566235
1.535297
1.524421
1.524984
1.54336
1.578798
1.636175
1.679676
1.685301
1.680989
1.651925
1.619862
1.593049
1.568298
1.548797
1.539422
1.53811
1.548985
1.616112
1.635237
1.662988
1.689801
1.697489
1.694864
1.634675
1.608612
1.581048
1.55611
1.540172
1.532859
1.582173
1.608987
1.638238
1.667676
1.686989
1.694677
1.665988
1.638613
1.609362
1.578986
1.556672
1.538859
1.56586
1.590611
1.612362
1.642738
1.660363
1.687927
1.691489
1.669363
1.642738
1.612737
1.593611
1.572048
1.541109
1.555547
1.592299
1.624549
1.644238
1.665988
1.701989
1.701239
1.675364
1.648738
1.6223
1.596799
1.552735
1.540172
1.55911
1.590424
1.614612
1.640488
1.689801
1.703677
1.713427
1.705364
1.684176
1.625862
1.581048
1.563048
1.551797
1.558173
1.560798
1.585361
1.677801
1.704802
1.70949
1.70874
1.696552
1.684364
1.624362
1.594736
1.560798
1.531922
1.531734
1.531922
1.540359
1.645175
1.667301
1.678551
1.681739
1.673676
1.649113
1.555172
1.530797
1.519359
1.509233
1.519921
1.533984
1.625675
1.656238
1.679301
1.694677
1.693552
1.691677
1.613112
1.581048
1.560423
1.543735
1.533984
1.546172
1.609174
1.638425
1.670676
1.698239
1.702364
1.712865
1.660738
1.631487
1.602611
1.578611
1.556485
1.549172
1.577486
1.607487
1.6463
1.668238
1.686427
1.705927
1.692614
1.668426
1.6388
1.606174
1.581986
1.561173
1.555547
1.56511
1.593424
1.616674
1.6448
1.673489
1.691489
1.696927
1.675364
1.64105
1.609737
1.583673
1.56586
1.549735
1.552922
1.580298
1.614049
1.642925
1.672364
1.696177
1.714927
1.704802
1.674801
1.620424
1.590799
1.570548
1.536422
1.527797
1.54336
1.608799
1.625487
1.658113
1.672176
1.640488
1.596424
1.436106
1.368979
1.317415
1.267539
1.259288
1.256663
1.257788
1.261163
1.261351
1.377604
1.602986
1.740803
1.737615
1.661113
1.628112
1.803805
1.890433
2.042125
2.111127
2.122752
2.125565
2.157816
2.13944
2.107002
2.089376
2.056563
1.943684
1.87712
1.80193
1.745678
1.71774
1.690739
1.669926
1.658488
1.678364
1.694114
1.694489
1.655113
1.6253
1.587423
1.560235
1.532672
1.507921
1.496108
1.496296
1.504546
1.545797
1.6223
1.646113
1.652863
1.645925
1.6388
1.612549
1.522359
1.498171
1.485795
1.486545
1.498546
1.510359
1.570173
1.600924
1.623425
1.651738
1.652675
1.643113
1.589674
1.563048
1.531359
1.491233
1.485233
1.499671
1.542797
1.57336
1.609174
1.659238
1.667863
1.662988
1.657738
1.63655
1.603549
1.573548
1.517296
1.502858
1.500796
1.546172
1.575798
1.639363
1.664113
1.674989
1.670301
1.638238
1.603174
1.581798
1.526297
1.502296
1.497796
1.520859
1.546922
1.581236
1.6403
1.658113
1.663738
1.664676
1.662988
1.641237
1.610112
1.547297
1.523109
1.502108
1.513359
1.541109
1.567548
1.635425
1.65305
1.661488
1.653613
1.628862
1.597174
1.531734
1.509984
1.490858
1.48992
1.493108
1.518046
1.547485
1.577111
1.628487
1.643113
1.638238
1.626612
1.600174
1.570173
1.501358
1.477733
1.438169
1.444169
1.469482
1.529672
1.55386
1.572235
1.578236
1.564735
1.542235
1.464607
1.440231
1.407793
1.367292
1.371604
1.377417
1.40648
1.434044
1.48317
1.507546
1.518234
1.517859
1.507546
1.491045
1.433481
1.396918
1.350791
1.348729
1.355666
1.38473
1.443982
1.47942
1.51776
1.635612
1.601299
1.572048
1.548235
1.539422
1.577673
1.612924
1.651925
1.682489
1.703677
1.702552
1.672739
1.641613
1.613487
1.580673
1.542047
1.531359
1.559673
1.588548
1.619112
1.651925
1.681176
1.713802
1.698614
1.674426
1.63505
1.612737
1.586486
1.545985
1.55086
1.564735
1.596236
1.630362
1.665613
1.701614
1.706302
1.703677
1.681176
1.648738
1.621174
1.591361
1.554422
1.560798
1.573173
1.604299
1.638238
1.668051
1.728053
1.727865
1.723928
1.689989
1.655301
1.627925
1.566798
1.556485
1.567548
1.578048
1.602049
1.635237
1.71924
1.730865
1.733678
1.71624
1.698989
1.667863
1.579923
1.565673
1.55986
1.564923
1.574298
1.597736
1.630737
1.687739
1.712302
1.730865
1.738366
1.73124
1.705739
1.586486
1.575798
1.566423
1.565485
1.571486
1.598861
1.666176
1.713427
1.72974
1.731615
1.721303
1.704427
1.638988
1.583673
1.565673
1.554047
1.563423
1.571486
1.62755
1.653613
1.706865
1.719427
1.72674
1.728428
1.700677
1.669738
1.64255
1.577486
1.56136
1.554798
1.557235
1.62155
1.649675
1.704052
1.719802
1.727115
1.720178
1.679489
1.649113
1.613674
1.589298
1.572235
1.563235
1.596986
1.626237
1.658301
1.676301
1.698802
1.719615
1.699364
1.665238
1.625487
1.596049
1.558173
1.540359
1.539047
1.558923
1.588548
1.610862
1.6388
1.658113
1.672551
1.662613
1.631675
1.601486
1.578423
1.554985
1.54336
1.54711
1.564173
1.600736
1.635425
1.671614
1.696177
1.726365
1.721678
1.702364
1.674239
1.64705
1.615362
1.555923
1.569798
1.590986
1.620049
1.653988
1.683051
1.724865
1.71999
1.714177
1.684926
1.654738
1.6268
1.571673
1.55911
1.56661
1.590611
1.618549
1.654363
1.684926
1.706677
1.723365
1.72749
1.71024
1.687739
1.662801
1.578236
1.567735
1.557985
1.571486
1.595111
1.656988
1.721678
1.73274
1.742303
1.733678
1.72149
1.694677
1.661676
1.603549
1.579548
1.574298
1.573173
1.581986
1.599424
1.714177
1.73799
1.753179
1.744366
1.72974
1.707802
1.590986
1.566048
1.560798
1.555547
1.56961
1.593611
1.62605
1.643675
1.605799
1.585923
1.54711
1.512421
1.479795
1.439856
1.365604
1.279352
1.272976
1.269601
1.273539
1.818618
1.873932
1.819555
1.775867
1.827993
1.941059
2.189317
2.277445
2.164941
2.097814
2.039312
2.012874
2.014187
2.0485
2.042312
2.019437
1.988498
1.940684
1.862494
1.800055
1.685676
1.634675
1.593611
1.562485
1.54861
1.55761
1.581611
1.601486
1.637675
1.671988
1.671239
1.661301
1.638425
1.608049
1.583298
1.553485
1.501733
1.513359
1.543922
1.57111
1.605236
1.628487
1.670676
1.65005
1.630175
1.604111
1.575236
1.543172
1.503983
1.494046
1.505671
1.519921
1.544485
1.574861
1.607112
1.6388
1.665426
1.642925
1.614049
1.583673
1.552172
1.510921
1.516171
1.527234
1.549172
1.577673
1.607674
1.659988
1.679489
1.668801
1.650988
1.626612
1.559485
1.536984
1.501358
1.506046
1.523484
1.547672
1.57336
1.607299
1.674239
1.677051
1.668238
1.647988
1.616862
1.585361
1.509046
1.505858
1.509984
1.514296
1.540359
1.572798
1.649113
1.656426
1.652113
1.646863
1.6343
1.610487
1.514859
1.496108
1.483358
1.487295
1.501733
1.529484
1.583298
1.614424
1.64255
1.648925
1.637862
1.615362
1.553672
1.521234
1.465732
1.46442
1.464982
1.475108
1.517859
1.542422
1.568485
1.591361
1.613299
1.593049
1.538859
1.499483
1.470795
1.441356
1.415106
1.40498
1.435169
1.464607
1.487108
1.514109
1.535672
1.542235
1.529672
1.503796
1.470045
1.437981
1.405168
1.377604
1.336916
1.364854
1.39523
1.427856
1.462545
1.495921
1.500983
1.467045
1.441731
1.412856
1.383792
1.337478
1.328478
1.341791
1.358854
1.397855
1.423731
1.451669
1.477733
1.497608
1.491233
1.459732
1.430106
1.405918
1.363354
1.350604
1.361479
1.383042
1.413793
1.447357
1.482045
1.54486
1.542235
1.537547
1.519171
1.498733
1.439294
1.414918
1.420356
1.432356
1.45992
1.48992
1.561548
1.618737
1.637487
1.6343
1.623987
1.608049
1.581236
1.516171
1.508484
1.508296
1.521234
1.54486
1.574111
1.606362
1.646863
1.678176
1.717177
1.713427
1.708927
1.684551
1.601111
1.569985
1.568298
1.575798
1.596799
1.629425
1.691489
1.734803
1.739303
1.734991
1.73274
1.707802
1.637675
1.584236
1.575423
1.571486
1.576736
1.590424
1.6463
1.676676
1.702177
1.73574
1.730303
1.71999
1.654926
1.619862
1.588736
1.545235
1.540172
1.549922
1.591924
1.628487
1.657738
1.676301
1.698989
1.704427
1.675176
1.640863
1.608237
1.577111
1.553672
1.535297
1.541484
1.567735
1.600736
1.630175
1.652863
1.680051
1.687927
1.663738
1.63355
1.596424
1.563423
1.540547
1.524421
1.524796
1.541672
1.56661
1.594174
1.6238
1.65005
1.681176
1.658301
1.627925
1.596799
1.563798
1.539422
1.513921
1.516921
1.554798
1.585548
1.6238
1.653613
1.688864
1.691302
1.683239
1.6283
1.599049
1.57336
1.552547
1.531734
1.523296
1.529484
1.545235
1.57111
1.605049
1.700114
1.70649
1.692427
1.670488
1.645925
1.617612
1.54561
1.535484
1.54561
1.554235
1.581611
1.608799
1.63805
1.669738
1.712677
1.714927
1.707802
1.686051
1.659426
1.554985
1.545797
1.552922
1.560048
1.588173
1.620799
1.676301
1.698239
1.715302
1.713615
1.699364
1.664488
1.600924
1.577111
1.54486
1.553297
1.568298
1.593424
1.6223
1.656238
1.685114
1.720552
1.72599
1.71549
1.702552
1.588173
1.567173
1.556298
1.557235
1.559673
1.583111
1.650425
1.679676
1.704052
1.722428
1.727865
1.721678
1.644613
1.609737
1.583111
1.563423
1.55536
1.560798
1.587799
1.617237
1.643488
1.674239
1.700489
1.720178
1.727678
1.645925
1.614424
1.589674
1.566235
1.55686
1.563798
1.615924
1.643675
1.670676
1.701802
1.725803
1.718115
1.682676
1.643863
1.607487
1.591924
1.574298
1.56361
1.587048
1.615362
1.651925
1.686051
1.707802
1.729178
1.725615
1.713615
1.688114
1.659426
1.630362
1.595861
1.560798
1.583486
1.612924
1.644613
1.670488
1.699177
1.704615
1.692239
1.659613
1.624362
1.588173
1.56436
1.518234
1.511671
1.529672
1.559673
1.593236
1.658113
1.678739
1.695052
1.690927
1.664488
1.630737
1.604861
1.575236
1.544485
1.554422
1.566798
1.598861
1.627737
1.657363
1.72149
1.718678
1.712302
1.684739
1.654738
1.628487
1.574673
1.559485
1.551047
1.563048
1.578798
1.608049
1.636737
1.737428
1.72524
1.71474
1.695052
1.629237
1.597361
1.560798
1.558923
1.614612
1.644613
1.670488
1.696364
1.721865
1.735178
1.727303
1.70349
1.670488
1.643113
1.588361
1.57036
1.559485
1.571298
1.586861
1.612362
1.693364
1.71399
1.730865
1.728803
1.720552
1.701989
1.670488
1.608237
1.582361
1.564923
1.557235
1.572423
1.592111
1.677239
1.695802
1.705927
1.70799
1.697489
1.663738
1.581423
1.542985
1.507171
1.458795
1.411731
1.379667
1.39898
1.383792
1.368042
1.343104
1.335228
1.335791
1.330353
1.556672
1.699364
1.698239
1.626237
1.615737
1.712302
1.831931
2.156503
2.254194
2.250444
2.21313
2.123315
2.04325
1.994686
1.95306
1.908808
1.874682
1.830243
1.808868
1.821806
1.824243
1.819743
1.805492
1.748116
1.687739
1.639363
1.596049
1.554047
1.530234
1.488795
1.499296
1.529672
1.564735
1.594736
1.632425
1.665051
1.658863
1.640112
1.606924
1.577486
1.54636
1.486733
1.492733
1.505108
1.531172
1.564923
1.595861
1.656988
1.668051
1.671988
1.662613
1.646113
1.611049
1.576361
1.503233
1.509609
1.520484
1.536797
1.561923
1.6328
1.677801
1.683426
1.673864
1.649113
1.592486
1.557985
1.514296
1.509421
1.510546
1.517671
1.54261
1.600924
1.651925
1.669738
1.680801
1.670488
1.659051
1.631675
1.54786
1.521234
1.506796
1.503046
1.510171
1.534359
1.563985
1.630737
1.652863
1.668613
1.677051
1.673301
1.660363
1.541109
1.520671
1.508109
1.499671
1.507733
1.530609
1.627362
1.652675
1.671801
1.676114
1.669738
1.658113
1.558735
1.533047
1.507546
1.495921
1.497983
1.504171
1.587799
1.616299
1.6403
1.664301
1.668238
1.655488
1.581048
1.55011
1.523672
1.493296
1.47717
1.46967
1.495733
1.551235
1.580486
1.605611
1.6268
1.630925
1.615924
1.604111
1.575423
1.542235
1.476045
1.448294
1.430481
1.439481
1.46817
1.48767
1.518046
1.538484
1.560235
1.54186
1.510734
1.478858
1.451294
1.418481
1.374604
1.37648
1.392792
1.421293
1.451107
1.484483
1.507546
1.529859
1.534922
1.527422
1.502108
1.46742
1.441731
1.414168
1.381917
1.398418
1.427856
1.460107
1.485983
1.524047
1.55086
1.542797
1.517484
1.48842
1.451669
1.422606
1.381167
1.394668
1.414543
1.452419
1.481108
1.512421
1.568298
1.584798
1.587611
1.56736
1.540172
1.511296
1.48092
1.461795
1.447357
1.464982
1.48017
1.519921
1.555172
1.64555
1.663176
1.660926
1.643863
1.62305
1.594549
1.566985
1.548985
1.534922
1.539422
1.553672
1.587423
1.618924
1.701427
1.714927
1.724865
1.692427
1.668051
1.634487
1.578048
1.560985
1.551422
1.56961
1.593611
1.62305
1.689052
1.710615
1.72599
1.720927
1.695427
1.656426
1.627362
1.602424
1.577861
1.554047
1.545422
1.55311
1.580861
1.670864
1.701239
1.718115
1.71924
1.687927
1.6523
1.587236
1.56361
1.543735
1.531359
1.532484
1.546922
1.63655
1.662801
1.688302
1.691677
1.704802
1.693739
1.668988
1.607862
1.580673
1.557797
1.535672
1.521046
1.525172
1.618737
1.640675
1.670301
1.686614
1.698989
1.688114
1.608612
1.575611
1.542422
1.522547
1.513171
1.516921
1.580861
1.604299
1.631112
1.657176
1.675364
1.683051
1.637862
1.601111
1.57036
1.553297
1.530609
1.520671
1.55311
1.578423
1.609362
1.644613
1.660176
1.675739
1.683801
1.679489
1.671051
1.611987
1.580673
1.56061
1.548797
1.566048
1.597174
1.628112
1.652113
1.671239
1.684739
1.681926
1.666551
1.617237
1.593986
1.569798
1.54936
1.546922
1.550672
1.587611
1.615362
1.648738
1.668988
1.692802
1.701802
1.685114
1.659426
1.633175
1.602611
1.579736
1.553297
1.572048
1.603174
1.630175
1.6538
1.675364
1.697302
1.691114
1.635987
1.608049
1.587236
1.563235
1.551235
1.555547
1.579361
1.597174
1.624362
1.655676
1.691489
1.702552
1.696552
1.662426
1.63355
1.602986
1.560235
1.548422
1.545797
1.564735
1.592861
1.626612
1.678364
1.695989
1.708552
1.702739
1.665238
1.642363
1.582736
1.559673
1.54711
1.546922
1.568673
1.598486
1.639738
1.670864
1.687364
1.695239
1.685301
1.662238
1.604486
1.576736
1.557423
1.539422
1.537359
1.538484
1.613299
1.636925
1.664863
1.693364
1.701052
1.697489
1.6343
1.611237
1.573735
1.554047
1.543547
1.535297
1.572235
1.602424
1.628862
1.649488
1.662238
1.673301
1.644988
1.622487
1.599424
1.574298
1.54936
1.534547
1.546547
1.575986
1.610112
1.640863
1.666738
1.687176
1.686802
1.652488
1.629987
1.602986
1.572423
1.551797
1.523484
1.538859
1.568673
1.602611
1.629237
1.64855
1.661863
1.651925
1.62305
1.592111
1.56361
1.536422
1.497796
1.506421
1.519359
1.55011
1.583861
1.610487
1.655488
1.665988
1.668238
1.664863
1.6403
1.619487
1.582736
1.560048
1.543547
1.543735
1.542235
1.54936
1.584611
1.671239
1.689801
1.696739
1.690364
1.675176
1.65005
1.621362
1.568673
1.545047
1.54561
1.549735
1.553485
1.578611
1.683051
1.691677
1.696364
1.696552
1.679864
1.647988
1.565298
1.548422
1.547297
1.54636
1.556672
1.578048
1.662426
1.683614
1.698989
1.70499
1.696927
1.676864
1.645363
1.589298
1.564173
1.545235
1.535109
1.547485
1.562485
1.669738
1.687927
1.699927
1.701989
1.694864
1.684739
1.607299
1.590236
1.56511
1.540922
1.517859
1.520859
1.590986
1.636737
1.645925
1.656426
1.640863
1.602799
1.370104
1.316665
1.283477
1.264351
1.257788
1.254788
1.254413
1.254413
1.260976
1.306352
1.512234
1.684364
1.63655
1.607112
1.712865
1.765554
1.806805
1.958872
2.033687
2.062376
2.046813
2.075876
2.084689
2.067813
2.047563
1.931121
1.872995
1.805492
1.748116
1.710802
1.683801
1.616112
1.622675
1.630737
1.643863
1.662238
1.660551
1.638988
1.610862
1.586673
1.558735
1.533047
1.514859
1.508296
1.527797
1.550672
1.573173
1.591924
1.615362
1.642175
1.624925
1.606549
1.577111
1.556485
1.527984
1.487483
1.496108
1.516359
1.547297
1.578048
1.598486
1.649863
1.6478
1.6403
1.609174
1.583486
1.562298
1.496483
1.499296
1.514109
1.516359
1.54261
1.569985
1.623237
1.639925
1.649113
1.656238
1.62305
1.593986
1.570548
1.543922
1.521609
1.506234
1.500796
1.512234
1.56061
1.625675
1.646675
1.660551
1.656613
1.62905
1.596799
1.547485
1.531359
1.518984
1.514671
1.529672
1.554047
1.606737
1.630737
1.655301
1.663738
1.663363
1.656613
1.583673
1.549547
1.535109
1.519171
1.507921
1.519171
1.574861
1.604111
1.62605
1.646488
1.6538
1.653988
1.645175
1.597549
1.558923
1.532484
1.514296
1.498921
1.493108
1.550297
1.578423
1.600174
1.622862
1.6283
1.627925
1.566423
1.534922
1.507171
1.484295
1.46367
1.45617
1.463857
1.510171
1.528359
1.55011
1.566985
1.57261
1.569048
1.557423
1.534547
1.479608
1.445107
1.422981
1.39598
1.399543
1.420731
1.439481
1.457482
1.503983
1.516171
1.511484
1.500608
1.472107
1.444544
1.395418
1.375729
1.368604
1.37873
1.40048
1.432356
1.460857
1.484108
1.512046
1.522171
1.516734
1.502108
1.47792
1.446794
1.397855
1.378355
1.393917
1.414731
1.446607
1.47717
1.527422
1.537922
1.54186
1.54561
1.532484
1.507921
1.47942
1.45617
1.428606
1.437231
1.463482
1.498171
1.523859
1.572048
1.589298
1.599611
1.596424
1.582736
1.561923
1.543172
1.516171
1.494233
1.507546
1.532297
1.600361
1.653425
1.670114
1.679864
1.674239
1.663738
1.642175
1.615737
1.592486
1.543922
1.546547
1.558735
1.579736
1.607487
1.635425
1.695427
1.70499
1.700677
1.687927
1.662426
1.637862
1.561735
1.55911
1.555923
1.559673
1.57036
1.597736
1.6268
1.667676
1.686239
1.692802
1.686802
1.679489
1.656801
1.551047
1.542235
1.539422
1.539797
1.558173
1.590049
1.64405
1.667113
1.692239
1.686239
1.676489
1.650988
1.629612
1.601674
1.576361
1.535297
1.534922
1.542985
1.558548
1.6523
1.672176
1.681176
1.675176
1.668051
1.6403
1.561173
1.539422
1.531359
1.529109
1.539984
1.554798
1.57261
1.599986
1.62605
1.664863
1.673489
1.664863
1.658863
1.574861
1.548235
1.532297
1.517109
1.524234
1.539984
1.589861
1.617987
1.643113
1.663926
1.669551
1.659238
1.607862
1.585923
1.559298
1.539235
1.525547
1.516546
1.566048
1.593049
1.618924
1.639175
1.657363
1.667301
1.638425
1.617237
1.591736
1.567923
1.549735
1.531922
1.550485
1.573173
1.597361
1.6238
1.649113
1.673676
1.677051
1.670676
1.6478
1.616487
1.589861
1.567923
1.54861
1.544485
1.571298
1.603362
1.628487
1.648925
1.665613
1.680426
1.673864
1.658676
1.6328
1.607299
1.581423
1.563048
1.550485
1.57261
1.602611
1.630362
1.652863
1.673676
1.683801
1.674051
1.661113
1.635987
1.610674
1.580298
1.552922
1.54711
1.574298
1.608049
1.632612
1.651738
1.675926
1.676864
1.661676
1.635612
1.606549
1.580486
1.557235
1.544672
1.552172
1.57111
1.604486
1.629425
1.653988
1.677614
1.683614
1.678364
1.666176
1.639175
1.611612
1.584423
1.542235
1.557047
1.576361
1.598299
1.623425
1.6538
1.685489
1.684364
1.664863
1.63955
1.614987
1.589111
1.542422
1.548797
1.554422
1.570548
1.600174
1.62755
1.672739
1.684739
1.688864
1.669176
1.64405
1.617987
1.588361
1.560798
1.539797
1.533984
1.545422
1.569235
1.603362
1.681364
1.694864
1.690552
1.677989
1.645175
1.616299
1.563048
1.54936
1.529484
1.536609
1.558923
1.585173
1.63505
1.659988
1.683614
1.678926
1.667301
1.641237
1.612549
1.574298
1.548047
1.534547
1.530234
1.533609
1.552735
1.650425
1.674051
1.695052
1.688864
1.673489
1.63955
1.580111
1.56061
1.526109
1.520859
1.514671
1.528359
1.572798
1.600361
1.637862
1.6433
1.634112
1.629237
1.616299
1.586111
1.562673
1.534734
1.512796
1.504358
1.509796
1.594924
1.625675
1.65155
1.673676
1.689989
1.676301
1.617237
1.593236
1.567923
1.541297
1.529859
1.533234
1.590611
1.627175
1.64705
1.670114
1.687364
1.696552
1.693364
1.655863
1.628862
1.590799
1.557423
1.539235
1.530422
1.591174
1.618174
1.641988
1.676301
1.697677
1.704615
1.670114
1.634675
1.606174
1.582736
1.554047
1.529297
1.563048
1.588923
1.627737
1.656613
1.679489
1.711177
1.696552
1.675739
1.643113
1.609549
1.577298
1.550297
1.551422
1.56211
1.592111
1.622112
1.64705
1.698239
1.703302
1.687739
1.650238
1.606549
1.574111
1.518796
1.513359
1.518234
1.517671
1.530047
1.530797
1.503983
1.449419
1.434981
1.39973
1.330916
1.294352
1.269789
1.266039
1.253851
1.257413
1.319478
1.532297
1.664863
1.669176
1.818993
1.914246
2.023749
2.158378
2.174129
2.121252
1.990373
1.97031
1.959435
1.932621
1.933371
1.945372
1.916683
1.892308
1.861182
1.835118
1.787492
1.740241
1.577861
1.533234
1.510171
1.512234
1.515421
1.530797
1.607487
1.638425
1.6523
1.657176
1.647425
1.630362
1.597361
1.529859
1.505671
1.489545
1.47642
1.47942
1.495733
1.598674
1.621924
1.634112
1.6373
1.639738
1.6253
1.592486
1.508109
1.485983
1.473232
1.48167
1.493108
1.519921
1.581611
1.605986
1.633925
1.503421
1.501733
1.527797
1.55986
1.580861
1.612549
1.639175
1.660738
1.6358
1.628487
1.605611
1.573548
1.54486
1.511484
1.47942
1.503796
1.535672
1.566423
1.601486
1.623237
1.637862
1.630925
1.613299
1.581798
1.55161
1.495171
1.466295
1.45617
1.450732
1.456357
1.476608
1.503796
1.530984
1.605986
1.590611
1.575611
1.54261
1.508859
1.440419
1.414731
1.402168
1.395418
1.394105
1.409293
1.437981
1.463107
1.530984
1.524421
1.511671
1.48092
1.436481
1.375167
1.334853
1.334666
1.337666
1.353041
1.381167
1.435169
1.480358
1.485608
1.479983
1.476608
1.444357
1.414543
1.337853
1.332416
1.333728
1.333728
1.352291
1.388292
1.468732
1.494983
1.506984
1.494983
1.490108
1.46892
1.37873
1.364667
1.351729
1.348729
1.358479
1.375355
1.471357
1.506421
1.530234
1.538484
1.545047
1.544297
1.463295
1.443044
1.429919
1.414168
1.417543
1.424668
1.511671
1.546547
1.576173
1.600736
1.622487
1.62155
1.569048
1.538484
1.517296
1.501358
1.48692
1.48392
1.501171
1.54936
1.574861
1.611237
1.63955
1.674989
1.691489
1.663176
1.618924
1.591361
1.569423
1.545985
1.536422
1.560798
1.588361
1.619862
1.654926
1.692802
1.70649
1.700114
1.674614
1.645925
1.620424
1.566985
1.545047
1.554047
1.56061
1.587236
1.612549
1.664488
1.689427
1.70349
1.705552
1.693177
1.672739
1.641613
1.608237
1.54861
1.529297
1.539797
1.56661
1.600736
1.654176
1.673676
1.695052
1.694114
1.683989
1.662426
1.624925
1.601111
1.536984
1.523484
1.528172
1.555735
1.584986
1.612924
1.676676
1.687739
1.677426
1.663926
1.636175
1.601674
1.544672
1.509984
1.519359
1.532109
1.550485
1.580673
1.633925
1.671988
1.676489
1.666363
1.6538
1.625675
1.562485
1.519546
1.509046
1.514859
1.527234
1.55086
1.610862
1.659613
1.678176
1.686802
1.671988
1.657176
1.632987
1.554985
1.529297
1.518984
1.523296
1.533609
1.553297
1.636925
1.658488
1.677239
1.685489
1.676489
1.667301
1.577298
1.546922
1.521609
1.518421
1.522734
1.526484
1.613674
1.643675
1.668988
1.686427
1.685114
1.674239
1.622675
1.600174
1.578236
1.556298
1.543922
1.545985
1.595861
1.620799
1.644425
1.662238
1.682301
1.692052
1.646488
1.614987
1.596049
1.57186
1.552735
1.539422
1.56286
1.593236
1.616862
1.644238
1.668988
1.688864
1.691489
1.647425
1.623237
1.601111
1.574673
1.55236
1.542985
1.542985
1.560423
1.618174
1.644613
1.667863
1.686239
1.691864
1.687364
1.685489
1.621362
1.597924
1.575611
1.540922
1.563798
1.589486
1.617424
1.646488
1.665051
1.697864
1.676489
1.652863
1.630737
1.602611
1.578611
1.542985
1.548422
1.567548
1.594361
1.617049
1.64255
1.687364
1.682301
1.681551
1.657926
1.629612
1.602799
1.556298
1.537922
1.543735
1.559298
1.584986
1.618362
1.665426
1.683051
1.691864
1.678739
1.652488
1.625862
1.563985
1.54261
1.535109
1.537547
1.544485
1.572798
1.601486
1.629987
1.653238
1.678926
1.688864
1.678926
1.658488
1.571486
1.536422
1.525172
1.531734
1.545985
1.57336
1.627362
1.673489
1.683614
1.686989
1.674239
1.647988
1.590799
1.543735
1.523484
1.516171
1.520671
1.526859
1.581236
1.597549
1.612737
1.639925
1.629987
1.613862
1.579923
1.552922
1.497046
1.480545
1.475483
1.488983
1.535859
1.570735
1.602049
1.649675
1.657738
1.666363
1.64855
1.622675
1.592486
1.545047
1.525921
1.521234
1.534359
1.55686
1.589486
1.6493
1.667301
1.680989
1.682114
1.676114
1.652863
1.628487
1.603549
1.549735
1.533234
1.538859
1.563423
1.592674
1.619674
1.6448
1.679676
1.676864
1.658676
1.627362
1.601674
1.574298
1.534172
1.530609
1.538672
1.564548
1.593611
1.622487
1.65155
1.691489
1.684176
1.666363
1.638425
1.616112
1.581236
1.533797
1.532672
1.539797
1.561173
1.589861
1.619112
1.685676
1.697864
1.686239
1.674989
1.648175
1.628862
1.54711
1.530797
1.522922
1.525359
1.54561
1.580861
1.598111
1.663363
1.679114
1.677051
1.656426
1.621362
1.540172
1.327728
1.326603
1.293227
1.277101
1.279727
1.286664
1.407793
1.684551
1.87937
1.927559
1.842994
1.773992
1.749803
1.831743
1.984186
2.119002
2.165316
2.125565
2.079251
2.068188
2.076813
2.083376
2.078126
2.036875
1.893058
1.819368
1.71924
1.668801
1.6418
1.633925
1.621362
1.629612
1.6343
1.642363
1.642363
1.632237
1.611799
1.55761
1.531172
1.509796
1.479608
1.474732
1.485608
1.500983
1.524984
1.557797
1.588548
1.606924
1.624549
1.624362
1.567923
1.543172
1.516171
1.490483
1.478108
1.488795
1.533984
1.567735
1.590799
1.614799
1.641425
1.637862
1.608237
1.582736
1.552547
1.519359
1.489733
1.481108
1.501358
1.527609
1.560048
1.587611
1.637862
1.6523
1.64405
1.617612
1.588173
1.559298
1.502108
1.488608
1.488045
1.502671
1.532297
1.566423
1.621174
1.639738
1.640863
1.636737
1.614424
1.582173
1.55236
1.527797
1.507359
1.48392
1.491983
1.503233
1.531922
1.560985
1.596424
1.646113
1.640112
1.620237
1.586298
1.553672
1.525921
1.479795
1.48617
1.497421
1.522359
1.550297
1.578048
1.602049
1.631862
1.6268
1.617612
1.600924
1.57261
1.54411
1.465357
1.46667
1.475857
1.504733
1.528359
1.55836
1.588173
1.627925
1.625487
1.616674
1.589486
1.557423
1.525547
1.453169
1.437231
1.437231
1.474732
1.495921
1.516921
1.55386
1.566423
1.55536
1.528922
1.500796
1.469295
1.410981
1.392043
1.379667
1.381542
1.406293
1.431981
1.481483
1.501171
1.511296
1.516171
1.507921
1.483733
1.39073
1.370104
1.349854
1.345353
1.352854
1.352854
1.409855
1.438169
1.467607
1.490858
1.505483
1.512046
1.502108
1.390355
1.364479
1.345541
1.340103
1.354541
1.378542
1.443607
1.475857
1.501921
1.516359
1.517671
1.503983
1.454482
1.424856
1.404418
1.384167
1.380792
1.396543
1.450169
1.482233
1.519921
1.54786
1.581423
1.580298
1.55686
1.532672
1.513546
1.492733
1.46817
1.472295
1.48317
1.508671
1.542797
1.574111
1.606924
1.6358
1.660176
1.632987
1.607674
1.587048
1.564548
1.54336
1.531547
1.547672
1.570173
1.598486
1.6328
1.668988
1.695052
1.70649
1.676114
1.647613
1.621362
1.592111
1.576173
1.566235
1.561923
1.586861
1.616674
1.640488
1.672364
1.697302
1.718678
1.677801
1.64405
1.620424
1.590049
1.563985
1.547485
1.567923
1.596799
1.620987
1.651175
1.672926
1.688114
1.695614
1.655676
1.619487
1.590424
1.57036
1.545047
1.526859
1.527047
1.544485
1.57186
1.603549
1.63355
1.657738
1.668988
1.643113
1.607487
1.583861
1.55311
1.527609
1.511859
1.505858
1.534547
1.558735
1.582361
1.606737
1.63205
1.654551
1.6283
1.600361
1.574298
1.540172
1.520296
1.511296
1.523484
1.552922
1.580861
1.608424
1.6328
1.665426
1.662988
1.653425
1.62755
1.601486
1.551422
1.528734
1.503233
1.515421
1.529672
1.584798
1.616674
1.638988
1.673676
1.672364
1.663738
1.639925
1.612737
1.586861
1.518421
1.509984
1.519921
1.532297
1.563048
1.590049
1.670676
1.680801
1.681364
1.671614
1.654926
1.629425
1.547672
1.529672
1.521421
1.532297
1.542797
1.568485
1.653988
1.675926
1.686239
1.694864
1.686802
1.663551
1.576173
1.55911
1.54486
1.542985
1.54486
1.54861
1.632425
1.663738
1.686051
1.693177
1.701052
1.694489
1.650613
1.619112
1.592299
1.569423
1.547297
1.543172
1.548047
1.635987
1.664488
1.686614
1.703115
1.707052
1.698427
1.628862
1.599611
1.573735
1.553485
1.544672
1.540922
1.617424
1.640112
1.669738
1.688489
1.700489
1.701239
1.6538
1.624549
1.594736
1.566985
1.549547
1.53811
1.570173
1.604674
1.631862
1.669176
1.681551
1.708177
1.715115
1.699552
1.660551
1.631675
1.603549
1.572423
1.548797
1.587048
1.611612
1.643488
1.669363
1.684926
1.700302
1.686427
1.664863
1.6403
1.602986
1.575611
1.55536
1.556485
1.580673
1.609174
1.635425
1.664863
1.687176
1.70649
1.71624
1.698989
1.660363
1.631112
1.602049
1.576548
1.546547
1.55311
1.603174
1.629612
1.65305
1.674426
1.687551
1.689427
1.680989
1.675176
1.647988
1.581611
1.556485
1.530234
1.543735
1.564173
1.596049
1.660363
1.672364
1.693177
1.692052
1.682864
1.659988
1.599986
1.563985
1.538672
1.543922
1.548985
1.56886
1.607862
1.62905
1.649488
1.655488
1.649675
1.6388
1.609924
1.563798
1.540922
1.518984
1.508296
1.508671
1.520484
1.540547
1.56061
1.669738
1.674426
1.670864
1.668051
1.649675
1.6298
1.557047
1.539797
1.537172
1.532109
1.551235
1.585173
1.612737
1.665801
1.693739
1.705364
1.701614
1.695427
1.664863
1.552547
1.536797
1.531172
1.536609
1.549922
1.577673
1.674989
1.693364
1.702927
1.701052
1.686802
1.666176
1.585548
1.564735
1.54786
1.54186
1.552547
1.569048
1.653613
1.676114
1.70349
1.71174
1.701614
1.695989
1.682489
1.619487
1.596986
1.578611
1.560235
1.554235
1.558923
1.619674
1.674989
1.700114
1.706302
1.699552
1.697114
1.6478
1.581986
1.542422
1.505483
1.490108
1.507359
1.54936
1.606737
1.618549
1.609174
1.580673
1.518046
1.46892
1.39823
1.344979
1.290227
1.266789
1.254226
1.252913
1.251788
1.255163
1.30504
1.661863
1.661488
1.6373
1.641613
1.671614
1.752803
1.751491
1.801742
1.950435
2.007061
2.002749
1.992248
1.980623
1.987186
1.993373
1.999749
1.905808
1.836619
1.778679
1.731803
1.679864
1.633175
1.547485
1.560798
1.588923
1.618737
1.643863
1.650425
1.653425
1.639738
1.613299
1.582736
1.549735
1.530422
1.48917
1.495358
1.520484
1.54861
1.581048
1.612737
1.648925
1.640675
1.630925
1.603549
1.56361
1.532109
1.480733
1.492546
1.501733
1.525359
1.554798
1.583111
1.637112
1.660926
1.648925
1.6358
1.610299
1.578048
1.520109
1.48767
1.490108
1.500233
1.530234
1.55986
1.623237
1.63955
1.659238
1.661488
1.655676
1.616862
1.582736
1.557047
1.534359
1.511484
1.500421
1.500983
1.507359
1.624925
1.648363
1.670488
1.672551
1.674426
1.660176
1.564923
1.538859
1.512421
1.502671
1.500796
1.507546
1.588923
1.615174
1.640488
1.663176
1.674051
1.666926
1.595299
1.568298
1.539797
1.523109
1.509421
1.509046
1.557235
1.588548
1.621174
1.643863
1.653238
1.664113
1.622487
1.594924
1.57111
1.530609
1.509984
1.497233
1.517484
1.548235
1.575423
1.599424
1.62905
1.644238
1.629237
1.602611
1.57336
1.54336
1.511671
1.485795
1.46892
1.469482
1.481295
1.502483
1.526297
1.552735
1.578611
1.578423
1.550297
1.516921
1.486358
1.452232
1.424481
1.40798
1.416231
1.442669
1.47042
1.500421
1.525172
1.55011
1.540547
1.515984
1.484295
1.449419
1.420731
1.38023
1.367104
1.377417
1.397855
1.453732
1.486358
1.511296
1.528359
1.54636
1.543922
1.543922
1.490858
1.459357
1.385667
1.37873
1.39073
1.431981
1.46967
1.504546
1.531547
1.554985
1.561548
1.566048
1.561735
1.516359
1.489358
1.429356
1.418106
1.427669
1.446982
1.482045
1.548047
1.607299
1.621174
1.6223
1.623237
1.600174
1.572235
1.498921
1.486545
1.480358
1.493296
1.505671
1.575798
1.642175
1.672364
1.682864
1.684739
1.678176
1.668238
1.580298
1.553297
1.54261
1.532484
1.541297
1.55161
1.639925
1.670301
1.698052
1.71024
1.711552
1.702177
1.685676
1.624737
1.590236
1.56436
1.543547
1.529484
1.537922
1.632425
1.656238
1.684926
1.700302
1.705739
1.697489
1.656426
1.593799
1.57036
1.55161
1.541109
1.54336
1.570735
1.597924
1.656238
1.678364
1.687739
1.692989
1.675739
1.647613
1.618924
1.587236
1.557985
1.525172
1.543172
1.563235
1.591361
1.620987
1.649113
1.677426
1.677801
1.664488
1.641613
1.613674
1.581798
1.55386
1.536234
1.535109
1.55011
1.579173
1.601111
1.634487
1.670488
1.680426
1.677989
1.666363
1.639363
1.616299
1.584236
1.519171
1.531172
1.552922
1.580486
1.614424
1.6388
1.688114
1.676864
1.662613
1.636925
1.608987
1.587986
1.522359
1.523859
1.532672
1.544672
1.579361
1.604299
1.677051
1.683614
1.674801
1.659051
1.637862
1.609549
1.540547
1.522922
1.527797
1.536984
1.554798
1.581236
1.661301
1.677989
1.687176
1.686239
1.674426
1.651925
1.568673
1.547485
1.532297
1.531359
1.539422
1.557797
1.636362
1.655113
1.672364
1.683426
1.684926
1.680801
1.611424
1.569235
1.55011
1.534734
1.533984
1.546172
1.56061
1.605236
1.6373
1.662426
1.681551
1.687551
1.688114
1.604861
1.580111
1.55836
1.54336
1.536797
1.548422
1.558548
1.603549
1.64405
1.662238
1.676864
1.688489
1.687551
1.634112
1.608987
1.564923
1.548985
1.544672
1.54636
1.584048
1.617424
1.638425
1.684364
1.693177
1.693552
1.683051
1.671239
1.640675
1.614237
1.563985
1.544485
1.548422
1.591361
1.640675
1.669363
1.678364
1.689239
1.691114
1.667113
1.64255
1.587799
1.564923
1.546735
1.54261
1.560985
1.587611
1.633925
1.661301
1.683051
1.698427
1.701239
1.692239
1.669363
1.645363
1.593799
1.57261
1.545985
1.558923
1.603549
1.626425
1.658488
1.678926
1.690927
1.681551
1.665988
1.64405
1.594736
1.568485
1.55461
1.538484
1.55161
1.575423
1.629425
1.653613
1.670488
1.680614
1.684364
1.676114
1.661676
1.632425
1.576361
1.554235
1.537922
1.54486
1.569423
1.592299
1.651925
1.670301
1.689052
1.680801
1.665801
1.650425
1.582173
1.555172
1.541297
1.545047
1.548985
1.566985
1.589861
1.606549
1.647425
1.649488
1.637862
1.623987
1.593799
1.570735
1.515421
1.505108
1.521421
1.512984
1.532484
1.56211
1.642363
1.659238
1.667301
1.649863
1.650613
1.6283
1.581798
1.563235
1.540922
1.529672
1.535672
1.539235
1.560985
1.669926
1.686802
1.695614
1.686051
1.670676
1.64405
1.569423
1.553485
1.534359
1.535672
1.541297
1.564173
1.644425
1.662801
1.671426
1.690364
1.682864
1.674051
1.588361
1.571298
1.548422
1.539047
1.540547
1.543922
1.618549
1.647988
1.669551
1.687364
1.699739
1.692614
1.634112
1.612737
1.581048
1.557985
1.54711
1.542047
1.56136
1.581986
1.615737
1.642363
1.671801
1.680614
1.685676
1.63205
1.602986
1.56436
1.523109
1.49292
1.485795
1.543547
1.578048
1.592861
1.605986
1.601111
1.566798
1.449607
1.38248
1.336728
1.265664
1.256288
1.253476
1.252163
1.251226
1.252538
1.313102
1.527609
1.665801
1.622675
1.629987
1.6388
1.745491
1.854057
1.988873
2.032375
2.013061
1.991873
2.021687
2.007061
2.005561
1.996748
1.970685
1.937309
1.88537
1.815993
1.752241
1.625487
1.584986
1.56061
1.553297
1.56136
1.579736
1.618737
1.617424
1.608799
1.600549
1.586298
1.569423
1.521609
1.498546
1.46967
1.475857
1.482233
1.501546
1.553485
1.582361
1.607862
1.609549
1.607862
1.596049
1.537547
1.510359
1.495171
1.468357
1.47567
1.48617
1.537547
1.563048
1.584611
1.610487
1.622862
1.628675
1.572798
1.546922
1.515984
1.504546
1.483733
1.481295
1.512796
1.538297
1.560235
1.596049
1.608612
1.621174
1.604299
1.575423
1.550297
1.526297
1.508109
1.488045
1.497796
1.516546
1.541672
1.56661
1.589486
1.617612
1.621174
1.605799
1.576173
1.55236
1.530234
1.510734
1.48917
1.48617
1.495733
1.514859
1.540547
1.570548
1.598674
1.6223
1.609924
1.584236
1.56361
1.533609
1.507733
1.484483
1.49292
1.515046
1.542047
1.565485
1.588173
1.623987
1.6268
1.618924
1.605424
1.55011
1.519171
1.497983
1.48092
1.467232
1.46667
1.473045
1.494608
1.54711
1.598111
1.607674
1.592861
1.579173
1.554985
1.519359
1.435356
1.430669
1.423168
1.414168
1.434231
1.46217
1.504921
1.535297
1.542797
1.531922
1.517296
1.491421
1.46217
1.431231
1.373292
1.362792
1.362042
1.362979
1.384542
1.468545
1.48467
1.490296
1.48392
1.475857
1.451482
1.424481
1.394668
1.348354
1.334853
1.335791
1.344979
1.361292
1.442294
1.48017
1.490108
1.48767
1.480358
1.458232
1.404605
1.364104
1.353041
1.353604
1.362042
1.380605
1.437794
1.47117
1.488983
1.513171
1.521234
1.513546
1.492546
1.46217
1.439856
1.420731
1.407418
1.38848
1.399543
1.481483
1.512234
1.563985
1.578986
1.583486
1.575798
1.540547
1.515796
1.495546
1.48017
1.470795
1.477733
1.493108
1.521234
1.554235
1.589111
1.617987
1.638425
1.649113
1.597924
1.576736
1.555547
1.518046
1.513546
1.529484
1.56511
1.596611
1.625112
1.65155
1.683051
1.680426
1.651738
1.622862
1.596236
1.547297
1.533609
1.527422
1.541297
1.56961
1.598674
1.628112
1.649863
1.670488
1.680239
1.672551
1.656426
1.620612
1.595111
1.565485
1.546547
1.538859
1.554798
1.587048
1.614612
1.643113
1.673301
1.664113
1.649113
1.621174
1.591174
1.56211
1.515609
1.516734
1.521609
1.546172
1.574486
1.600174
1.65305
1.666551
1.657176
1.639363
1.611237
1.578423
1.549547
1.496483
1.509421
1.520859
1.539047
1.566985
1.593986
1.656051
1.657363
1.655301
1.640863
1.612924
1.585173
1.516359
1.508484
1.506421
1.513359
1.534734
1.56286
1.649488
1.663176
1.669176
1.659426
1.640675
1.612924
1.584423
1.528547
1.507921
1.502671
1.507359
1.514484
1.537922
1.6478
1.656426
1.657363
1.651738
1.63955
1.617987
1.525734
1.506608
1.503046
1.506046
1.512234
1.536234
1.592674
1.650238
1.670676
1.673864
1.663363
1.652675
1.596799
1.549547
1.529859
1.515609
1.512421
1.523296
1.569048
1.626987
1.644613
1.661863
1.665426
1.658488
1.635425
1.582736
1.553485
1.529672
1.514671
1.518609
1.554798
1.597361
1.624925
1.651925
1.671051
1.680239
1.664301
1.607487
1.585736
1.55761
1.533422
1.522922
1.520859
1.521609
1.572423
1.603924
1.6283
1.65305
1.676114
1.639738
1.609362
1.583861
1.557985
1.534359
1.528922
1.530984
1.54711
1.573173
1.601674
1.653425
1.666176
1.676489
1.669738
1.613862
1.589298
1.563235
1.538484
1.524047
1.530984
1.546547
1.604111
1.627925
1.656801
1.678926
1.685114
1.677239
1.613112
1.587611
1.559673
1.53811
1.522359
1.527609
1.566985
1.598111
1.629612
1.661488
1.691864
1.690552
1.654551
1.626987
1.599799
1.566048
1.534734
1.531172
1.531734
1.54411
1.600361
1.628487
1.657363
1.676489
1.688864
1.688114
1.676864
1.625487
1.601674
1.528359
1.521796
1.54711
1.573923
1.596236
1.629987
1.674051
1.684176
1.675551
1.654363
1.624549
1.596986
1.549735
1.531359
1.527047
1.527609
1.562673
1.593611
1.647425
1.664863
1.678739
1.677051
1.628862
1.603736
1.564173
1.540735
1.517484
1.510921
1.529859
1.56511
1.626425
1.649863
1.669363
1.676301
1.666551
1.643113
1.621174
1.592861
1.566798
1.545985
1.525734
1.529484
1.54261
1.625487
1.642738
1.652863
1.642175
1.62755
1.605049
1.548797
1.521984
1.48092
1.48092
1.493108
1.502858
1.531734
1.55911
1.589674
1.62755
1.645175
1.660738
1.657926
1.599049
1.576736
1.55236
1.532859
1.528172
1.536797
1.559673
1.588736
1.617049
1.644613
1.665238
1.683426
1.692614
1.606549
1.579173
1.563048
1.536609
1.523109
1.527797
1.580486
1.615737
1.643863
1.667301
1.689052
1.695239
1.63655
1.607112
1.580861
1.55236
1.536234
1.533797
1.55986
1.593611
1.629987
1.650425
1.670676
1.690739
1.687739
1.674614
1.650988
1.614987
1.590424
1.566423
1.545047
1.573923
1.599236
1.619487
1.648925
1.677989
1.693364
1.676864
1.657926
1.625675
1.597736
1.57036
1.537547
1.510171
1.540172
1.566423
1.603362
1.635237
1.6538
1.614424
1.550672
1.48242
1.423168
1.376292
1.344791
1.29979
1.264726
1.261913
1.269226
1.266226
1.269976
1.31704
1.760491
1.699552
1.643488
1.663551
1.769679
1.836056
1.986811
2.087876
2.056
2.044937
2.043625
2.049813
2.06125
2.025999
1.980998
1.918371
1.849369
1.783367
1.737428
1.687364
1.649488
1.590611
1.588736
1.584986
1.586673
1.611237
1.640675
1.638425
1.607487
1.583673
1.552172
1.527047
1.492358
1.485233
1.500983
1.524984
1.550672
1.579923
1.614612
1.625112
1.621174
1.596049
1.566985
1.540735
1.49292
1.47867
1.479045
1.496108
1.530047
1.559673
1.609924
1.62605
1.635987
1.634487
1.605424
1.580298
1.54861
1.519921
1.496671
1.473795
1.468732
1.478858
1.522547
1.613299
1.636175
1.649488
1.650425
1.617049
1.592299
1.528922
1.515796
1.493858
1.487108
1.495358
1.506234
1.593049
1.619487
1.641237
1.650988
1.655863
1.618362
1.562485
1.531359
1.518796
1.497796
1.474358
1.491983
1.558173
1.580298
1.608049
1.632237
1.64705
1.648738
1.617987
1.590611
1.556672
1.529859
1.508671
1.484108
1.478295
1.54711
1.571298
1.597924
1.616487
1.62905
1.619674
1.576361
1.548797
1.520859
1.495171
1.46292
1.467982
1.47417
1.495171
1.512609
1.540922
1.568298
1.589486
1.605799
1.543922
1.512796
1.479045
1.448107
1.429731
1.411543
1.431981
1.459169
1.485983
1.511484
1.534359
1.547672
1.524609
1.488795
1.454107
1.420918
1.386417
1.363354
1.356416
1.372354
1.403855
1.426731
1.449794
1.463482
1.47492
1.457294
1.432544
1.406668
1.386042
1.358104
1.331478
1.318165
1.333353
1.355291
1.375542
1.408168
1.435919
1.475108
1.470045
1.445107
1.409855
1.39073
1.345916
1.339728
1.344229
1.353791
1.38848
1.426544
1.48092
1.501358
1.510171
1.506234
1.504171
1.481858
1.449794
1.425793
1.38248
1.39748
1.412668
1.450357
1.47792
1.515234
1.579361
1.578236
1.576173
1.554047
1.534359
1.509233
1.467232
1.46517
1.478858
1.498171
1.527984
1.594361
1.647988
1.672739
1.665613
1.663176
1.648925
1.617424
1.56136
1.544485
1.531359
1.53961
1.558173
1.588736
1.651738
1.670488
1.712865
1.700864
1.695052
1.669551
1.614237
1.585548
1.566048
1.551235
1.550297
1.572423
1.617987
1.650425
1.676864
1.698052
1.70949
1.699927
1.6403
1.598111
1.579361
1.554235
1.540547
1.542047
1.577673
1.607674
1.63505
1.661488
1.686614
1.689801
1.656238
1.624175
1.600361
1.566048
1.540922
1.524047
1.527234
1.562673
1.593611
1.625675
1.657363
1.677989
1.681176
1.669551
1.626425
1.596611
1.568485
1.54336
1.520671
1.521796
1.555923
1.588548
1.626425
1.6463
1.669363
1.671614
1.641425
1.614049
1.588361
1.550297
1.53811
1.523672
1.503796
1.508484
1.546172
1.584423
1.611799
1.666551
1.666363
1.670488
1.620049
1.587236
1.55686
1.514296
1.503796
1.510359
1.522734
1.578611
1.613112
1.640488
1.662426
1.678739
1.684176
1.672739
1.626237
1.593049
1.514484
1.510734
1.530609
1.552547
1.592861
1.626612
1.680426
1.691489
1.697864
1.664676
1.633175
1.610112
1.545235
1.523484
1.531734
1.537547
1.564173
1.597549
1.654363
1.676489
1.689614
1.688864
1.675364
1.646863
1.579548
1.558735
1.534359
1.522359
1.538484
1.559485
1.622862
1.661113
1.687364
1.710427
1.699927
1.679676
1.620799
1.589298
1.564735
1.529109
1.534734
1.540359
1.596424
1.626612
1.656238
1.696739
1.701239
1.694864
1.660926
1.62755
1.598486
1.546735
1.531547
1.533234
1.562298
1.593236
1.625112
1.677989
1.702552
1.711927
1.692989
1.664488
1.631487
1.597549
1.562485
1.526109
1.535859
1.56061
1.590611
1.626612
1.658113
1.70799
1.708927
1.698802
1.689239
1.658488
1.62605
1.56736
1.540172
1.533797
1.554985
1.583861
1.619299
1.676114
1.699552
1.701802
1.694114
1.663926
1.633362
1.596424
1.566048
1.527422
1.536609
1.55911
1.587048
1.622675
1.654551
1.677426
1.70499
1.699552
1.685676
1.663738
1.629425
1.593049
1.522359
1.534359
1.551422
1.579548
1.611799
1.6448
1.709865
1.703864
1.688489
1.663551
1.629987
1.597549
1.567548
1.527422
1.520109
1.532672
1.545047
1.579361
1.609174
1.700114
1.697114
1.684176
1.652488
1.622862
1.591361
1.517484
1.509984
1.525172
1.540359
1.57336
1.606549
1.684739
1.691302
1.678551
1.662051
1.634862
1.592674
1.499483
1.48092
1.473982
1.489545
1.500233
1.530609
1.637112
1.664113
1.679114
1.678926
1.671614
1.643488
1.560423
1.537547
1.522547
1.517296
1.524047
1.53961
1.634675
1.670114
1.692989
1.702739
1.70799
1.704052
1.680989
1.618362
1.584423
1.55836
1.538297
1.527234
1.536234
1.63955
1.670488
1.698614
1.71024
1.715302
1.699739
1.654176
1.588173
1.562485
1.543735
1.531172
1.535672
1.571673
1.609549
1.644238
1.674989
1.713802
1.716802
1.688302
1.656051
1.625675
1.596424
1.550672
1.54186
1.560423
1.587799
1.614612
1.648175
1.702739
1.717365
1.724303
1.71024
1.689427
1.658488
1.625675
1.565485
1.551797
1.56136
1.578048
1.596236
1.658113
1.686989
1.698052
1.708177
1.705177
1.683989
1.636737
1.593049
1.468732
1.409668
1.337103
1.371979
1.353229
1.362042
1.366917
1.38398
1.415293
1.63355
1.824431
1.771367
1.692427
1.617237
1.702927
1.809618
1.995998
2.245569
2.223255
2.191754
2.127627
2.101564
2.071001
2.041
2.014187
1.957185
1.81693
1.764991
1.729553
1.718115
1.709115
1.714365
1.724303
1.71099
1.680426
1.647238
1.603924
1.561923
1.528922
1.505671
1.480733
1.482795
1.491608
1.514296
1.54336
1.577298
1.65305
1.643863
1.631112
1.605236
1.572423
1.536609
1.477733
1.476983
1.482233
1.504171
1.536797
1.575798
1.650238
1.657926
1.654176
1.644238
1.615737
1.581236
1.496483
1.486358
1.485608
1.491983
1.511296
1.539797
1.631487
1.658113
1.671614
1.665426
1.647613
1.62155
1.530234
1.500983
1.48617
1.479795
1.492546
1.507733
1.603174
1.626425
1.653613
1.661676
1.663363
1.656051
1.601111
1.573548
1.536609
1.495358
1.488608
1.500983
1.542047
1.572986
1.602237
1.656988
1.665426
1.659426
1.625862
1.591549
1.561173
1.505108
1.48917
1.48317
1.497233
1.511671
1.535672
1.561923
1.629612
1.649675
1.661301
1.628675
1.598111
1.528547
1.503421
1.484295
1.477357
1.495546
1.521234
1.580673
1.605986
1.631487
1.65005
1.634675
1.611049
1.581236
1.509421
1.482608
1.458045
1.458232
1.469857
1.494421
1.549172
1.576361
1.596049
1.600736
1.589674
1.564173
1.529859
1.455419
1.433669
1.398605
1.402543
1.408355
1.431419
1.485795
1.511671
1.539984
1.541672
1.533234
1.516171
1.447169
1.411731
1.361667
1.356041
1.364854
1.370292
1.422981
1.449982
1.503421
1.523296
1.524796
1.515421
1.467982
1.434981
1.383792
1.360354
1.348916
1.359604
1.370292
1.425231
1.48992
1.509421
1.531172
1.539422
1.531922
1.487295
1.459732
1.427856
1.403668
1.378542
1.376104
1.383792
1.421293
1.525921
1.550297
1.571486
1.575986
1.567923
1.538484
1.481108
1.459732
1.435544
1.446044
1.463295
1.494983
1.56811
1.600549
1.630925
1.663363
1.656988
1.646488
1.600549
1.565485
1.542797
1.515984
1.520859
1.532672
1.595861
1.630362
1.661488
1.689801
1.711365
1.718115
1.678176
1.643863
1.610299
1.588548
1.568673
1.553297
1.581611
1.611799
1.646113
1.678364
1.72749
1.734053
1.723365
1.715115
1.689614
1.657738
1.623237
1.576923
1.559485
1.578423
1.605611
1.639175
1.683426
1.706865
1.715115
1.692052
1.665238
1.6358
1.57336
1.548797
1.53811
1.535109
1.55611
1.587986
1.641613
1.670864
1.687176
1.700114
1.699177
1.679676
1.651925
1.621174
1.588736
1.531922
1.514484
1.529297
1.560235
1.592861
1.620987
1.649113
1.684926
1.676676
1.652675
1.609737
1.577486
1.54411
1.497421
1.505858
1.522922
1.55761
1.594174
1.626425
1.679114
1.671239
1.666551
1.6343
1.602986
1.572798
1.540735
1.504921
1.504733
1.509984
1.524796
1.553297
1.589298
1.683426
1.684551
1.676489
1.650238
1.624549
1.589486
1.519921
1.517484
1.524796
1.535109
1.567548
1.599986
1.684926
1.696552
1.697302
1.687739
1.665613
1.6343
1.545422
1.522734
1.519171
1.526109
1.534922
1.56811
1.663738
1.682489
1.702364
1.702739
1.692989
1.669551
1.6418
1.611799
1.578236
1.526484
1.515796
1.529109
1.540735
1.64105
1.686427
1.697864
1.702552
1.698052
1.675551
1.647425
1.615924
1.587048
1.56286
1.54561
1.54561
1.55236
1.645925
1.670301
1.702739
1.70799
1.698052
1.677239
1.649488
1.620799
1.584798
1.566423
1.542047
1.531734
1.547485
1.635987
1.666738
1.689801
1.705177
1.707052
1.697302
1.615362
1.594924
1.56736
1.547672
1.536984
1.538484
1.605611
1.639363
1.667676
1.694677
1.711927
1.717927
1.658488
1.62305
1.588548
1.55836
1.537172
1.533797
1.537172
1.572798
1.608987
1.636362
1.667676
1.691114
1.709677
1.662801
1.62605
1.598299
1.56811
1.542985
1.528734
1.570735
1.602986
1.637487
1.670301
1.690552
1.70874
1.705552
1.668801
1.635425
1.603924
1.576923
1.547672
1.534734
1.533234
1.56586
1.588923
1.620987
1.654176
1.680801
1.694114
1.663176
1.631675
1.598299
1.56511
1.533609
1.521796
1.528922
1.555547
1.584611
1.613674
1.642925
1.668238
1.689427
1.663551
1.629425
1.600736
1.57336
1.554985
1.537734
1.55536
1.583673
1.613674
1.643675
1.679489
1.698239
1.71174
1.688114
1.654363
1.613487
1.579548
1.542422
1.494983
1.516171
1.54936
1.585923
1.616487
1.640488
1.663363
1.679489
1.674989
1.647425
1.611987
1.578611
1.54786
1.524047
1.547485
1.588736
1.617424
1.647425
1.673864
1.711177
1.696552
1.672739
1.638988
1.608799
1.577298
1.531922
1.544485
1.557985
1.581423
1.619674
1.656613
1.71774
1.711365
1.701427
1.672176
1.639363
1.611612
1.582923
1.536047
1.529859
1.537922
1.551422
1.580861
1.614424
1.711552
1.71324
1.705739
1.680426
1.649863
1.620987
1.549547
1.534547
1.545047
1.563423
1.584236
1.613862
1.696364
1.714177
1.71999
1.71474
1.691114
1.663738
1.628487
1.569048
1.549547
1.540735
1.552922
1.562298
1.589674
1.662051
1.676301
1.677239
1.671426
1.657926
1.621924
1.446794
1.372542
1.321165
1.295477
1.286664
1.280664
1.272414
1.281977
1.271851
1.264539
1.261351
1.261351
1.533984
1.539984
1.479045
1.489733
1.484483
1.623425
1.981185
2.114877
2.155191
2.168879
2.135315
2.12894
1.961497
1.917058
1.866057
1.830806
1.794805
1.774367
1.752991
1.761429
1.770429
1.770242
1.749991
1.72899
1.674239
1.604674
1.559485
1.517109
1.496671
1.491608
1.494608
1.497421
1.571298
1.601674
1.62305
1.649113
1.662801
1.606174
1.572235
1.536422
1.514859
1.497233
1.491233
1.500421
1.554047
1.585736
1.620237
1.635425
1.654551
1.645175
1.610487
1.578798
1.551985
1.527422
1.504546
1.496858
1.526109
1.555547
1.583861
1.619674
1.6433
1.669363
1.653613
1.628487
1.593236
1.56736
1.542047
1.515046
1.498921
1.504358
1.524984
1.553297
1.588548
1.625112
1.674801
1.662801
1.622112
1.589486
1.562485
1.537734
1.499483
1.501358
1.523484
1.55536
1.590799
1.624175
1.668801
1.676676
1.666551
1.637862
1.608612
1.573548
1.523296
1.508484
1.503608
1.512984
1.558735
1.585736
1.645925
1.670488
1.682114
1.671988
1.635987
1.608612
1.551985
1.533047
1.516359
1.509421
1.525734
1.554235
1.606924
1.633737
1.657551
1.660551
1.647613
1.620049
1.551422
1.520109
1.508296
1.495358
1.487483
1.495358
1.554985
1.585173
1.606549
1.622112
1.620987
1.608799
1.55686
1.518421
1.482983
1.459357
1.428231
1.440419
1.444544
1.467045
1.488045
1.518796
1.536609
1.56586
1.561923
1.496671
1.466482
1.412856
1.387917
1.387542
1.397105
1.428044
1.45842
1.48767
1.509609
1.543922
1.544672
1.538859
1.518609
1.486358
1.459545
1.434419
1.39673
1.386417
1.424106
1.455607
1.491421
1.518796
1.54861
1.551047
1.547297
1.530422
1.507546
1.481295
1.454669
1.434044
1.408168
1.456544
1.493483
1.517484
1.574298
1.590799
1.596611
1.577111
1.54561
1.518421
1.47792
1.463295
1.456732
1.479608
1.503983
1.540735
1.576548
1.632237
1.655676
1.658863
1.643488
1.610299
1.589111
1.56436
1.545047
1.519359
1.530234
1.535484
1.56436
1.595674
1.622862
1.649675
1.692052
1.678739
1.655301
1.620424
1.595299
1.549735
1.547297
1.55311
1.572235
1.602799
1.6343
1.664863
1.707052
1.711365
1.701427
1.685489
1.659426
1.626237
1.596986
1.54561
1.551797
1.568673
1.599611
1.62755
1.652863
1.701989
1.693927
1.674051
1.654363
1.622862
1.596049
1.547672
1.539984
1.54336
1.562298
1.595299
1.621174
1.646488
1.670676
1.691489
1.686802
1.686614
1.641425
1.616487
1.526672
1.527047
1.529297
1.550672
1.577111
1.613112
1.675176
1.680426
1.671801
1.662426
1.641988
1.615737
1.532297
1.524234
1.520296
1.527609
1.54486
1.632987
1.652113
1.672739
1.680989
1.675176
1.662051
1.635612
1.574111
1.525359
1.512234
1.511484
1.524234
1.545235
1.600174
1.654176
1.672739
1.681551
1.677239
1.662051
1.610674
1.558923
1.537922
1.530047
1.526672
1.526484
1.567923
1.632425
1.656238
1.674801
1.683426
1.695239
1.649675
1.584236
1.55986
1.536609
1.526859
1.525359
1.543735
1.599986
1.633175
1.654363
1.673114
1.687927
1.682301
1.654363
1.603924
1.575048
1.549172
1.532859
1.539984
1.55011
1.609924
1.635612
1.663363
1.682489
1.694677
1.683239
1.6358
1.610487
1.580861
1.55836
1.532484
1.540172
1.552547
1.581611
1.638988
1.666926
1.697302
1.692427
1.679676
1.657926
1.630362
1.602799
1.53811
1.532672
1.539235
1.548235
1.573548
1.605424
1.6358
1.681176
1.695989
1.699177
1.692802
1.670488
1.639738
1.535672
1.527797
1.534922
1.545985
1.57186
1.605049
1.680989
1.692239
1.698614
1.685864
1.665238
1.637487
1.585361
1.542985
1.535672
1.54711
1.552922
1.579361
1.631487
1.687364
1.696927
1.694489
1.681926
1.672739
1.611424
1.575423
1.558548
1.532109
1.536234
1.549547
1.600736
1.62605
1.657363
1.698427
1.706677
1.694677
1.676864
1.646863
1.620799
1.599799
1.544485
1.536984
1.542235
1.598299
1.661488
1.679864
1.694489
1.696364
1.689427
1.6388
1.575423
1.557985
1.542985
1.526484
1.531922
1.56211
1.632425
1.649488
1.668801
1.690927
1.692427
1.688864
1.674614
1.643488
1.582361
1.559485
1.543922
1.522171
1.564173
1.592486
1.655301
1.670676
1.678551
1.675926
1.635425
1.602611
1.536609
1.509609
1.491233
1.48692
1.503421
1.527797
1.590424
1.622487
1.644988
1.666551
1.666176
1.658301
1.590799
1.56211
1.547297
1.53811
1.533422
1.54186
1.555923
1.579923
1.640112
1.666738
1.694489
1.691489
1.684926
1.658301
1.619112
1.588923
1.536984
1.536234
1.54861
1.56211
1.590799
1.624549
1.689614
1.698614
1.690739
1.682114
1.655113
1.624362
1.574111
1.54936
1.537172
1.544672
1.56286
1.602049
1.625862
1.6493
1.695427
1.701052
1.695614
1.686802
1.664488
1.573173
1.532109
1.529672
1.543172
1.553485
1.57336
1.646113
1.668613
1.684926
1.701989
1.694489
1.665238
1.609924
1.580111
1.559485
1.54936
1.536984
1.533609
1.579361
1.610674
1.63655
1.665426
1.671988
1.654738
1.507546
1.417543
1.350416
1.296977
1.283852
1.267914
1.256101
1.259663
1.260226
1.257226
1.264164
1.279164
1.674239
1.603924
1.558173
1.537922
1.581048
1.695802
2.038937
2.097439
2.118252
2.11619
2.11769
2.139628
2.122565
2.04925
2.013811
1.960935
1.906933
1.844119
1.787304
1.664488
1.665426
1.667301
1.668801
1.671051
1.674801
1.656801
1.626612
1.587423
1.560048
1.530422
1.511671
1.497608
1.505671
1.532109
1.563048
1.585548
1.605611
1.63655
1.6253
1.605424
1.573923
1.544297
1.517484
1.476983
1.472295
1.480545
1.501733
1.538672
1.56436
1.617799
1.636925
1.644425
1.63805
1.621362
1.560235
1.527234
1.504921
1.493671
1.484858
1.489733
1.514296
1.542047
1.628487
1.642175
1.64705
1.641425
1.627925
1.567735
1.517109
1.493858
1.487108
1.48842
1.525734
1.554985
1.581611
1.607674
1.630362
1.646488
1.649675
1.632425
1.627925
1.522171
1.494983
1.487858
1.490296
1.526859
1.55161
1.608799
1.631112
1.648175
1.656801
1.628675
1.600924
1.539047
1.516921
1.499108
1.492358
1.494608
1.521609
1.574861
1.603924
