1983.0
1.492733
1.493296
1.498546
1.498546
1.508859
1.509609
1.507171
1.518984
1.517296
1.506421
1.507921
1.505108
1.499671
1.499671
1.488233
1.486545
1.508671
1.512421
1.49292
1.493483
1.493858
1.500046
1.500046
1.504733
1.508671
1.506608
1.519171
1.510171
1.507171
1.508859
1.506984
1.501171
1.501171
1.487295
1.493108
1.501546
1.505296
1.496296
1.492358
1.49292
1.497983
1.506046
1.506046
1.509984
1.512609
1.528172
1.500421
1.508484
1.509233
1.506796
1.500983
1.499296
1.499296
1.495171
1.48992
1.487108
1.494233
1.493296
1.494233
1.499296
1.507359
1.513171
1.513171
1.507921
1.509046
1.521609
1.508859
1.509233
1.508296
1.503608
1.495921
1.488983
1.488983
1.48392
1.499296
1.496858
1.493671
1.493671
1.500421
1.505671
1.512421
1.512421
1.516921
1.529109
1.513734
1.507171
1.510921
1.508109
1.503983
1.497983
1.495921
1.495921
1.508296
1.490671
1.495546
1.497608
1.494421
1.500421
1.507733
1.510546
1.513171
1.513171
1.514671
1.516171
1.511296
1.510546
1.508859
1.503796
1.500983
1.498358
1.495358
1.495358
1.501733
1.503796
1.495358
1.497233
1.500983
1.506984
1.514859
1.515234
1.513546
1.513546
1.516359
1.511671
1.511484
1.510734
1.504921
1.501921
1.492733
1.494046
1.494046
1.516546
1.506421
1.496108
1.496671
1.500046
1.504546
1.515984
1.517484
1.517109
1.517109
1.530797
1.511296
1.511484
1.511484
1.507921
1.502671
1.502671
1.498733
1.497421
1.497421
1.496296
1.497983
1.497421
1.501546
1.507359
1.515796
1.518984
1.519734
1.523672
1.523672
1.511296
1.512234
1.513171
1.507171
1.504546
1.499483
1.488795
1.494608
1.505671
1.505671
1.499671
1.497983
1.502858
1.507546
1.515984
1.520109
1.520296
1.526297
1.513921
1.513921
1.515421
1.512796
1.509233
1.503421
1.494983
1.500983
1.521984
1.506234
1.506234
1.499671
1.498171
1.501171
1.508296
1.519359
1.518046
1.517671
1.513359
1.512984
1.512984
1.516546
1.514671
1.511859
1.504733
1.495921
1.500421
1.517109
1.503421
1.501358
1.501358
1.500233
1.504171
1.508671
1.521046
1.520296
1.521984
1.513921
1.514109
1.516921
1.516921
1.516171
1.511859
1.505108
1.501733
1.502858
1.504546
1.506984
1.501733
1.501358
1.501358
1.504921
1.510546
1.520484
1.520109
1.516546
1.525359
1.520484
1.518046
1.518046
1.517296
1.511671
1.508859
1.505108
1.503233
1.507359
1.505671
1.505296
1.500608
1.500608
1.505108
1.509609
1.519734
1.520484
1.528734
1.522922
1.518796
1.518421
1.518046
1.518046
1.513171
1.507359
1.498921
1.506234
1.517109
1.501733
1.504921
1.504358
1.505858
1.505858
1.511109
1.519921
1.523296
1.526109
1.528547
1.519734
1.519921
1.521984
1.516734
1.516734
1.507733
1.501358
1.506421
1.517109
1.522547
1.504921
1.504733
1.507921
1.512796
1.512796
1.522734
1.523484
1.522171
1.524421
1.525734
1.522734
1.522359
1.516734
1.516734
1.511296
1.509609
1.507921
1.513921
1.501546
1.506796
1.508109
1.507733
1.512984
1.512984
1.520296
1.524984
1.533234
1.531922
1.525921
1.522359
1.520859
1.517296
1.515609
1.515609
1.509609
1.508109
1.505296
1.521609
1.509984
1.505671
1.509046
1.513171
1.522359
1.522359
1.528547
1.528547
1.537172
1.518984
1.523109
1.525547
1.520859
1.515796
1.503983
1.503983
1.506608
1.518984
1.516921
1.509233
1.509046
1.508671
1.516546
1.523672
1.523672
1.526484
1.526109
1.536609
1.531922
1.523859
1.524234
1.521609
1.515984
1.513546
1.515421
1.515421
1.509984
1.511109
1.509421
1.511296
1.514109
1.523859
1.530422
1.532484
1.542235
1.542235
1.528547
1.525547
1.527797
1.522547
1.518609
1.505858
1.508296
1.524421
1.518421
1.518421
1.513921
1.509046
1.511296
1.516546
1.522359
1.528734
1.527609
1.531922
1.529297
1.529297
1.525172
1.525921
1.525547
1.519734
1.515609
1.515234
1.513171
1.517296
1.513734
1.513734
1.513734
1.513171
1.516171
1.524047
1.530797
1.532484
1.537359
1.53961
1.53961
1.527422
1.531172
1.524421
1.520859
1.512234
1.508109
1.525547
1.520109
1.518046
1.518046
1.512421
1.512421
1.518796
1.524609
1.531547
1.531172
1.536234
1.53961
1.528359
1.528359
1.531172
1.526297
1.521609
1.521609
1.517296
1.519734
1.513359
1.512984
1.514296
1.514296
1.514109
1.518984
1.523859
1.531922
1.535672
1.538672
1.538297
1.528922
1.531734
1.531734
1.528359
1.521984
1.517671
1.509233
1.515421
1.528922
1.520109
1.515609
1.514109
1.514109
1.517671
1.526859
1.534922
1.533609
1.538672
1.532859
1.530797
1.531922
1.531922
1.530234
1.524047
1.516546
1.518234
1.518609
1.534922
1.513921
1.515796
1.516734
1.516734
1.520859
1.527422
1.533047
1.533609
1.549922
1.535109
1.532484
1.531547
1.528547
1.528547
1.527234
1.521984
1.516359
1.511484
1.530984
1.525921
1.516921
1.516921
1.520671
1.520671
1.525172
1.534359
1.536047
1.541484
1.528547
1.532859
1.534359
1.533984
1.524796
1.524796
1.519171
1.516546
1.521984
1.528734
1.528172
1.517109
1.517671
1.521234
1.521234
1.528359
1.537359
1.535109
1.540922
1.54711
1.531359
1.534922
1.531734
1.528547
1.528547
1.524047
1.520671
1.522547
1.520109
1.521984
1.518421
1.519734
1.522171
1.526484
1.526484
1.535672
1.538484
1.540922
1.543547
1.531172
1.536234
1.535859
1.528922
1.521421
1.521421
1.516171
1.527609
1.530797
1.523484
1.518609
1.518984
1.522359
1.527797
1.536984
1.536984
1.535109
1.542235
1.551235
1.534359
1.536609
1.535109
1.529484
1.527047
1.522734
1.522734
1.524047
1.521609
1.524421
1.520859
1.519921
1.521421
1.527609
1.537172
1.537172
1.539984
1.54786
1.539235
1.533984
1.535672
1.535672
1.531172
1.525359
1.516359
1.516359
1.527047
1.527234
1.528547
1.521046
1.520671
1.523109
1.527609
1.535859
1.539422
1.539422
1.549735
1.548985
1.536797
1.536234
1.535297
1.533797
1.527609
1.525547
1.517109
1.517109
1.523296
1.532672
1.522547
1.520296
1.523109
1.529672
1.540359
1.539047
1.550297
1.550297
1.539235
1.535859
1.539047
1.539047
1.533609
1.528172
1.521796
1.526484
1.526484
1.530234
1.526484
1.521421
1.519734
1.523296
1.529672
1.537172
1.536234
1.55086
1.55086
1.548235
1.537172
1.538859
1.537172
1.533984
1.530422
1.527047
1.521796
1.525172
1.525172
1.535484
1.524421
1.523109
1.523859
1.529109
1.53961
1.54336
1.546172
1.542422
1.542422
1.535859
1.539797
1.538672
1.536609
1.529859
1.523484
1.525734
1.536609
1.529672
1.529672
1.522547
1.523109
1.525734
1.529484
1.535484
1.542047
1.548047
1.550672
1.550672
1.543735
1.539797
1.539422
1.536609
1.532672
1.525921
1.519921
1.522922
1.533422
1.533422
1.525172
1.525172
1.524421
1.530797
1.53811
1.542797
1.547297
1.536609
1.541484
1.541484
1.540735
1.540172
1.535484
1.531734
1.520296
1.524047
1.530609
1.533234
1.525359
1.525359
1.524609
1.524234
1.530797
1.540359
1.543547
1.539235
1.55236
1.552735
1.540922
1.540922
1.54186
1.537547
1.531734
1.528922
1.527984
1.528922
1.525172
1.525921
1.525734
1.525734
1.527047
1.529859
1.538484
1.540735
1.549547
1.549922
1.543735
1.542422
1.542422
1.541484
1.538859
1.533609
1.531922
1.522922
1.522359
1.53811
1.528734
1.527234
1.527234
1.525921
1.531359
1.537359
1.545797
1.54861
1.555923
1.537172
1.543172
1.543547
1.543547
1.538297
1.534172
1.526297
1.529672
1.532672
1.539797
1.526672
1.526672
1.525547
1.525547
1.532297
1.53961
1.543735
1.544485
1.563423
1.54786
1.542235
1.542797
1.540172
1.540172
1.536047
1.532484
1.522922
1.528172
1.542422
1.528922
1.527234
1.527984
1.527984
1.531922
1.542047
1.547297
1.548047
1.552172
1.541484
1.542422
1.544297
1.540547
1.540547
1.536609
1.526672
1.529484
1.535109
1.545235
1.528172
1.530047
1.528172
1.534172
1.534172
1.539797
1.545047
1.54711
1.559298
1.547297
1.540922
1.54186
1.542235
1.535484
1.535484
1.534734
1.529672
1.520109
1.528922
1.529484
1.529672
1.527984
1.529859
1.537359
1.537359
1.545047
1.54711
1.556298
1.54636
1.54336
1.545985
1.542235
1.536609
1.527047
1.527047
1.529109
1.533609
1.536047
1.536234
1.527609
1.527797
1.532297
1.539047
1.539047
1.545985
1.545235
1.557235
1.55461
1.54411
1.544672
1.544297
1.538484
1.534172
1.534172
1.531922
1.532109
1.531922
1.540735
1.531172
1.527609
1.533984
1.53811
1.549547
1.549547
1.548797
1.559673
1.54336
1.543172
1.545797
1.54486
1.539984
1.531172
1.527609
1.527609
1.537547
1.540922
1.539797
1.529109
1.528547
1.532859
1.53811
1.548422
1.547485
1.547485
1.54711
1.552922
1.544485
1.546547
1.54336
1.539797
1.537172
1.534172
1.534172
1.524609
1.529484
1.537922
1.530234
1.530609
1.533609
1.539422
1.547672
1.54936
1.54936
1.55536
1.569048
1.54486
1.548235
1.54711
1.541297
1.538297
1.526672
1.525172
1.525172
1.53811
1.538859
1.532484
1.530797
1.533047
1.540359
1.551047
1.551985
1.555735
1.555735
1.566048
1.546922
1.547485
1.54711
1.542797
1.535484
1.532672
1.539984
1.536422
1.536422
1.533984
1.533047
1.530984
1.533609
1.538672
1.54786
1.550485
1.56136
1.54861
1.54861
1.546172
1.548235
1.546547
1.541484
1.538672
1.528547
1.528547
1.546547
1.546547
1.537547
1.533234
1.531172
1.535859
1.540359
1.551422
1.54936
1.549547
1.558548
1.558548
1.549172
1.549172
1.54861
1.543547
1.53811
1.534172
1.535859
1.533609
1.531547
1.531547
1.534547
1.532672
1.536234
1.540547
1.548422
1.55011
1.559298
1.55611
1.549922
1.549922
1.549172
1.547297
1.545797
1.540735
1.535859
1.533234
1.528359
1.543172
1.536422
1.536422
1.535672
1.535297
1.542797
1.546922
1.556298
1.553297
1.557985
1.548985
1.548985
1.549547
1.551985
1.54561
1.541484
1.527984
1.534547
1.548235
1.541672
1.536984
1.536984
1.533047
1.536984
1.543172
1.54936
1.550672
1.551422
1.569798
1.557047
1.550672
1.550672
1.549922
1.546922
1.54336
1.539235
1.536984
1.543922
1.541672
1.537922
1.535672
1.535672
1.535297
1.541297
1.548797
1.553672
1.55536
1.563048
1.556485
1.551235
1.552735
1.552735
1.548235
1.54486
1.532484
1.533797
1.548235
1.542235
1.540735
1.534359
1.535672
1.535672
1.540359
1.55161
1.55536
1.557797
1.561548
1.547672
1.553297
1.55161
1.55161
1.550297
1.546172
1.536047
1.533422
1.539235
1.551985
1.539235
1.537172
1.536609
1.536609
1.54411
1.551422
1.55611
1.563048
1.556672
1.55311
1.55311
1.55461
1.55011
1.55011
1.54561
1.534172
1.538297
1.544297
1.53961
1.536609
1.53961
1.545235
1.551985
1.551985
1.554047
1.555547
1.567548
1.56361
1.553485
1.553485
1.55236
1.546735
1.542235
1.542235
1.541484
1.552735
1.539422
1.539797
1.53961
1.538672
1.545047
1.551797
1.554798
1.554798
1.561923
1.564735
1.56661
1.553672
1.556672
1.551985
1.54861
1.538297
1.533797
1.533797
1.542235
1.551985
1.54336
1.53961
1.539235
1.543922
1.55236
1.55986
1.55911
1.55911
1.568673
1.557423
1.554235
1.55686
1.55386
1.54936
1.540172
1.536797
1.549735
1.549735
1.548235
1.543172
1.539422
1.541109
1.545422
1.551422
1.55911
1.558923
1.558923
1.563048
1.56211
1.557047
1.55911
1.552922
1.548985
1.543547
1.541297
1.54711
1.54711
1.550297
1.53961
1.542047
1.543547
1.545797
1.551797
1.559298
1.55986
1.572235
1.572235
1.561735
1.554798
1.557235
1.55611
1.551422
1.545985
1.53961
1.53961
1.552172
1.552172
1.54861
1.542047
1.540922
1.544485
1.552922
1.562485
1.563235
1.564735
1.557047
1.557047
1.556298
1.561173
1.556298
1.551422
1.54411
1.54336
1.548797
1.550485
1.550485
1.542985
1.542422
1.54261
1.54636
1.553672
1.55986
1.56136
1.56811
1.565673
1.565673
1.55836
1.558173
1.55986
1.55236
1.549922
1.546547
1.540735
1.544297
1.548047
1.548047
1.544297
1.542985
1.54636
1.552735
1.560423
1.56361
1.565298
1.574298
1.557235
1.557235
1.560048
1.560048
1.554047
1.54786
1.540547
1.547672
1.557235
1.551797
1.547297
1.547297
1.544485
1.548985
1.55386
1.56511
1.563048
1.570173
1.557423
1.560423
1.560423
1.562485
1.559298
1.556298
1.545985
1.541109
1.550672
1.550672
1.55836
1.54486
1.54486
1.544672
1.548985
1.553672
1.564923
1.56286
1.563798
1.579548
1.56136
1.56136
1.56136
1.560985
1.55461
1.553297
1.54861
1.551235
1.551797
1.548047
1.546922
1.54711
1.54711
1.551235
1.555172
1.562485
1.563798
1.571298
1.572048
1.560235
1.56361
1.563048
1.563048
1.55911
1.55311
1.549735
1.542235
1.560423
1.54936
1.54861
1.547672
1.549547
1.549547
1.555923
1.56511
1.567735
1.57261
1.576361
1.560048
1.56286
1.56436
1.56436
1.560798
1.55461
1.54411
1.542047
1.560985
1.553485
1.55011
1.54936
1.551235
1.551235
1.554422
1.565298
1.566423
1.56961
1.564548
1.561923
1.56436
1.56511
1.557797
1.557797
1.555923
1.550297
1.552172
1.558548
1.555547
1.54861
1.54936
1.55086
1.55611
1.55611
1.56511
1.56661
1.570173
1.574673
1.569048
1.566048
1.56511
1.561173
1.557985
1.557985
1.553297
1.551235
1.551797
1.55236
1.55086
1.55086
1.550672
1.556298
1.556298
1.56436
1.56811
1.574298
1.56661
1.569235
1.565298
1.566985
1.563798
1.55911
1.55911
1.55461
1.546735
1.55386
1.564735
1.551797
1.549547
1.552172
1.557047
1.568485
1.568485
1.570735
1.578236
1.569985
1.565673
1.56661
1.56661
1.565298
1.558548
1.548422
1.548422
1.554798
1.56286
1.557047
1.55311
1.55161
1.553297
1.560048
1.569235
1.56811
1.56811
1.567923
1.586673
1.571673
1.567548
1.567548
1.564735
1.561735
1.55536
1.554235
1.554235
1.549735
1.553672
1.55311
1.552735
1.552735
1.558173
1.568673
1.575048
1.575048
1.577298
1.580486
1.567548
1.56886
1.570923
1.565298
1.561548
1.549735
1.555735
1.555735
1.56136
1.565298
1.554235
1.552172
1.554422
1.559298
1.564548
1.571298
1.569048
1.569048
1.580673
1.572798
1.568673
1.568673
1.567735
1.563985
1.560423
1.550672
1.562485
1.562485
1.554798
1.55686
1.55536
1.554235
1.55986
1.565485
1.572798
1.575611
1.560048
1.560048
1.572986
1.570923
1.572798
1.566798
1.56436
1.557423
1.556298
1.563423
1.563423
1.545797
1.55536
1.555923
1.555923
1.561173
1.56586
1.574486
1.578611
1.575986
1.575986
1.578048
1.570735
1.57261
1.569985
1.56511
1.562298
1.553485
1.558735
1.569048
1.569048
1.558173
1.557047
1.556485
1.562485
1.568485
1.574486
1.582361
1.580673
1.56436
1.56436
1.573173
1.574486
1.570923
1.566798
1.56286
1.554422
1.554985
1.575048
1.55836
1.55836
1.557423
1.558173
1.562485
1.567735
1.573735
1.572048
1.593424
1.583298
1.573173
1.573173
1.575048
1.571298
1.564735
1.555923
1.557235
1.567548
1.569048
1.560048
1.560048
1.559673
1.56061
1.560985
1.567735
1.576548
1.583111
1.586298
1.576736
1.574111
1.574111
1.575048
1.573735
1.568485
1.56286
1.562673
1.557235
1.562298
1.56586
1.55986
1.55986
1.559485
1.564173
1.57111
1.576923
1.579361
1.584236
1.576361
1.574111
1.577111
1.577111
1.574298
1.570735
1.561548
1.557235
1.560423
1.565298
1.56061
1.55761
1.560048
1.560048
1.563985
1.57186
1.579548
1.576173
1.570735
1.590236
1.575798
1.575986
1.576361
1.576361
1.572048
1.563423
1.561923
1.565485
1.575048
1.563798
1.559485
1.560985
1.560985
1.565485
1.570548
1.576736
1.579923
1.582361
1.583673
1.575236
1.577673
1.575611
1.575611
1.572048
1.561548
1.555923
1.56511
1.576173
1.567173
1.562298
1.56061
1.56436
1.56436
1.570923
1.581798
1.577111
1.579736
1.578798
1.577298
1.578986
1.577111
1.574298
1.574298
1.564173
1.560798
1.56811
1.56811
1.570923
1.56136
1.562298
1.566423
1.571673
1.571673
1.578236
1.580298
1.583486
1.592861
1.578423
1.578986
1.578048
1.573548
1.573548
1.56961
1.565673
1.56586
1.554235
1.562298
1.564735
1.56286
1.56661
1.57186
1.57186
1.581236
1.581423
1.581236
1.594549
1.580673
1.580298
1.577861
1.57336
1.567548
1.567548
1.56511
1.563235
1.556298
1.567923
1.562673
1.564548
1.566048
1.571486
1.580111
1.580111
1.583486
1.586861
1.590049
1.580861
1.578798
1.579548
1.575423
1.569423
1.558548
1.558548
1.56211
1.580486
1.570923
1.564735
1.563235
1.56586
1.573735
1.581798
1.581798
1.583111
1.580486
1.583486
1.583673
1.580298
1.581236
1.574861
1.57111
1.565673
1.565673
1.565298
1.575611
1.570173
1.565485
1.564548
1.567548
1.573548
1.580298
1.583298
1.583298
1.588736
1.599986
1.580486
1.581611
1.581611
1.577861
1.573923
1.567923
1.56211
1.56211
1.570173
1.573548
1.567548
1.56586
1.567173
1.572798
1.578798
1.584236
1.585361
1.585361
1.595486
1.584611
1.581236
1.582548
1.578611
1.572235
1.559485
1.56511
1.583298
1.583298
1.57261
1.56661
1.566235
1.567548
1.573548
1.583298
1.585173
1.582736
1.582736
1.578986
1.579173
1.581423
1.582923
1.577861
1.575048
1.572235
1.56436
1.566235
1.566235
1.584986
1.566423
1.567923
1.568485
1.572986
1.580673
1.587799
1.587799
1.596986
1.596986
1.587236
1.583486
1.582923
1.580861
1.573923
1.566048
1.57336
1.571298
1.56661
1.56661
1.56811
1.567173
1.567923
1.573548
1.579361
1.584423
1.593236
1.591924
1.589111
1.589111
1.581986
1.584048
1.581986
1.573173
1.569235
1.570548
1.569048
1.568673
1.568673
1.569985
1.56886
1.569423
1.57336
1.578423
1.585923
1.587236
1.588736
1.579923
1.579923
1.583486
1.584236
1.580673
1.575798
1.572235
1.571673
1.572235
1.573923
1.56736
1.56736
1.567548
1.57336
1.581798
1.586486
1.587423
1.598674
1.587611
1.583486
1.584611
1.582173
1.582173
1.576361
1.573173
1.570735
1.573923
1.569423
1.568673
1.56961
1.567548
1.572986
1.572986
1.579548
1.587236
1.590986
1.588361
1.587236
1.583673
1.584986
1.584611
1.575986
1.575986
1.569423
1.57036
1.572798
1.578048
1.575423
1.56811
1.569798
1.572235
1.572235
1.581798
1.587048
1.588548
1.596986
1.584611
1.583486
1.586673
1.583111
1.578423
1.578423
1.571673
1.572423
1.568485
1.570735
1.572423
1.570548
1.570173
1.573548
1.580111
1.580111
1.586298
1.588923
1.601674
1.585548
1.585173
1.585736
1.584986
1.579923
1.571673
1.571673
1.566048
1.572048
1.591736
1.574298
1.568298
1.570173
1.573548
1.582361
1.590424
1.590424
1.586673
1.587611
1.580111
1.586486
1.586486
1.583861
1.579736
1.576923
1.574298
1.574298
1.572986
1.57186
1.575048
1.57111
1.570173
1.574298
1.580298
1.588923
1.588923
1.590049
1.593986
1.596611
1.585173
1.586673
1.585173
1.579361
1.577298
1.573923
1.573923
1.568298
1.572423
1.581986
1.571673
1.570548
1.573923
1.580298
1.587236
1.591361
1.591361
1.594549
1.584048
1.585173
1.587423
1.586673
1.581611
1.578798
1.575048
1.56886
1.56886
1.56961
1.570735
1.571673
1.572235
1.574298
1.582173
1.590049
1.590049
1.593236
1.593236
1.602237
1.584986
1.588923
1.587611
1.583111
1.578236
1.569235
1.566798
1.566798
1.587799
1.578798
1.573548
1.570923
1.575048
1.581798
1.592111
1.590986
1.589674
1.589674
1.588361
1.586486
1.588923
1.587423
1.583298
1.575236
1.569235
1.574298
1.579173
1.579173
1.573735
1.572235
1.57186
1.576173
1.581048
1.593049
1.590799
1.590049
1.590049
1.590049
1.587799
1.588736
1.589111
1.584236
1.576361
1.574111
1.578611
1.588173
1.577298
1.577298
1.57336
1.572235
1.575423
1.580298
1.590424
1.589111
1.589111
1.595861
1.587799
1.587799
1.589486
1.590236
1.583298
1.581798
1.570923
1.568673
1.587423
1.585361
1.585361
1.575423
1.572798
1.575798
1.581236
1.591549
1.591361
1.599049
1.593049
1.582548
1.582548
1.587986
1.590236
1.585173
1.580111
1.572423
1.567548
1.587423
1.589298
1.575798
1.575798
1.573735
1.576361
1.579548
1.590986
1.593611
1.595486
1.592861
1.586861
1.587986
1.587986
1.590236
1.586111
1.579361
1.570923
1.56961
1.584986
1.580673
1.575611
1.572986
1.572986
1.573923
1.582361
1.595486
1.591361
1.590236
1.584611
1.591361
1.589486
1.589486
1.589486
1.587048
1.582548
1.578611
1.57111
1.579361
1.583861
1.574486
1.57336
1.57336
1.574298
1.579361
1.590049
1.592486
1.594924
1.608237
1.592861
1.589298
1.591174
1.591174
1.587236
1.582361
1.574486
1.571486
1.572798
1.587236
1.575611
1.574111
1.574486
1.574486
1.581611
1.587799
1.590611
1.603924
1.597361
1.593986
1.591549
1.590049
1.587986
1.587986
1.583861
1.581423
1.576548
1.577486
1.586673
1.577486
1.576173
1.577298
1.577298
1.580111
1.588361
1.593049
1.604111
1.597549
1.593236
1.591736
1.591549
1.589674
1.589674
1.584611
1.577298
1.572235
1.573923
1.587048
1.574861
1.575423
1.577673
1.581423
1.581423
1.592486
1.593236
1.591924
1.600174
1.593049
1.590986
1.592674
1.588548
1.586298
1.586298
1.580111
1.578986
1.580673
1.571486
1.576173
1.575236
1.577111
1.582173
1.586486
1.586486
1.595299
1.598861
1.606549
1.594361
1.590799
1.592486
1.590236
1.587236
1.587236
1.581798
1.575798
1.580111
1.579736
1.578423
1.577298
1.576736
1.581986
1.590986
1.590986
1.595299
1.597924
1.592486
1.585173
1.591924
1.592861
1.590986
1.585173
1.581611
1.581611
1.578798
1.573923
1.580111
1.580298
1.577486
1.576923
1.583298
1.591549
1.596236
1.596236
1.600549
1.595299
1.589111
1.591736
1.592674
1.590986
1.587236
1.573923
1.575798
1.575798
1.589486
1.586111
1.580111
1.575798
1.578048
1.581423
1.587236
1.591736
1.596799
1.596799
1.597736
1.598111
1.590799
1.593799
1.590799
1.586861
1.581798
1.579361
1.579361
1.575423
1.591549
1.584236
1.580111
1.578986
1.582361
1.588173
1.595861
1.598486
1.598486
1.598861
1.599236
1.593049
1.593424
1.593611
1.588361
1.584986
1.575986
1.574111
1.574111
1.586673
1.580861
1.578048
1.577861
1.580861
1.589861
1.598486
1.599424
1.602237
1.602237
1.599611
1.593799
1.596611
1.593611
1.588548
1.576736
1.575986
1.591361
1.583673
1.583673
1.582923
1.579923
1.579736
1.583486
1.587236
1.597736
1.595674
1.600736
1.600736
1.607862
1.592486
1.594736
1.593986
1.590049
1.586298
1.580673
1.57336
1.593799
1.593799
1.587048
1.580111
1.579923
1.582923
1.588173
1.596799
1.599424
1.604486
1.603362
1.603362
1.591549
1.595674
1.595486
1.588736
1.584798
1.578048
1.577298
1.588923
1.583111
1.583111
1.579361
1.578048
1.583111
1.585923
1.601861
1.599611
1.601299
1.594361
1.594174
1.594174
1.596986
1.594549
1.593049
1.581798
1.577486
1.582361
1.586673
1.581986
1.580111
1.580111
1.579361
1.582923
1.587048
1.597736
1.599236
1.597924
1.603174
1.594924
1.594924
1.597174
1.594174
1.592486
1.586111
1.575423
1.581986
1.587236
1.585736
1.582736
1.582736
1.578611
1.583298
1.589111
1.600361
1.599611
1.599424
1.596424
1.596611
1.597736
1.597736
1.596611
1.593049
1.584236
1.579361
1.585361
1.589298
1.586486
1.581798
1.580298
1.580298
1.585548
1.588548
1.600736
1.596799
1.596236
1.601861
1.597549
1.596986
1.596049
1.596049
1.593236
1.590236
1.584798
1.589111
1.591174
1.583111
1.582548
1.582173
1.582173
1.583486
1.590424
1.595861
1.598674
1.608049
1.607862
1.599049
1.598861
1.600361
1.600361
1.595486
1.590049
1.581986
1.577861
1.583861
1.592111
1.584986
1.582736
1.583111
1.583111
1.591549
1.600361
1.600924
1.601674
1.605986
1.595486
1.598299
1.598861
1.593799
1.593799
1.587611
1.578048
1.580861
1.594549
1.584986
1.584798
1.581611
1.584423
1.589298
1.589298
1.598486
1.600549
1.599611
1.600361
1.603736
1.599049
1.597924
1.594361
1.594361
1.590799
1.585173
1.576736
1.593049
1.588736
1.583486
1.581611
1.584423
1.588736
1.588736
1.599236
1.605049
1.596424
1.596799
1.598111
1.598861
1.600361
1.595486
1.590799
1.590799
1.577673
1.583111
1.589861
1.599986
1.584986
1.582361
1.584798
1.591736
1.599424
1.599424
1.602049
1.599986
1.600174
1.606174
1.599049
1.599611
1.595486
1.592486
1.586861
1.586861
1.583486
1.582361
1.591549
1.585736
1.584236
1.586111
1.588923
1.596986
1.604111
1.604111
1.610299
1.592674
1.596986
1.598861
1.599611
1.596986
1.593424
1.581798
1.581798
1.582923
1.595674
1.593424
1.584798
1.584611
1.584611
1.591174
1.598299
1.605986
1.605986
1.602986
1.599049
1.599424
1.601486
1.600361
1.599424
1.593049
1.586111
1.585736
1.585736
1.591924
1.587048
1.584236
1.584611
1.584236
1.589861
1.597924
1.602237
1.602424
1.602424
1.612924
1.602799
1.599986
1.600549
1.598111
1.593611
1.588548
1.586861
1.581611
1.581611
1.583861
1.588361
1.585548
1.584798
1.590236
1.597736
1.606362
1.613112
1.605986
1.605986
1.601486
1.601299
1.599236
1.593236
1.588173
1.586673
1.593799
1.596799
1.584798
1.584798
1.585173
1.584611
1.589486
1.596049
1.603174
1.602986
1.608612
1.609737
1.600924
1.600924
1.602424
1.599049
1.594736
1.587986
1.586861
1.593611
1.591736
1.585361
1.585361
1.584611
1.584986
1.589674
1.600174
1.605986
1.603924
1.616862
1.603362
1.601299
1.601299
1.602424
1.601111
1.594174
1.585923
1.585548
1.587986
1.590611
1.590799
1.584798
1.584798
1.583298
1.587236
1.596049
1.603924
1.605986
1.611049
1.614987
1.601299
1.600361
1.600361
1.599986
1.595111
1.589111
1.590611
1.594924
1.582173
1.588173
1.584986
1.585173
1.585173
1.589674
1.595861
1.600174
1.603736
1.611424
1.616112
1.600924
1.602986
1.602986
1.601111
1.596049
1.593611
1.587986
1.586111
1.588548
1.591361
1.588548
1.587048
1.587048
1.589486
1.596424
1.605986
1.606362
1.622675
1.606549
1.600361
1.601486
1.601299
1.601299
1.596049
1.590424
1.582173
1.587799
1.603174
1.593236
1.586486
1.585736
1.590049
1.590049
1.598486
1.605799
1.604111
1.604299
1.605236
1.601486
1.602986
1.601486
1.595674
1.595674
1.592861
1.592486
1.586673
1.587236
1.587423
1.587236
1.586111
1.589298
1.596049
1.596049
1.602986
1.604674
1.599236
1.612549
1.602986
1.603736
1.602799
1.598299
1.598299
1.593236
1.585361
1.589486
1.589674
1.593799
1.588923
1.588173
1.589861
1.594924
1.594924
1.606737
1.607112
1.606924
1.606924
1.601299
1.604861
1.603736
1.597924
1.591549
1.591549
1.582923
1.590611
1.605611
1.590049
1.587799
1.586298
1.588736
1.595674
1.608612
1.608612
1.605986
1.612362
1.600361
1.601111
1.603924
1.603362
1.599424
1.596424
1.592111
1.592111
1.582173
1.593424
1.599236
1.589111
1.587799
1.588548
1.595674
1.606549
1.606549
1.608424
1.614237
1.621174
1.605424
1.603924
1.602986
1.601486
1.595111
1.591361
1.591361
1.593799
1.590049
1.581423
1.589861
1.588923
1.591924
1.596236
1.604674
1.606174
1.606174
1.610299
1.610487
1.602799
1.604299
1.603549
1.600549
1.597549
1.592111
1.585923
1.585923
1.584423
1.599799
1.590799
1.587986
1.589861
1.594924
1.604674
1.611424
1.608612
1.608612
1.603362
1.603549
1.604674
1.606924
1.601111
1.596424
1.593986
1.591549
1.591549
1.588361
1.589861
1.590424
1.589298
1.590049
1.596424
1.607112
1.609924
1.614799
1.614799
1.602049
1.605799
1.604674
1.604674
1.601111
1.595299
1.589674
1.592111
1.599424
1.599424
1.607112
1.591174
1.587611
1.592111
1.595486
1.603924
1.607299
1.603549
1.616112
1.616112
1.615737
1.604674
1.606174
1.602237
1.597736
1.591924
1.585736
1.586673
1.593424
1.593424
1.590986
1.589111
1.590799
1.595674
1.604299
1.606174
1.607862
1.602424
1.613674
1.613674
1.605986
1.604861
1.603362
1.597549
1.590236
1.591549
1.596049
1.604486
1.604486
1.591549
1.589486
1.591736
1.595111
1.602799
1.606924
1.614049
1.613112
1.610112
1.610112
1.604861
1.606549
1.603362
1.596799
1.593236
1.592299
1.586861
1.587236
1.590799
1.590799
1.590986
1.591361
1.597736
1.602237
1.608612
1.610862
1.612174
1.610112
1.605611
1.605611
1.606174
1.605424
1.599986
1.592486
1.584236
1.593236
1.603174
1.593799
1.590799
1.590799
1.591174
1.596049
1.605236
1.608049
1.607487
1.605986
1.605424
1.607299
1.606924
1.606924
1.605049
1.599049
1.596424
1.590799
1.590236
1.588923
1.593799
1.590424
1.590424
1.590236
1.594549
1.605236
1.609362
1.613299
1.614049
1.604674
1.605986
1.608237
1.608237
1.604111
1.599611
1.588173
1.589486
1.597361
1.594736
1.594736
1.590986
1.590424
1.590424
1.595861
1.601111
1.607487
1.607487
1.613487
1.605799
1.606737
1.607674
1.604111
1.604111
1.601674
1.590424
1.591174
1.598861
1.603174
1.596424
1.590799
1.590611
1.593986
1.593986
1.602424
1.608799
1.610487
1.619487
1.604486
1.605611
1.608237
1.604861
1.604861
1.601299
1.591736
1.592674
1.595299
1.605799
1.593236
1.591736
1.592674
1.596799
1.596799
1.602237
1.608237
1.608049
1.610487
1.615362
1.606737
1.607112
1.606362
1.600549
1.600549
1.599424
1.592486
1.586861
1.595861
1.602611
1.591736
1.592111
1.594174
1.600549
1.600549
1.609737
1.611424
1.619112
1.603362
1.605799
1.608049
1.606362
1.601861
1.591549
1.591549
1.591924
1.595111
1.597549
1.593986
1.592486
1.589298
1.593611
1.601111
1.611987
1.611987
1.609174
1.618362
1.609737
1.606737
1.607674
1.608424
1.600174
1.592674
1.592674
1.593236
1.595861
1.599986
1.588548
1.592486
1.591549
1.595111
1.600549
1.607862
1.607862
1.609737
1.610862
1.623612
1.606737
1.607487
1.608049
1.602424
1.597361
1.591361
1.591361
1.597361
1.607487
1.593799
1.590986
1.591924
1.595111
1.600924
1.608237
1.607112
1.607112
1.617987
1.616487
1.605611
1.607112
1.607299
1.602799
1.600174
1.594174
1.589298
1.589298
1.590611
1.594549
1.592861
1.589486
1.592861
1.598111
1.608799
1.611237
1.611237
1.612549
1.618737
1.603924
1.607112
1.608237
1.602799
1.599799
1.590799
1.588923
1.588923
1.607862
1.598486
1.593611
1.591174
1.593236
1.599236
1.609549
1.610674
1.612362
1.612362
1.611799
1.606174
1.608237
1.606924
1.603362
1.594549
1.588923
1.596049
1.598111
1.598111
1.600924
1.593611
1.589674
1.593611
1.599424
1.612362
1.610112
1.613112
1.607487
1.607487
1.608612
1.608987
1.608612
1.603736
1.597361
1.594549
1.595674
1.605986
1.605986
1.584236
1.592674
1.590424
1.592486
1.600361
1.607862
1.608987
1.612362
1.626612
1.626612
1.612362
1.609924
1.609737
1.603362
1.599236
1.595299
1.595111
1.604299
1.590611
1.590611
1.593799
1.593236
1.594174
1.597361
1.605424
1.612362
1.613862
1.618174
1.609924
1.609924
1.608049
1.608987
1.603924
1.601674
1.591924
1.587236
1.601486
1.604299
1.593424
1.593424
1.593049
1.593986
1.599799
1.608237
1.611049
1.615549
1.619862
1.605424
1.609924
1.609924
1.608799
1.605424
1.598861
1.590611
1.596611
1.599611
1.608612
1.593986
1.593986
1.592486
1.593986
1.598111
1.605049
1.609549
1.609924
1.62155
1.614799
1.608424
1.608424
1.608612
1.603362
1.598861
1.595299
1.595111
1.604486
1.597736
1.594174
1.592861
1.592861
1.593424
1.599049
1.604674
1.609737
1.619862
1.620049
1.609924
1.608612
1.609174
1.609174
1.606174
1.602049
1.596611
1.587799
1.591736
1.603174
1.593986
1.593236
1.591361
1.591361
1.599799
1.607674
1.612549
1.618362
1.619674
1.607674
1.606549
1.609549
1.609549
1.605799
1.599799
1.592861
1.594174
1.598674
1.586673
1.592299
1.593611
1.592674
1.592674
1.598299
1.605424
1.608612
1.615549
1.610299
1.615362
1.608237
1.609174
1.606924
1.606924
1.602799
1.598486
1.594549
1.593049
1.601861
1.595299
1.593799
1.593611
1.597549
1.597549
1.605236
1.610112
1.613299
1.616674
1.611237
1.608237
1.609174
1.608612
1.602799
1.602799
1.598861
1.588548
1.590611
1.612174
1.598111
1.593236
1.593236
1.595674
1.595674
1.608237
1.611799
1.612549
1.611799
1.609737
1.611237
1.607862
1.602799
1.595111
1.593611
1.593611
1.599236
1.594924
1.597361
1.593236
1.593236
1.597549
1.606924
1.612549
1.611049
1.611049
1.607674
1.621737
1.609924
1.610487
1.607487
1.601486
1.596611
1.597549
1.597549
1.597549
1.584236
1.590799
1.594174
1.593424
1.596799
1.603549
1.609362
1.610674
1.621924
1.621924
1.611799
1.608612
1.610487
1.609174
1.603174
1.600174
1.594924
1.588361
1.598111
1.598111
1.594736
1.593236
1.593424
1.597924
1.604299
1.613299
1.614987
1.615174
1.615174
1.611612
1.607862
1.610299
1.608237
1.604299
1.594549
1.590799
1.605424
1.600924
1.600924
1.600361
1.591924
1.593236
1.597361
1.602237
1.613112
1.611987
1.611799
1.613487
1.613487
1.608987
1.609362
1.607674
1.604486
1.597174
1.595111
1.602237
1.599611
1.592674
1.592674
1.593799
1.594174
1.597174
1.601111
1.608612
1.611799
1.619299
1.617424
1.607299
1.607299
1.610487
1.608049
1.605424
1.598674
1.591174
1.590986
1.598674
1.601861
1.593424
1.593424
1.594174
1.595861
1.600924
1.613299
1.612174
1.6223
1.611799
1.607299
1.607299
1.609362
1.611237
1.605986
1.596986
1.592299
1.598111
1.601111
1.598299
1.593799
1.593799
1.591549
1.597174
1.600549
1.611424
1.610487
1.611612
1.629237
1.608237
1.611612
1.611612
1.608237
1.603736
1.598674
1.592674
1.595299
1.603362
1.586486
1.593799
1.593611
1.593611
1.596424
1.601486
1.608612
1.610299
1.620612
1.613862
1.608424
1.608799
1.608987
1.608987
1.605611
1.601861
1.593799
1.585361
1.596611
1.605799
1.593799
1.590611
1.590611
1.594174
1.602049
1.609362
1.613674
1.615549
1.614424
1.604861
1.610112
1.608049
1.608049
1.606362
1.599236
1.589111
1.596424
1.602049
1.603924
1.593611
1.592861
1.593799
1.593799
1.599611
1.611237
1.611237
1.608799
1.618737
1.615362
1.610112
1.609549
1.605424
1.605424
1.598674
1.594549
1.596049
1.602237
1.595486
1.593799
1.593799
1.595486
1.600736
1.600736
1.609737
1.610112
1.616487
1.620424
1.611237
1.609737
1.609174
1.605986
1.605986
1.600736
1.598299
1.593986
1.596799
1.592674
1.592486
1.594174
1.593236
1.600361
1.600361
1.608049
1.612174
1.613674
1.622487
1.616674
1.609549
1.609549
1.604486
1.602049
1.602049
1.598299
1.588548
1.592486
1.606362
1.595486
1.593236
1.594549
1.598111
1.607487
1.607487
1.612737
1.618362
1.626612
1.603362
1.609174
1.610862
1.605611
1.602237
1.593611
1.593611
1.594361
1.599236
1.609737
1.591924
1.590799
1.594361
1.599049
1.606924
1.610674
1.610674
1.607112
1.611237
1.614049
1.609549
1.608799
1.606362
1.599986
1.596799
1.596799
1.594924
1.606174
1.596049
1.595111
1.594174
1.594549
1.599424
1.606362
1.610862
1.610862
1.608987
1.622862
1.610862
1.610299
1.608612
1.607299
1.600924
1.593986
1.595674
1.595674
1.598674
1.584236
1.594361
1.592111
1.594174
1.598486
1.606174
1.610299
1.611799
1.611799
1.620987
1.617237
1.608799
1.608987
1.606737
1.602799
1.594736
1.589486
1.593986
1.593986
1.599611
1.596236
1.595111
1.592299
1.597174
1.604674
1.612362
1.611424
1.611424
1.625675
1.612549
1.607299
1.609362
1.607112
1.601674
1.588548
1.590799
1.594736
1.594736
1.602611
1.596049
1.591174
1.592486
1.597174
1.606174
1.611799
1.608987
1.608987
1.608987
1.611049
1.607487
1.609924
1.606549
1.601861
1.595299
1.593236
1.598111
1.601111
1.601111
1.590236
1.591361
1.593236
1.597736
1.603736
1.608424
1.613487
1.619487
1.616112
1.616112
1.609924
1.608237
1.605799
1.601299
1.597549
1.593611
1.590986
1.596424
1.595299
1.595299
1.592674
1.592111
1.596236
1.601299
1.610299
1.613112
1.618924
1.619112
1.619112
1.607674
1.610112
1.608987
1.603362
1.600736
1.595486
1.590236
1.609549
1.599236
1.599236
1.593611
1.590986
1.596236
1.602424
1.608987
1.611612
1.618174
1.618924
1.607862
1.607862
1.607299
1.608237
1.601111
1.594924
1.587048
1.596611
1.600174
1.598861
1.593236
1.593236
1.590799
1.595299
1.602611
1.612737
1.608987
1.609737
1.608987
1.607487
1.608237
1.608237
1.608049
1.600736
1.596424
1.593611
1.593611
1.601299
1.593611
1.592299
1.593049
1.593049
1.594361
1.600736
1.610674
1.606737
1.617424
1.62155
1.607112
1.608424
1.608424
1.608049
1.603362
1.598486
1.594736
1.598674
1.593986
1.597924
1.591174
1.590236
1.590236
1.595299
1.598861
1.609737
1.611987
1.615924
1.607299
1.605799
1.608799
1.607299
1.607299
1.602986
1.597924
1.588548
1.591549
1.609174
1.596986
1.592674
1.591361
1.595299
1.595299
1.600174
1.608424
1.610674
1.615924
1.608237
1.604486
1.609174
1.608049
1.601486
1.601486
1.593611
1.593986
1.595486
1.600361
1.591549
1.593236
1.591924
1.593424
1.593424
1.600174
1.608237
1.608237
1.620424
1.621174
1.608987
1.606362
1.609174
1.602424
1.602424
1.599424
1.596611
1.592861
1.597174
1.594174
1.593424
1.591361
1.592674
1.599236
1.599236
1.606174
1.609924
1.617049
1.612737
1.609362
1.607299
1.608987
1.603174
1.599424
1.599424
1.587611
1.587986
1.602237
1.601674
1.593799
1.589861
1.593236
1.597361
1.609174
1.609174
1.609924
1.615549
1.601111
1.603362
1.606737
1.607487
1.602611
1.595111
1.595111
1.586673
1.593986
1.598111
1.603924
1.592299
1.589486
1.593611
1.596799
1.605236
1.605236
1.608612
1.604486
1.603924
1.606549
1.606174
1.607674
1.602986
1.598861
1.594549
1.594549
1.594736
1.592486
1.591924
1.589861
1.591924
1.591549
1.597549
1.605799
1.607862
1.607862
1.606737
1.618174
1.604486
1.604111
1.606362
1.603924
1.599799
1.593986
1.588361
1.588361
1.589674
1.601674
1.592861
1.591174
1.591736
1.596236
1.606362
1.609174
1.613112
1.613112
1.622487
1.608799
1.606737
1.607299
1.603549
1.598486
1.585736
1.588736
1.588736
1.595486
1.599986
1.589674
1.590049
1.591736
1.597174
1.604861
1.609362
1.606924
1.606924
1.609737
1.613112
1.606924
1.606737
1.601861
1.598111
1.592486
1.590424
1.592674
1.592674
1.593611
1.589298
1.590424
1.591924
1.597174
1.603362
1.607112
1.614612
1.619299
1.619299
1.606549
1.605424
1.605236
1.604111
1.597924
1.595111
1.587611
1.591736
1.600924
1.600924
1.591736
1.589298
1.591174
1.595861
1.603362
1.608424
1.608987
1.609737
1.609737
1.602986
1.607674
1.606362
1.604486
1.598674
1.587986
1.591361
1.592111
1.595486
1.595486
1.587986
1.588361
1.590799
1.594174
1.600736
1.605986
1.609174
1.610299
1.612737
1.612737
1.604674
1.606362
1.602424
1.599424
1.591174
1.592674
1.595299
1.604861
1.595111
1.595111
1.588548
1.588736
1.593799
1.602049
1.608049
1.615737
1.610299
1.600361
1.602986
1.602986
1.606924
1.605049
1.596611
1.591924
1.588736
1.597174
1.593049
1.589486
1.588548
1.588548
1.590986
1.594174
1.599424
1.602799
1.609924
1.623425
1.609737
1.604486
1.604486
1.606362
1.603924
1.599986
1.591174
1.592299
1.597736
1.585923
1.592674
1.589486
1.589486
1.588923
1.592861
1.599611
1.607487
1.611987
1.609362
1.611612
1.602986
1.602611
1.598111
1.598111
1.591924
1.584611
1.587236
1.603549
1.592861
1.589111
1.588548
1.592299
1.592299
1.598674
1.608237
1.607299
1.625112
1.601111
1.602424
1.606924
1.604111
1.597174
1.597174
1.590049
1.584986
1.599799
1.598111
1.594174
1.587799
1.587423
1.592861
1.597549
1.597549
1.607112
1.604299
1.602237
1.617799
1.604674
1.606174
1.604111
1.600174
1.592299
1.592299
1.590611
1.592111
1.595674
1.599049
1.588923
1.588361
1.590424
1.596424
1.605236
1.605236
1.603549
1.617612
1.624362
1.602986
1.602986
1.602799
1.597174
1.594361
1.590799
1.590799
1.593986
1.590611
1.593424
1.589674
1.587799
1.590986
1.596611
1.602424
1.602424
1.607112
1.620237
1.610487
1.601299
1.602424
1.601861
1.598111
1.593986
1.588173
1.588173
1.582923
1.598299
1.601486
1.586861
1.588736
1.589674
1.596049
1.606362
1.606174
1.606174
1.615549
1.605799
1.601111
1.603924
1.603362
1.597361
1.590799
1.582173
1.585548
1.585548
1.606174
1.595299
1.586298
1.586111
1.588923
1.593986
1.607112
1.602986
1.605799
1.605799
1.599611
1.602611
1.603174
1.603362
1.597549
1.590986
1.587986
1.589861
1.589861
1.591361
1.589486
1.588173
1.586298
1.589674
1.594174
1.602799
1.604299
1.616112
1.616112
1.619487
1.602424
1.603924
1.602424
1.597549
1.595111
1.588736
1.589674
1.588923
1.588923
1.592674
1.587799
1.585736
1.588361
1.592111
1.602424
1.605424
1.609737
1.605049
1.605049
1.604486
1.603549
1.602049
1.598299
1.594549
1.590799
1.583486
1.593049
1.594549
1.594549
1.587236
1.585173
1.587236
1.592486
1.604111
1.604861
1.608799
1.609549
1.609549
1.601486
1.601299
1.600924
1.598299
1.592861
1.582736
1.587986
1.593986
1.594736
1.594736
1.586298
1.584611
1.587236
1.592674
1.602611
1.605424
1.603924
1.617987
1.607299
1.607299
1.600549
1.604111
1.598111
1.593611
1.590799
1.587611
1.596049
1.584048
1.586673
1.586673
1.587986
1.586861
1.593986
1.596611
1.601861
1.607862
1.607862
1.605799
1.600174
1.600174
1.603174
1.599236
1.593986
1.582923
1.583861
1.599986
1.595111
1.588173
1.584611
1.584611
1.586861
1.591549
1.601486
1.604111
1.608799
1.606362
1.597549
1.602237
1.602237
1.601861
1.599049
1.593424
1.580486
1.588173
1.593049
1.594549
1.585173
1.584986
1.584986
1.586673
1.591361
1.597361
1.603174
1.599986
1.611799
1.612549
1.599799
1.601861
1.601861
1.597736
1.592486
1.589486
1.588361
1.597361
1.591736
1.585173
1.585548
1.588548
1.588548
1.591361
1.597361
1.602986
1.612362
1.610674
1.609362
1.599424
1.602799
1.599049
1.599049
1.593424
1.587799
1.581236
1.580673
1.594924
1.590611
1.584048
1.584798
1.584798
1.590799
1.598486
1.605049
1.607299
1.603736
1.600924
1.601111
1.602986
1.599049
1.599049
1.593049
1.588361
1.588923
1.585923
1.596424
1.587048
1.584798
1.584236
1.590611
1.590611
1.596986
1.601861
1.604674
1.611237
1.598674
1.601486
1.601486
1.599611
1.594174
1.594174
1.588736
1.582361
1.581048
1.598111
1.591361
1.585736
1.584423
1.589111
1.596049
1.596049
1.605236
1.604486
1.604674
1.596986
1.600924
1.601111
1.600174
1.594174
1.594174
1.587236
1.586861
1.589111
1.587048
1.584048
1.581986
1.581798
1.587236
1.596611
1.596611
1.601486
1.600924
1.612174
1.616674
1.600549
1.599799
1.598861
1.594361
1.587048
1.587048
1.587799
1.592486
1.586111
1.583298
1.586486
1.584986
1.586861
1.593424
1.600924
1.600924
1.602986
1.609362
1.602799
1.599799
1.599424
1.598861
1.593799
1.589861
1.582173
1.582173
1.580861
1.595299
1.595674
1.584423
1.583298
1.588173
1.592861
1.601111
1.605049
1.605049
1.616862
1.605424
1.598299
1.600549
1.597736
1.595111
1.583673
1.582736
1.582736
1.586861
1.591174
1.588736
1.582923
1.584423
1.586298
1.591924
1.602611
1.601111
1.601111
1.602611
1.604861
1.598486
1.598486
1.599236
1.594174
1.588736
1.586111
1.588923
1.588923
1.598299
1.586861
1.582548
1.583298
1.585548
1.590986
1.597924
1.600924
1.616299
1.616299
1.607299
1.599424
1.600174
1.597549
1.591924
1.588923
1.587423
1.590611
1.587423
1.587423
1.583486
1.582736
1.581986
1.585736
1.589674
1.599611
1.601299
1.607112
1.607112
1.614237
1.596611
1.599049
1.597924
1.594549
1.588736
1.577486
1.580861
1.599049
1.599049
1.592486
1.583298
1.582548
1.583861
1.588923
1.603549
1.600736
1.602799
1.603924
1.603924
1.596236
1.598861
1.599236
1.592486
1.587236
1.579361
1.580111
1.594549
1.592111
1.592111
1.583111
1.580486
1.584986
1.587799
1.599424
1.599424
1.599611
1.605236
1.599986
1.599986
1.598299
1.597549
1.592861
1.589111
1.585173
1.585548
1.592111
1.582736
1.583298
1.583298
1.581798
1.583111
1.590049
1.596986
1.599799
1.605986
1.605799
1.600174
1.600174
1.597549
1.598299
1.593049
1.587236
1.583673
1.574673
1.582736
1.597361
1.583861
1.583861
1.581236
1.583298
1.588361
1.596424
1.599986
1.611237
1.599986
1.596049
1.597361
1.597361
1.598111
1.593236
1.587236
1.576548
1.581048
1.584611
1.592674
1.582173
1.582173
1.582173
1.584048
1.587611
1.598861
1.599611
1.598299
1.597361
1.600736
1.597174
1.596236
1.596236
1.591736
1.587423
1.583486
1.583111
1.583861
1.578798
1.581611
1.581236
1.581236
1.581611
1.588173
1.594549
1.597361
1.609737
1.606174
1.599236
1.595486
1.596236
1.596236
1.592111
1.587986
1.582736
1.575798
1.589298
1.590611
1.582173
1.581611
1.582736
1.582736
1.586486
1.595111
1.598299
1.601299
1.594736
1.601299
1.597549
1.596236
1.591924
1.591924
1.585736
1.575236
1.580673
1.590799
1.594549
1.581986
1.578423
1.579923
1.585548
1.585548
1.593424
1.599049
1.595486
1.610862
1.597924
1.594361
1.595486
1.592111
1.587799
1.587799
1.583298
1.579736
1.584048
1.582173
1.580861
1.579361
1.580673
1.584986
1.584986
1.591736
1.595861
1.598486
1.618174
1.599799
1.594924
1.593611
1.591924
1.587423
1.587423
1.582923
1.580111
1.575611
1.583486
1.581423
1.581048
1.578423
1.583673
1.591361
1.591361
1.599236
1.599986
1.596236
1.595674
1.592861
1.596049
1.592674
1.587611
1.576736
1.576736
1.573923
1.585548
1.591361
1.581423
1.577486
1.577673
1.583298
1.591736
1.597361
1.597361
1.598111
1.596986
1.593049
1.592674
1.593799
1.592111
1.585736
1.581048
1.581048
1.581236
1.585736
1.583111
1.578986
1.578611
1.577298
1.581423
1.589861
1.593799
1.593799
1.596236
1.611424
1.601486
1.592486
1.594361
1.591549
1.585173
1.581048
1.581048
1.581048
1.57186
1.582736
1.583486
1.576736
1.576173
1.578611
1.587048
1.593236
1.598486
1.598486
1.611237
1.584986
1.591736
1.593049
1.590611
1.584423
1.579173
1.571673
1.575611
1.575611
1.589674
1.581611
1.576923
1.575986
1.579736
1.586486
1.594549
1.596049
1.602986
1.602986
1.590049
1.589861
1.590986
1.590049
1.584423
1.577298
1.578236
1.580111
1.580111
1.588923
1.580861
1.575236
1.574861
1.579923
1.585173
1.596611
1.593049
1.599236
1.599236
1.608799
1.591549
1.592299
1.590236
1.584611
1.578986
1.576736
1.580298
1.579736
1.574486
1.574486
1.574111
1.578798
1.584423
1.592299
1.590799
1.601299
1.601486
1.589674
1.591549
1.591549
1.589111
1.585173
1.580673
1.580861
1.579736
1.573548
1.578798
1.575611
1.575611
1.575611
1.576736
1.582736
1.589486
1.590986
1.607299
1.595111
1.589674
1.589298
1.589298
1.588548
1.584048
1.580861
1.576548
1.569048
1.580486
1.589674
1.573173
1.574486
1.574486
1.577486
1.582361
1.595111
1.592674
1.598299
1.601111
1.587799
1.586673
1.588923
1.588923
1.584798
1.580673
1.575236
1.569423
1.578986
1.584986
1.572798
1.573548
1.574298
1.574298
1.578798
1.590424
1.593611
1.599986
1.604861
1.588173
1.588548
1.589486
1.582923
1.582923
1.578048
1.569235
1.574861
1.591736
1.575798
1.576173
1.572798
1.575048
1.581611
1.581611
1.593049
1.591549
1.595299
1.585173
1.587423
1.589861
1.587986
1.582361
1.582361
1.576736
1.572235
1.574861
1.584611
1.571486
1.572423
1.573923
1.573548
1.580861
1.580861
1.587236
1.588736
1.594549
1.604861
1.587611
1.589486
1.588923
1.581611
1.578423
1.578423
1.572235
1.574673
1.590799
1.571486
1.572986
1.572048
1.574673
1.579923
1.585548
1.585548
1.590049
1.595299
1.602611
1.584798
1.586486
1.588173
1.582173
1.578611
1.57036
1.57036
1.566423
1.574111
1.584986
1.572235
1.571486
1.572798
1.578236
1.586673
1.586673
1.590049
1.593611
1.596611
1.584048
1.585736
1.586111
1.583111
1.578236
1.567173
1.567173
1.570735
1.583861
1.583298
1.57261
1.568673
1.572423
1.577861
1.584611
1.589861
1.589861
1.591361
1.584798
1.587611
1.586673
1.586861
1.582361
1.578986
1.569423
1.57336
1.57336
1.576361
1.584423
1.572048
1.57186
1.570735
1.577486
1.583486
1.586861
1.587986
1.587986
1.600174
1.588736
1.586673
1.585736
1.582548
1.577673
1.573173
1.570548
1.570548
1.568298
1.576548
1.57111
1.570923
1.57111
1.576548
1.580861
1.587236
1.596611
1.596611
1.593236
1.595486
1.586298
1.584048
1.582173
1.577298
1.575048
1.569048
1.566423
1.566423
1.580298
1.573548
1.569423
1.570735
1.576361
1.582361
1.588361
1.591924
1.593986
1.593986
1.589111
1.583486
1.584048
1.582736
1.576548
1.565485
1.566798
1.583298
1.575048
1.575048
1.573173
1.568485
1.569048
1.574673
1.581798
1.587986
1.593799
1.592861
1.581423
1.581423
1.583298
1.587611
1.582361
1.575423
1.569235
1.572235
1.577486
1.583861
1.583861
1.570548
1.56736
1.568673
1.572986
1.580861
1.585548
1.585548
1.593986
1.599236
1.599236
1.584798
1.584611
1.582361
1.577673
1.571486
1.571486
1.576548
1.576923
1.568298
1.568298
1.567923
1.57186
1.575236
1.580111
1.583861
1.588361
1.604111
1.588361
1.582923
1.582923
1.585173
1.581798
1.577298
1.572423
1.563235
1.56736
1.587236
1.571298
1.570173
1.570173
1.56736
1.572048
1.579361
1.584986
1.589111
1.596986
1.593049
1.581611
1.584423
1.584423
1.581423
1.576173
1.567735
1.561923
1.569985
1.576923
1.572048
1.567548
1.567548
1.56811
1.571486
1.579173
1.586111
1.585736
1.585923
1.587799
1.581986
1.583486
1.583486
1.582173
1.577111
1.566423
1.566048
1.575423
1.574486
1.575048
1.566985
1.567173
1.567173
1.57111
1.575611
1.585923
1.582923
1.586673
1.595861
1.582361
1.582923
1.580673
1.580673
1.574486
1.572048
1.57036
1.570173
1.570923
1.566235
1.56661
1.567173
1.569235
1.569235
1.577298
1.582173
1.584986
1.596799
1.590799
1.580861
1.582361
1.580673
1.577486
1.577486
1.57111
1.56886
1.563423
1.56811
1.576923
1.568298
1.566985
1.56886
1.56886
1.573735
1.585173
1.585736
1.587423
1.587611
1.578236
1.581236
1.583111
1.577861
1.577861
1.57036
1.561173
1.567548
1.581611
1.571486
1.566798
1.565673
1.568298
1.573923
1.573923
1.582923
1.582736
1.586111
1.583673
1.580486
1.582361
1.581236
1.576736
1.56961
1.56961
1.567173
1.56886
1.569985
1.574298
1.564548
1.564923
1.568485
1.574111
1.583861
1.583861
1.584236
1.581798
1.596799
1.582548
1.581048
1.578611
1.573548
1.572423
1.572423
1.569048
1.569798
1.56886
1.566048
1.566423
1.563235
1.567735
1.57261
1.580486
1.580486
1.581611
1.590049
1.578048
1.578423
1.580861
1.580111
1.577298
1.571486
1.56736
1.56736
1.558173
1.568673
1.576361
1.56586
1.56511
1.565298
1.57261
1.579548
1.583298
1.583298
1.590799
1.584423
1.576173
1.580673
1.579923
1.575236
1.57036
1.55836
1.564923
1.564923
1.578986
1.572798
1.565485
1.564735
1.565485
1.572423
1.581236
1.580673
1.580673
1.575986
1.590611
1.586861
1.581048
1.579923
1.574486
1.570923
1.57036
1.566985
1.566985
1.57186
1.562485
1.566423
1.56361
1.567548
1.570548
1.580673
1.579548
1.587986
1.587986
1.582548
1.578611
1.579361
1.581048
1.576173
1.571486
1.561735
1.560235
1.564735
1.564735
1.581048
1.564735
1.563798
1.56511
1.570735
1.577298
1.583111
1.585361
1.588548
1.588548
1.575236
1.579173
1.580111
1.575986
1.568485
1.562673
1.56736
1.569798
1.569798
1.581236
1.56511
1.562485
1.565485
1.569423
1.575236
1.580673
1.581986
1.595299
1.595299
1.583673
1.579736
1.579736
1.575798
1.570735
1.566798
1.56661
1.572423
1.566985
1.566985
1.563235
1.563423
1.56361
1.569048
1.577298
1.580111
1.585173
1.588736
1.587611
1.587611
1.578236
1.578048
1.575986
1.569423
1.561923
1.559298
1.573923
1.578798
1.56511
1.56511
1.563048
1.561735
1.567735
1.575986
1.580298
1.584611
1.594361
1.576548
1.577486
1.577486
1.580298
1.574861
1.57186
1.558173
1.560798
1.57186
1.56661
1.56286
1.56286
1.561173
1.562673
1.569423
1.574298
1.578986
1.578423
1.588923
1.589861
1.577486
1.577486
1.578048
1.577111
1.571486
1.56436
1.56361
1.56961
1.55986
1.56361
1.563048
1.563048
1.56136
1.567173
1.574111
1.578798
1.585173
1.583673
1.583861
1.576361
1.576361
1.576361
1.574673
1.569798
1.56211
1.556298
1.57036
1.57261
1.566235
1.560985
1.56211
1.56211
1.566798
1.573923
1.581236
1.581611
1.594924
1.574861
1.576923
1.576923
1.576923
1.575611
1.570173
1.559298
1.560235
1.565485
1.570923
1.568298
1.561173
1.560798
1.560798
1.566985
1.572235
1.579923
1.576923
1.578798
1.582173
1.576548
1.577111
1.575798
1.575798
1.569048
1.566235
1.56136
1.566235
1.582173
1.561173
1.560235
1.55986
1.56511
1.56511
1.571673
1.576548
1.578236
1.597361
1.581423
1.574861
1.575986
1.574673
1.572423
1.572423
1.566048
1.563423
1.557797
1.55836
1.564923
1.56211
1.56211
1.565673
1.569985
1.569985
1.576173
1.579923
1.591361
1.579736
1.575423
1.575986
1.574486
1.569423
1.569423
1.565298
1.561735
1.55611
1.567923
1.567923
1.561548
1.559298
1.56436
1.570735
1.570735
1.581798
1.579548
1.587236
1.576923
1.572986
1.576736
1.575048
1.570735
1.559673
1.559673
1.557423
1.567173
1.565298
1.566423
1.560423
1.559298
1.56436
1.56811
1.578611
1.578611
1.578048
1.582736
1.576923
1.575423
1.575423
1.575423
1.568485
1.56286
1.563423
1.563423
1.562673
1.560423
1.55986
1.558923
1.561735
1.566985
1.576173
1.578798
1.576361
1.576361
1.587986
1.575423
1.576173
1.575048
1.56961
1.564173
1.55911
1.560048
1.552172
1.552172
1.563235
1.559485
1.55986
1.563985
1.56661
1.576923
1.575611
1.589298
1.583861
1.583861
1.573735
1.574111
1.57336
1.569985
1.56511
1.56361
1.557797
1.56061
1.559485
1.559485
1.561548
1.55761
1.562485
1.56511
1.574111
1.579361
1.582361
1.588736
1.588736
1.574486
1.573548
1.573735
1.569423
1.563985
1.553297
1.551047
1.571298
1.562485
1.562485
1.558923
1.55761
1.560048
1.56511
1.576548
1.575798
1.573548
1.580298
1.577486
1.577486
1.573923
1.573735
1.568485
1.56211
1.558923
1.560985
1.564923
1.566048
1.557235
1.557235
1.55911
1.561548
1.564548
1.572423
1.575236
1.581798
1.585923
1.575423
1.573923
1.573923
1.571673
1.567923
1.566048
1.56136
1.556485
1.555172
1.564923
1.558548
1.558548
1.557423
1.560423
1.564548
1.57036
1.575048
1.585361
1.586111
1.574298
1.57186
1.57186
1.573923
1.56961
1.564735
1.554798
1.552547
1.575048
1.566423
1.557985
1.554235
1.554235
1.557047
1.56361
1.572423
1.576361
1.577298
1.574298
1.57186
1.57336
1.572798
1.572798
1.568485
1.56286
1.551797
1.554798
1.567923
1.566423
1.557047
1.554985
1.556672
1.556672
1.563985
1.570548
1.575048
1.570173
1.580486
1.583111
1.572798
1.57336
1.568485
1.568485
1.564548
1.557047
1.557235
1.558548
1.565298
1.555547
1.554985
1.557797
1.557797
1.563048
1.570548
1.572235
1.571298
1.585923
1.583111
1.571673
1.572235
1.568485
1.568485
1.562485
1.560985
1.557985
1.55836
1.560235
1.55761
1.55761
1.558173
1.561923
1.561923
1.567923
1.573548
1.578986
1.572423
1.565298
1.570735
1.57336
1.569235
1.561735
1.561735
1.55911
1.551235
1.557423
1.576736
1.557235
1.557047
1.554985
1.561923
1.570735
1.570735
1.575423
1.577861
1.581986
1.56961
1.570735
1.572986
1.568673
1.563048
1.563048
1.553485
1.55686
1.561923
1.568298
1.554235
1.554798
1.555923
1.561735
1.56886
1.56886
1.575236
1.574673
1.57261
1.581236
1.57186
1.571298
1.568673
1.561173
1.55911
1.55911
1.561548
1.560798
1.565673
1.556485
1.557235
1.555547
1.561923
1.566048
1.572798
1.572798
1.575048
1.593236
1.573923
1.571298
1.57186
1.570173
1.564735
1.560798
1.555923
1.555923
1.552172
1.567735
1.558173
1.553485
1.554422
1.560235
1.563985
1.571673
1.571673
1.578048
1.579173
1.580861
1.569048
1.570548
1.568673
1.563985
1.557235
1.55161
1.55161
1.558923
1.56811
1.559485
1.555172
1.553297
1.559673
1.56736
1.572798
1.572235
1.572235
1.580673
1.567173
1.569985
1.572423
1.569985
1.563048
1.554047
1.551797
1.560985
1.560985
1.561923
1.554235
1.553485
1.553297
1.560235
1.566235
1.574673
1.573735
1.578611
1.578611
1.573735
1.568485
1.57036
1.570173
1.564735
1.55686
1.55461
1.55911
1.563048
1.563048
1.56211
1.55386
1.554798
1.556485
1.563985
1.572798
1.573173
1.578048
1.578048
1.572048
1.566985
1.57036
1.568673
1.563798
1.555547
1.55686
1.55836
1.562298
1.562298
1.554422
1.552922
1.553485
1.557423
1.561735
1.569798
1.570735
1.583298
1.572986
1.572986
1.569235
1.57036
1.567548
1.564548
1.55986
1.554047
1.557047
1.55236
1.558548
1.558548
1.55311
1.551047
1.554985
1.561173
1.572798
1.574298
1.578236
1.584798
1.564735
1.564735
1.56736
1.567735
1.563798
1.556485
1.547297
1.557985
1.56286
1.560423
1.560423
1.554422
1.55236
1.554985
1.561548
1.572798
1.57261
1.582736
1.570548
1.563985
1.563985
1.568298
1.569423
1.562485
1.557423
1.546735
1.554047
1.55986
1.560423
1.55236
1.55236
1.551985
1.554047
1.561173
1.568673
1.568298
1.569423
1.585923
1.570923
1.567923
1.567923
1.567548
1.561923
1.559485
1.55386
1.552547
1.566423
1.561548
1.554235
1.551047
1.551047
1.554985
1.558923
1.564735
1.567923
1.575423
1.576736
1.572986
1.566798
1.567548
1.567548
1.562485
1.558735
1.553297
1.547297
1.548985
1.555735
1.55311
1.55161
1.55161
1.552547
1.55836
1.565673
1.571673
1.57261
1.582361
1.572048
1.567548
1.56811
1.56811
1.563985
1.559673
1.549735
1.546172
1.567923
1.565485
1.55311
1.550672
1.551985
1.551985
1.557985
1.566985
1.567735
1.569235
1.570735
1.56361
1.566423
1.566423
1.564735
1.564735
1.558735
1.545047
1.552172
1.57111
1.555547
1.552735
1.551797
1.55161
1.557985
1.557985
1.56661
1.568485
1.569235
1.565298
1.569423
1.567923
1.567173
1.561173
1.561173
1.557423
1.554985
1.55311
1.56436
1.546922
1.550485
1.550672
1.55086
1.557423
1.557423
1.56211
1.565485
1.57186
1.584611
1.569798
1.56586
1.56586
1.56286
1.55686
1.55686
1.552922
1.552547
1.545235
1.55836
1.552172
1.549922
1.551422
1.555923
1.560985
1.560985
1.56661
1.569985
1.578611
1.558923
1.565298
1.564923
1.56211
1.55611
1.545422
1.545422
1.545985
1.56361
1.553672
1.550672
1.548985
1.548985
1.555172
1.56286
1.569048
1.569048
1.57111
1.572798
1.562485
1.564548
1.564923
1.563985
1.555923
1.547672
1.547672
1.549172
1.557985
1.56136
1.55086
1.548422
1.548047
1.55536
1.559673
1.566798
1.566798
1.566423
1.569235
1.569048
1.564735
1.566048
1.561548
1.554798
1.54861
1.551235
1.551235
1.549922
1.551797
1.546547
1.549172
1.551047
1.552922
1.560048
1.56511
1.57111
1.57111
1.581798
1.569048
1.56361
1.563235
1.560423
1.55611
1.552922
1.546922
1.543922
1.543922
1.555735
1.554798
1.548422
1.547297
1.551235
1.557423
1.56586
1.57111
1.57111
1.571298
1.575986
1.561735
1.564735
1.560235
1.55611
1.54861
1.54336
1.55386
1.55386
1.553297
1.552922
1.545797
1.547672
1.551235
1.557047
1.566048
1.564173
1.562298
1.562298
1.575986
1.56286
1.563235
1.560235
1.554047
1.547672
1.546922
1.551797
1.551047
1.551047
1.54561
1.546172
1.54711
1.549172
1.554422
1.561923
1.563985
1.578798
1.568673
1.568673
1.561923
1.562298
1.560235
1.555735
1.550672
1.544485
1.540172
1.554422
1.55686
1.55686
1.54711
1.54636
1.549922
1.55386
1.564548
1.564735
1.57111
1.578986
1.578986
1.55911
1.562485
1.56061
1.556298
1.54936
1.539797
1.54936
1.56061
1.548797
1.548797
1.546922
1.54486
1.548235
1.555735
1.56436
1.561923
1.560985
1.559485
1.559298
1.559298
1.56136
1.55986
1.556298
1.548422
1.54636
1.55161
1.553297
1.552547
1.544485
1.544485
1.543172
1.548047
1.55311
1.560423
1.560985
1.579361
1.574111
1.560423
1.561173
1.561173
1.55911
1.55386
1.551047
1.546735
1.54861
1.55536
1.545047
1.545797
1.545797
1.543172
1.54711
1.552735
1.561923
1.559485
1.57036
1.575423
1.559485
1.55836
1.55836
1.558548
1.552922
1.553297
1.544672
1.544672
1.542797
1.547485
1.543735
1.542985
1.542985
1.545422
1.55011
1.56061
1.563048
1.57111
1.563048
1.556672
1.55986
1.559485
1.559485
1.55386
1.55011
1.539797
1.54261
1.555547
1.547672
1.545235
1.542235
1.550672
1.560235
1.560235
1.561923
1.557423
1.563235
1.560423
1.55911
1.559298
1.553485
1.548797
1.54411
1.54411
1.545235
1.55161
1.543735
1.54411
1.544297
1.54486
1.550297
1.559485
1.559485
1.56061
1.564173
1.571673
1.557235
1.557423
1.556485
1.554235
1.548985
1.545985
1.545985
1.545235
1.542422
1.54561
1.54411
1.541297
1.543922
1.549547
1.556298
1.558548
1.558548
1.565298
1.57036
1.55611
1.557047
1.55836
1.552922
1.54786
1.534922
1.538859
1.538859
1.556672
1.547485
1.54261
1.539984
1.543922
1.547485
1.55836
1.558173
1.568298
1.568298
1.556485
1.562298
1.55686
1.557797
1.554047
1.547672
1.54411
1.545422
1.545422
1.555923
1.541672
1.540735
1.540922
1.542797
1.546172
1.553485
1.557235
1.562673
1.562673
1.572423
1.55686
1.55611
1.557047
1.552735
1.54786
1.542797
1.542985
1.544297
1.544297
1.541297
1.543922
1.540359
1.541484
1.546547
1.55461
1.55686
1.561923
1.576548
1.576548
1.563235
1.554985
1.55686
1.551235
1.54861
1.537359
1.536047
1.55311
1.549172
1.549172
1.541484
1.539422
1.540359
1.543922
1.55161
1.55836
1.564548
1.561735
1.551422
1.551422
1.556485
1.55611
1.552547
1.54711
1.536797
1.539047
1.546172
1.555735
1.555735
1.539984
1.537922
1.540547
1.546172
1.551985
1.555923
1.55611
1.572798
1.56511
1.56511
1.555923
1.555735
1.552735
1.546547
1.54186
1.54186
1.552547
1.546547
1.537359
1.537359
1.539422
1.539047
1.545422
1.549735
1.55386
1.56361
1.56361
1.563423
1.55386
1.55386
1.554235
1.553297
1.544297
1.539047
1.533609
1.543172
1.551422
1.539984
1.539235
1.539235
1.538297
1.542797
1.551797
1.556672
1.558735
1.571486
1.553297
1.552735
1.555923
1.555923
1.553485
1.54486
1.535859
1.540922
1.541297
1.554422
1.54186
1.537734
1.537734
1.538672
1.542422
1.55011
1.555172
1.554047
1.564548
1.566235
1.55311
1.553485
1.553485
1.55086
1.54636
1.543547
1.53961
1.537359
1.550485
1.537547
1.539422
1.539984
1.539984
1.541672
1.549547
1.555172
1.55461
1.571486
1.55686
1.55236
1.554047
1.552172
1.552172
1.547672
1.544297
1.539984
1.532484
1.546735
1.539235
1.537547
1.537547
1.54186
1.54186
1.549922
1.555172
1.557235
1.563798
1.543922
1.551047
1.554798
1.55311
1.55311
1.546735
1.536047
1.533984
1.545047
1.545235
1.539797
1.537359
1.536047
1.541672
1.541672
1.546172
1.554985
1.555735
1.55386
1.555923
1.551047
1.552922
1.552172
1.545047
1.545047
1.538672
1.537359
1.540735
1.542797
1.543735
1.536047
1.536797
1.540547
1.546735
1.546735
1.556485
1.555172
1.555923
1.568673
1.551985
1.552547
1.55086
1.546922
1.540922
1.540922
1.537359
1.53811
1.548985
1.536047
1.536984
1.535484
1.540359
1.543547
1.553485
1.553485
1.552547
1.555923
1.565485
1.552547
1.551422
1.552172
1.545797
1.54186
1.54186
1.541109
1.538484
1.54486
1.53811
1.537547
1.536797
1.539422
1.543922
1.55386
1.55386
1.553297
1.565485
1.561923
1.55311
1.551422
1.551797
1.54711
1.54261
1.532672
1.532672
1.532672
1.546735
1.537547
1.538672
1.534359
1.537359
1.544485
1.55611
1.55536
1.55536
1.556298
1.551985
1.55311
1.552735
1.551422
1.545797
1.541484
1.537922
1.536422
1.536422
1.542422
1.536047
1.537734
1.535109
1.53811
1.542797
1.553485
1.55236
1.55236
1.563048
1.559673
1.551985
1.55311
1.551235
1.54861
1.54411
1.53961
1.537734
1.537734
1.535109
1.536984
1.538297
1.535484
1.538297
1.54411
1.554235
1.557047
1.56211
1.56211
1.55611
1.545985
1.551422
1.553485
1.547297
1.541109
1.532484
1.535297
1.545797
1.545797
1.548235
1.537922
1.535297
1.538484
1.543547
1.54936
1.553297
1.55536
1.55686
1.55686
1.55761
1.552922
1.550672
1.546735
1.543735
1.539047
1.538672
1.551422
1.551422
1.53961
1.536609
1.535672
1.538297
1.54261
1.54861
1.550485
1.562673
1.56361
1.56361
1.552922
1.550485
1.551422
1.547672
1.543735
1.540547
1.532109
1.544297
1.543735
1.543735
1.537922
1.535672
1.536609
1.540547
1.550485
1.553485
1.559673
1.567735
1.553485
1.553485
1.551422
1.55386
1.547672
1.54486
1.534922
1.531922
1.552922
1.548235
1.536984
1.536984
1.535484
1.537172
1.54336
1.55011
1.553672
1.55611
1.554798
1.551797
1.55161
1.55161
1.55311
1.548985
1.54486
1.536797
1.538672
1.541672
1.539797
1.536609
1.536609
1.534734
1.537359
1.541109
1.55161
1.553485
1.55011
1.565298
1.557047
1.552547
1.552547
1.553297
1.55011
1.543922
1.53811
1.538484
1.545422
1.536422
1.539797
1.537547
1.537547
1.537172
1.542422
1.548985
1.554047
1.559673
1.55686
1.563985
1.550485
1.552922
1.552922
1.55011
1.546735
1.541672
1.534547
1.535484
1.555923
1.540547
1.536047
1.538484
1.538484
1.542235
1.549172
1.557797
1.557235
1.56511
1.548235
1.55386
1.553297
1.553297
1.550297
1.545985
1.535672
1.53811
1.546922
1.54186
1.540922
1.537359
1.537734
1.537734
1.544297
1.550297
1.55611
1.558173
1.563235
1.553297
1.552735
1.553485
1.551985
1.551985
1.546922
1.538484
1.537547
1.54561
1.55461
1.539984
1.538484
1.539235
1.541297
1.541297
1.54936
1.554235
1.556672
1.568298
1.558173
1.55386
1.55386
1.551985
1.546922
1.546922
1.542047
1.542985
1.540735
1.536234
1.538484
1.539422
1.539235
1.542797
1.548235
1.548235
1.558735
1.558173
1.565485
1.557985
1.549735
1.555547
1.552922
1.547297
1.547297
1.538672
1.531922
1.536234
1.553485
1.543172
1.538484
1.539235
1.542422
1.548047
1.548047
1.55686
1.555923
1.571486
1.55011
1.553485
1.554985
1.554985
1.549172
1.542047
1.542047
1.534922
1.540172
1.55011
1.547485
1.537359
1.539422
1.542985
1.546547
1.558548
1.558548
1.556298
1.553672
1.560985
1.554985
1.55536
1.554235
1.550297
1.545235
1.541109
1.541109
1.541484
1.556485
1.546547
1.540922
1.539797
1.54261
1.547672
1.555923
1.555923
1.55611
1.577111
1.566985
1.553672
1.554985
1.554047
1.550297
1.546735
1.54186
1.54186
1.534359
1.541297
1.545985
1.541672
1.538672
1.540547
1.549735
1.559298
1.559673
1.559673
1.563985
1.576173
1.554798
1.556485
1.554985
1.550672
1.545047
1.537359
1.543735
1.543735
1.546735
1.543922
1.540359
1.539047
1.543172
1.54786
1.559673
1.55911
1.56061
1.56061
1.556672
1.55536
1.557235
1.557047
1.552735
1.54411
1.538297
1.546735
1.546735
1.54786
1.552735
1.54261
1.540547
1.54186
1.547485
1.56286
1.557985
1.562298
1.562298
1.55611
1.555547
1.557047
1.55686
1.55086
1.548235
1.545235
1.54261
1.535109
1.535109
1.543547
1.54261
1.541484
1.542797
1.547672
1.560048
1.56136
1.562485
1.57186
1.57186
1.559298
1.557047
1.55836
1.554235
1.55011
1.542422
1.537547
1.547485
1.552735
1.552735
1.54411
1.542985
1.545235
1.548422
1.557985
1.560423
1.56661
1.558548
1.55611
1.55611
1.558173
1.557235
1.554047
1.548422
1.54336
1.545985
1.546172
1.542422
1.54336
1.54336
1.542047
1.544485
1.54861
1.55986
1.566048
1.577486
1.55911
1.55761
1.558923
1.558923
1.554798
1.55011
1.545985
1.539422
1.539235
1.544297
1.54561
1.543547
1.544672
1.544672
1.549922
1.558548
1.563048
1.564735
1.563048
1.557985
1.55836
1.562485
1.558173
1.558173
1.550672
1.538484
1.545422
1.549172
1.55836
1.543735
1.542797
1.54486
1.54486
1.55086
1.55911
1.55986
1.566048
1.577861
1.56061
1.55986
1.559485
1.557423
1.557423
1.552735
1.54936
1.54561
1.54636
1.553672
1.547672
1.547485
1.54561
1.551235
1.551235
1.556672
1.562485
1.571486
1.569048
1.562298
1.560423
1.56286
1.55761
1.55461
1.55461
1.545235
1.539047
1.548047
1.560985
1.54711
1.544485
1.547297
1.552922
1.559485
1.559485
1.564173
1.568298
1.56286
1.559673
1.560798
1.563798
1.557797
1.553485
1.553485
1.542047
1.54261
1.561735
1.55461
1.547672
1.544485
1.545422
1.552547
1.557047
1.557047
1.56436
1.561923
1.563423
1.569423
1.561735
1.562673
1.558548
1.55386
1.548985
1.548985
1.549735
1.554985
1.547485
1.546922
1.54561
1.548235
1.551422
1.558923
1.56286
1.56286
1.56586
1.578986
1.56736
1.561548
1.563235
1.560798
1.556298
1.55161
1.55161
1.55161
1.542985
1.551797
1.552172
1.546735
1.548047
1.55161
1.557047
1.56286
1.56286
1.56961
1.570548
1.570173
1.56286
1.563798
1.563423
1.557423
1.550485
1.542985
1.542985
1.552735
1.56961
1.553297
1.549922
1.546735
1.55386
1.560423
1.567548
1.56661
1.56661
1.569798
1.567735
1.564548
1.564735
1.563423
1.558173
1.551047
1.553485
1.552922
1.552922
1.54861
1.550297
1.549922
1.550297
1.551422
1.559673
1.565485
1.566423
1.577673
1.577673
1.580861
1.56436
1.56661
1.561548
1.558173
1.554422
1.55236
1.553672
1.549547
1.549547
1.552547
1.551422
1.550297
1.55386
1.555923
1.567173
1.572048
1.576361
1.576361
1.569798
1.56361
1.566798
1.565485
1.559298
1.55461
1.54786
1.543172
1.55536
1.55536
1.557423
1.551047
1.551235
1.554422
1.557797
1.56736
1.571673
1.581986
1.575423
1.575423
1.564548
1.567923
1.563985
1.557985
1.552547
1.548422
1.553672
1.56136
1.553297
1.553297
1.550297
1.549922
1.55461
1.55911
1.569235
1.569048
1.569798
1.57036
1.564735
1.564735
1.567173
1.565485
1.56286
1.554985
1.551422
1.554235
1.566048
1.551235
1.551235
1.55236
1.551797
1.554235
1.559485
1.566798
1.566798
1.580486
1.581423
1.56661
1.56661
1.56736
1.566235
1.562673
1.559485
1.553672
1.55611
1.553672
1.55236
1.55386
1.55386
1.551235
1.552735
1.562298
1.56886
1.57036
1.581798
1.575048
1.567548
1.566235
1.566235
1.56886
1.563423
1.559298
1.554798
1.546922
1.563048
1.56886
1.553297
1.551985
1.551985
1.554047
1.560798
1.569985
1.572986
1.575423
1.581236
1.566798
1.570548
1.56961
1.56961
1.562673
1.55986
1.549735
1.551235
1.55986
1.555923
1.554985
1.552735
1.552735
1.557235
1.561735
1.568673
1.572048
1.56736
1.579361
1.575986
1.569985
1.568673
1.568673
1.56436
1.55986
1.553485
1.556485
1.571298
1.557235
1.55536
1.554422
1.55686
1.55686
1.56061
1.569048
1.570173
1.57186
1.588361
1.571673
1.57036
1.569423
1.56736
1.56736
1.559673
1.560048
1.553297
1.559673
1.55986
1.55611
1.554985
1.557235
1.562485
1.562485
1.569423
1.574486
1.576173
1.577673
1.564923
1.57186
1.570923
1.56811
1.56811
1.562673
1.54936
1.551235
1.568673
1.565298
1.555172
1.554985
1.555735
1.562298
1.562298
1.568485
1.573548
1.573923
1.573548
1.573923
1.57261
1.568673
1.567173
1.56286
1.56286
1.558548
1.558548
1.563423
1.55986
1.555923
1.555547
1.556672
1.56211
1.569235
1.569235
1.57261
1.579548
1.587236
1.573173
1.57036
1.570735
1.567923
1.564923
1.561173
1.561173
1.55686
1.551422
1.565673
1.559485
1.554798
1.55761
1.55986
1.569423
1.575048
1.575048
1.574111
1.579736
1.571673
1.571486
1.574298
1.569235
1.56436
1.551047
1.551047
1.55461
1.572048
1.560235
1.560048
1.553672
1.557047
1.56061
1.567923
1.573548
1.573548
1.572048
1.577861
1.582736
1.570735
1.57261
1.569235
1.56586
1.563423
1.559298
1.559298
1.559485
1.558735
1.557797
1.556672
1.557423
1.561548
1.568298
1.575048
1.574673
1.574673
1.587799
1.578236
1.570173
1.57261
1.570923
1.565485
1.563048
1.55761
1.567173
1.567173
1.559298
1.56286
1.557797
1.55761
1.563048
1.567548
1.575236
1.578236
1.578236
1.578236
1.567735
1.572423
1.575611
1.57261
1.566798
1.560985
1.55236
1.55536
1.55536
1.562485
1.563423
1.557047
1.558173
1.56211
1.567923
1.578423
1.574673
1.577298
1.577298
1.575611
1.572986
1.573735
1.571486
1.566048
1.560423
1.560235
1.561548
1.557047
1.557047
1.558548
1.55761
1.557797
1.561923
1.569235
1.575986
1.574486
1.590611
1.583486
1.583486
1.573173
1.572423
1.570923
1.568485
1.560985
1.559485
1.561173
1.557423
1.557423
1.562673
1.559485
1.559485
1.561548
1.566235
1.573735
1.578236
1.583861
1.589674
1.589674
1.572235
1.574486
1.57261
1.568298
1.562298
1.55311
1.558173
1.567173
1.566423
1.566423
1.559298
1.55836
1.562485
1.56736
1.579361
1.577298
1.592486
1.572235
1.571486
1.571486
1.575986
1.573548
1.567548
1.559673
1.555172
1.566798
1.56961
1.566798
1.558548
1.558548
1.558548
1.561548
1.56661
1.576923
1.576548
1.57261
1.595111
1.575423
1.575423
1.575423
1.573923
1.567735
1.563423
1.562673
1.559673
1.572798
1.563235
1.558173
1.558173
1.55986
1.562298
1.567548
1.574861
1.575798
1.588361
1.588361
1.572423
1.572423
1.572423
1.572423
1.570548
1.56661
1.561923
1.557797
1.555735
1.56061
1.560798
1.55836
1.55836
1.562298
1.56661
1.574298
1.576923
1.586673
1.581236
1.573548
1.574673
1.574486
1.574486
1.570923
1.56736
1.55761
1.557797
1.575236
1.566985
1.561735
1.559298
1.56061
1.56061
1.568673
1.578236
1.578798
1.577673
1.575611
1.574861
1.578611
1.577298
1.577298
1.570735
1.565485
1.55986
1.560798
1.568673
1.565673
1.56061
1.55986
1.561735
1.561735
1.568298
1.576173
1.578986
1.582736
1.586486
1.577861
1.576923
1.575611
1.57336
1.57336
1.566985
1.561923
1.554798
1.557797
1.574861
1.561735
1.55986
1.56211
1.568298
1.568298
1.577111
1.579548
1.589674
1.583673
1.57336
1.576736
1.576923
1.57261
1.566798
1.566798
1.56061
1.564735
1.569423
1.568298
1.56136
1.55986
1.563423
1.566423
1.574486
1.574486
1.577298
1.580486
1.593986
1.581048
1.576361
1.576548
1.572986
1.567173
1.567173
1.56511
1.56511
1.576548
1.562485
1.560985
1.560798
1.56211
1.56961
1.573173
1.573173
1.577486
1.587611
1.582736
1.580861
1.576548
1.577111
1.574298
1.571298
1.562673
1.562673
1.558173
1.561173
1.577298
1.562673
1.561173
1.564173
1.567735
1.575986
1.579736
1.579736
1.585548
1.582548
1.583111
1.576173
1.577861
1.574861
1.569048
1.560985
1.557797
1.557797
1.575798
1.571298
1.561548
1.560798
1.56211
1.56811
1.575986
1.580486
1.581986
1.581986
1.581423
1.578611
1.577861
1.576173
1.568673
1.564173
1.562485
1.567548
1.579923
1.564173
1.564173
1.562298
1.563235
1.568298
1.575798
1.579736
1.578423
1.585736
1.588548
1.588548
1.578611
1.578048
1.574298
1.569798
1.564548
1.566423
1.566235
1.562673
1.561923
1.561923
1.561548
1.562298
1.56811
1.575611
1.579923
1.582361
1.597174
1.581611
1.580298
1.580298
1.576923
1.576361
1.571673
1.566985
1.564548
1.56886
1.562673
1.562485
1.563048
1.563048
1.563423
1.566798
1.572798
1.579173
1.586111
1.590424
1.579736
1.578986
1.579173
1.579173
1.575423
1.570173
1.563985
1.557047
1.56361
1.577861
1.56661
1.563235
1.563235
1.562673
1.568673
1.57336
1.583486
1.583861
1.579736
1.577861
1.576923
1.579173
1.579173
1.577298
1.572423
1.563798
1.564173
1.56886
1.575048
1.565673
1.562298
1.563985
1.563985
1.567923
1.573548
1.581048
1.579923
1.587236
1.587048
1.578048
1.580111
1.577111
1.577111
1.571673
1.567173
1.567735
1.573735
1.562485
1.563048
1.565485
1.563423
1.56661
1.56661
1.571673
1.581423
1.579361
1.593986
1.590236
1.578048
1.579361
1.579548
1.573173
1.573173
1.569798
1.56511
1.559298
1.561923
1.568485
1.56511
1.563048
1.56511
1.56511
1.570923
1.579736
1.582173
1.585736
1.594549
1.576361
1.578611
1.579736
1.573548
1.573548
1.56661
1.55911
1.567735
1.578423
1.568298
1.563798
1.563235
1.567173
1.574111
1.574111
1.583111
1.581798
1.580298
1.588923
1.577298
1.580298
1.579548
1.57186
1.56886
1.56886
1.56736
1.567548
1.57336
1.56211
1.563048
1.563798
1.56661
1.571486
1.580861
1.580861
1.582923
1.592486
1.587611
1.578236
1.579361
1.578236
1.573173
1.567548
1.567548
1.55911
1.563985
1.577673
1.567923
1.565298
1.562298
1.566985
1.57186
1.582923
1.582923
1.581798
1.588736
1.578236
1.578611
1.580673
1.581048
1.575611
1.570923
1.56661
1.56661
1.566985
1.57036
1.56361
1.56361
1.56511
1.566048
1.57111
1.576923
1.582548
1.582548
1.593236
1.587799
1.580298
1.578798
1.578798
1.575798
1.571673
1.56736
1.569423
1.569423
1.570548
1.567173
1.568298
1.562673
1.567548
1.571486
1.578986
1.583298
1.588173
1.588173
1.598111
1.577486
1.580486
1.581048
1.575611
1.572423
1.560048
1.561173
1.561173
1.570923
1.573548
1.566798
1.563235
1.565485
1.572235
1.580861
1.585548
1.584986
1.584986
1.595861
1.579548
1.581798
1.581236
1.576736
1.568298
1.561173
1.56586
1.57261
1.57261
1.572235
1.56436
1.564173
1.568673
1.572048
1.580486
1.580298
1.580486
1.595486
1.595486
1.582736
1.580486
1.578611
1.575236
1.570923
1.566048
1.56736
1.578798
1.568673
1.568673
1.565298
1.564173
1.566423
1.57186
1.579548
1.580673
1.595486
1.590236
1.590236
1.582736
1.581423
1.580673
1.576923
1.57261
1.569235
1.564735
1.567173
1.56436
1.56436
1.567548
1.564173
1.565298
1.57186
1.577861
1.583111
1.589298
1.587611
1.578048
1.578048
1.581048
1.581986
1.578048
1.572986
1.56211
1.566798
1.574673
1.575611
1.566423
1.566423
1.564173
1.566048
1.571486
1.578236
1.583298
1.580673
1.592861
1.581611
1.580861
1.580861
1.580673
1.578986
1.574111
1.570173
1.561173
1.563235
1.569048
1.567548
1.567548
1.566423
1.565298
1.569985
1.577111
1.586298
1.586861
1.591924
1.578986
1.581986
1.581986
1.581423
1.577861
1.572423
1.56436
1.566048
1.574861
1.576736
1.56661
1.566235
1.566235
1.567173
1.572235
1.577111
1.581798
1.581423
1.588173
1.591174
1.581236
1.582361
1.582361
1.578423
1.573923
1.57186
1.567173
1.574861
1.55911
1.56961
1.566235
1.56661
1.56661
1.570735
1.576173
1.584048
1.589674
1.587611
1.584986
1.578798
1.581798
1.579361
1.579361
1.573923
1.567548
1.561923
1.570173
1.581986
1.570173
1.566423
1.56436
1.56436
1.56961
1.575986
1.585923
1.586673
1.599986
1.582548
1.581986
1.583861
1.579361
1.579361
1.574861
1.564923
1.566423
1.572798
1.570548
1.57186
1.564735
1.566985
1.570923
1.570923
1.576173
1.582173
1.581611
1.586486
1.601674
1.581048
1.581236
1.577673
1.575798
1.575798
1.572048
1.569985
1.570173
1.570923
1.56361
1.567548
1.56736
1.569798
1.576173
1.576173
1.581236
1.583673
1.596611
1.587611
1.580111
1.582361
1.579923
1.575423
1.572235
1.572235
1.564923
1.559298
1.574861
1.578236
1.564923
1.564173
1.567735
1.574673
1.574673
1.582361
1.585173
1.590611
1.593986
1.579173
1.582736
1.581048
1.575236
1.56811
1.56811
1.561923
1.568673
1.573173
1.575986
1.565485
1.564923
1.570173
1.574298
1.584048
1.584048
1.582736
1.581236
1.584986
1.580673
1.581423
1.580673
1.575611
1.571673
1.567923
1.567923
1.570548
1.580298
1.56736
1.566235
1.567173
1.568673
1.573548
1.581048
1.584048
1.584048
1.596424
1.589674
1.581236
1.582548
1.579548
1.576736
1.57186
1.567923
1.567923
1.561548
1.563423
1.569048
1.56811
1.56436
1.569423
1.575611
1.584423
1.585548
1.585548
1.588923
1.598486
1.582361
1.579736
1.581423
1.576736
1.575048
1.563985
1.559673
1.559673
1.574861
1.574298
1.566423
1.567923
1.568485
1.575048
1.584798
1.584986
1.588548
1.588548
1.584611
1.578798
1.583298
1.581798
1.576736
1.570173
1.56286
1.569985
1.572423
1.572423
1.578423
1.566798
1.565673
1.56886
1.574298
1.582548
1.583861
1.585173
1.585173
1.597174
1.582361
1.581611
1.582173
1.576923
1.574111
1.570923
1.56736
1.571298
1.571298
1.566423
1.56811
1.565485
1.56811
1.573173
1.579548
1.583673
1.593236
1.593611
1.593611
1.585173
1.582548
1.581798
1.579173
1.573548
1.57036
1.56211
1.570735
1.573173
1.573173
1.567548
1.566423
1.569048
1.573923
1.580861
1.585736
1.588173
1.592674
1.581611
1.581611
1.582736
1.582361
1.579736
1.573735
1.568298
1.570173
1.567548
1.571298
1.566985
1.566985
1.56511
1.568298
1.574673
1.581423
1.584798
1.595674
1.587611
1.583673
1.583673
1.581423
1.582736
1.579173
1.573173
1.57036
1.561548
1.561735
1.576361
1.568298
1.568298
1.566985
1.568673
1.572798
1.583486
1.584986
1.585548
1.583486
1.588923
1.583298
1.583298
1.582736
1.579736
1.574486
1.569235
1.570173
1.56736
1.569798
1.567548
1.567173
1.567173
1.569985
1.573548
1.579361
1.584236
1.588923
1.593049
1.592486
1.581798
1.582736
1.582736
1.580111
1.574486
1.56511
1.56361
1.577111
1.577298
1.569985
1.566985
1.566985
1.566985
1.573923
1.581236
1.585923
1.593049
1.586673
1.583673
1.583111
1.583673
1.583673
1.581986
1.57261
1.563423
1.566048
1.580111
1.574673
1.57036
1.56586
1.567173
1.567173
1.571673
1.581611
1.586486
1.590049
1.581611
1.584423
1.583673
1.584798
1.581423
1.581423
1.575236
1.56811
1.567548
1.579361
1.559673
1.565298
1.567735
1.56811
1.572798
1.572798
1.578048
1.584048
1.585736
1.588548
1.588923
1.582361
1.584236
1.582361
1.574861
1.574861
1.572986
1.569423
1.56661
1.56961
1.57336
1.569423
1.569423
1.57186
1.57186
1.577298
1.584423
1.589111
1.591174
1.589674
1.582361
1.581048
1.576173
1.567923
1.564173
1.564173
1.576548
1.578611
1.572235
1.567548
1.567548
1.571673
1.577486
1.585923
1.584611
1.584611
1.584611
1.587236
1.581986
1.584798
1.582361
1.576173
1.571673
1.568673
1.567548
1.567548
1.583673
1.57336
1.566048
1.569985
1.571486
1.577673
1.583673
1.583861
1.583861
1.591549
1.591549
1.580861
1.583111
1.581798
1.577486
1.573735
1.57111
1.567173
1.567173
1.56886
1.56586
1.569798
1.567735
1.57111
1.575048
1.582361
1.584611
1.600924
1.600924
1.595299
1.583298
1.581423
1.580298
1.577486
1.574861
1.571298
1.570923
1.565673
1.565673
1.567923
1.568298
1.566798
1.570548
1.575423
1.583861
1.587799
1.589861
1.591174
1.591174
1.580298
1.582173
1.583861
1.576173
1.57336
1.571673
1.563423
1.570173
1.570173
1.576923
1.566235
1.566985
1.57111
1.574298
1.584611
1.585736
1.591549
1.595674
1.595674
1.580111
1.584423
1.582736
1.578048
1.570548
1.563423
1.57261
1.579361
1.570923
1.570923
1.569423
1.566048
1.57036
1.575236
1.584423
1.586298
1.588173
1.583111
1.580298
1.580298
1.584048
1.581236
1.577486
1.569048
1.566798
1.571298
1.577111
1.573923
1.56661
1.56661
1.567173
1.569048
1.574298
1.584611
1.584048
1.591549
1.599236
1.582548
1.582548
1.582736
1.581611
1.577486
1.571298
1.570923
1.567173
1.579173
1.566423
1.56811
1.56811
1.567173
1.56886
1.574861
1.582923
1.584236
1.596986
1.595299
1.583673
1.581236
1.581236
1.580486
1.576736
1.575611
1.566423
1.56061
1.574861
1.574673
1.568485
1.567735
1.567735
1.56961
1.573923
1.583298
1.588173
1.591924
1.586861
1.579548
1.582736
1.585173
1.585173
1.579173
1.572423
1.562298
1.562673
1.56661
1.578048
1.568298
1.566985
1.568485
1.568485
1.574111
1.580861
1.587048
1.590424
1.595486
1.577486
1.584048
1.584048
1.584048
1.578798
1.573923
1.563423
1.566423
1.576361
1.575423
1.567173
1.564923
1.569798
1.569798
1.575236
1.582548
1.584798
1.592486
1.585548
1.585173
1.582548
1.584236
1.579736
1.579736
1.572798
1.56886
1.569423
1.580861
1.580486
1.56811
1.567923
1.569048
1.573548
1.573548
1.580673
1.584798
1.588361
1.591174
1.589486
1.583111
1.584236
1.578986
1.575423
1.575423
1.570923
1.570735
1.57261
1.567173
1.57036
1.567173
1.569048
1.574111
1.574111
1.581048
1.586486
1.592299
1.591361
1.591736
1.582923
1.583861
1.580486
1.575048
1.575048
1.56811
1.561923
1.568298
1.582173
1.571298
1.566048
1.569048
1.57261
1.580111
1.580111
1.584986
1.587236
1.597174
1.584611
1.583673
1.583861
1.581423
1.575423
1.56511
1.56511
1.564548
1.576361
1.575048
1.56886
1.566798
1.567735
1.573173
1.580673
1.585736
1.585736
1.585173
1.581611
1.587048
1.582923
1.584423
1.581798
1.574861
1.569235
1.570173
1.570173
1.570548
1.586111
1.571298
1.567173
1.568298
1.57336
1.581048
1.584423
1.584423
1.584048
1.592111
1.587799
1.582736
1.583298
1.581423
1.578048
1.572235
1.571298
1.571298
1.572048
1.566048
1.568298
1.56886
1.569235
1.572798
1.579923
1.587799
1.589861
1.589861
1.587423
1.585173
1.581611
1.586298
1.582361
1.575611
1.572048
1.56436
1.566235
1.566235
1.580861
1.570173
1.567548
1.567923
1.572423
1.579736
1.588736
1.585923
1.590049
1.590049
1.586861
1.583861
1.585736
1.582361
1.575798
1.572986
1.572423
1.573923
1.574298
1.574298
1.568673
1.57036
1.567548
1.574861
1.579361
1.585361
1.583861
1.596799
1.596799
1.600549
1.583111
1.584236
1.583673
1.576923
1.574298
1.571298
1.572235
1.568298
1.568298
1.57036
1.570173
1.567548
1.572423
1.577673
1.586111
1.586486
1.599049
1.589674
1.589674
1.582923
1.582548
1.583861
1.579361
1.572423
1.571486
1.570923
1.569798
1.57261
1.57261
1.570735
1.569235
1.571486
1.575236
1.583861
1.590049
1.594736
1.595674
1.582173
1.582173
1.585923
1.585173
1.578798
1.570173
1.566423
1.574861
1.573173
1.577486
1.577486
1.569048
1.56736
1.570923
1.577486
1.587799
1.589111
1.584611
1.593611
1.582736
1.582736
1.583298
1.584798
1.578423
1.576361
1.572048
1.573735
1.565298
1.564735
1.570173
1.570173
1.568673
1.57111
1.576548
1.586111
1.588361
1.599986
1.593799
1.585548
1.584236
1.584236
1.581986
1.578611
1.574486
1.572048
1.574673
1.574486
1.572423
1.570173
1.570923
1.570923
1.572986
1.576548
1.584986
1.586861
1.591736
1.602237
1.581611
1.584423
1.584798
1.584798
1.580861
1.57336
1.564548
1.564548
1.575611
1.572048
1.568485
1.56886
1.56886
1.57036
1.574861
1.586673
1.588736
1.593799
1.592861
1.581798
1.585173
1.585173
1.585173
1.579736
1.573173
1.563985
1.568485
1.583298
1.575798
1.57036
1.569048
1.570548
1.570548
1.577111
1.585548
1.585923
1.586298
1.590611
1.587048
1.584236
1.584798
1.579361
1.579361
1.575986
1.570173
1.570548
1.573548
1.586673
1.569235
1.56961
1.571673
1.574861
1.574861
1.584048
1.586111
1.596049
1.589861
1.586298
1.584986
1.584611
1.580486
1.578611
1.578611
1.572423
1.565673
1.56886
1.572235
1.568485
1.570173
1.571298
1.574861
1.574861
1.581611
1.588923
1.592299
1.594174
1.590236
1.582736
1.582923
1.582173
1.576173
1.576173
1.570923
1.564173
1.573173
1.587236
1.570548
1.568673
1.570173
1.575986
1.583673
1.583673
1.586486
1.594174
1.584048
1.584048
1.585361
1.585548
1.581611
1.576361
1.563048
1.563048
1.570173
1.584236
1.574673
1.572235
1.56886
1.56886
1.575048
1.581798
1.585923
1.585923
1.588361
1.585736
1.590611
1.583486
1.585736
1.581048
1.577861
1.570923
1.572423
1.572423
1.581236
1.572048
1.568485
1.56961
1.57036
1.574486
1.583673
1.584798
1.584798
1.584986
1.599049
1.597549
1.584048
1.587611
1.580486
1.576361
1.573735
1.572798
1.572798
1.578611
1.575236
1.569423
1.569985
1.56961
1.575798
1.581423
1.583861
1.591924
1.591924
1.597736
1.590799
1.583486
1.585736
1.582923
1.577673
1.574298
1.56511
1.569235
1.569235
1.591736
1.574111
1.569985
1.56961
1.57186
1.581236
1.589111
1.589298
1.598486
1.598486
1.586111
1.583298
1.586486
1.582923
1.578986
1.569048
1.56736
1.575611
1.575611
1.581423
1.575986
1.570548
1.569235
1.574861
1.580673
1.589298
1.585923
1.589674
1.589674
1.597361
1.584986
1.587236
1.583486
1.576923
1.571298
1.573735
1.573173
1.575611
1.575611
1.56961
1.569985
1.56961
1.574111
1.579736
1.584423
1.587236
1.605049
1.594736
1.594736
1.585923
1.584798
1.584986
1.578798
1.574486
1.573548
1.567735
1.578986
1.580861
1.580861
1.570735
1.57111
1.575798
1.579361
1.587048
1.589674
1.592486
1.589674
1.584611
1.584611
1.586673
1.585173
1.580298
1.571298
1.565673
1.578986
1.583298
1.575986
1.575986
1.569423
1.567923
1.573173
1.579173
1.589674
1.588361
1.593236
1.586298
1.584048
1.584048
1.586111
1.584611
1.579736
1.57036
1.567923
1.576923
1.577111
1.573923
1.56886
1.56886
1.569235
1.573923
1.579173
1.588173
1.586673
1.592299
1.600549
1.586861
1.584236
1.584236
1.584236
1.580111
1.572423
1.56811
1.565485
1.576923
1.570735
1.57186
1.572986
1.578986
1.578986
1.585548
1.590424
1.590611
1.595486
1.579736
1.585548
1.585361
1.580298
1.573173
1.573173
1.56436
1.56961
1.577861
1.575798
1.571673
1.56886
1.573173
1.578611
1.578611
1.590986
1.587048
1.585923
1.600736
1.585361
1.585173
1.585361
1.578986
1.575611
1.575611
1.57261
1.57186
1.587611
1.573548
1.571673
1.569985
1.572986
1.576548
1.585173
1.585173
1.586486
1.598111
1.591549
1.587799
1.586486
1.586861
1.581048
1.578611
1.570923
1.570923
1.564735
1.576736
1.583673
1.572235
1.569798
1.572235
1.578048
1.587986
1.589111
1.589111
1.593424
1.597924
1.585173
1.586486
1.587423
1.582361
1.576736
1.565485
1.570735
1.570735
1.578611
1.581611
1.570735
1.570548
1.571486
1.577861
1.587423
1.590424
1.590424
1.590049
1.590236
1.591174
1.587799
1.587986
1.581048
1.577486
1.572798
1.57336
1.57336
1.575611
1.586111
1.569985
1.570173
1.57186
1.577861
1.586298
1.587423
1.589861
1.589861
1.599799
1.587423
1.586111
1.587236
1.583486
1.580486
1.574486
1.57261
1.567735
1.567735
1.569985
1.572986
1.57111
1.57261
1.577298
1.585923
1.589111
1.598486
1.592861
1.592861
1.591736
1.586486
1.587799
1.583673
1.578986
1.57336
1.567923
1.569235
1.569235
1.587799
1.572235
1.570548
1.571298
1.576361
1.584986
1.592111
1.590799
1.598861
1.598861
1.587799
1.585923
1.588923
1.582548
1.578048
1.566798
1.56736
1.582923
1.582173
1.582173
1.572798
1.571486
1.57261
1.576923
1.584611
1.590799
1.593986
1.591361
1.584986
1.584986
1.585548
1.589298
1.582736
1.577486
1.56736
1.57261
1.577111
1.579173
1.57336
1.57336
1.57036
1.570548
1.576736
1.583298
1.589674
1.594361
1.589861
1.587048
1.587048
1.586298
1.586486
1.584798
1.578423
1.570173
1.57111
1.579736
1.563423
1.569048
1.569048
1.571486
1.570548
1.577861
1.583486
1.586861
1.592486
1.596986
1.592486
1.586861
1.586861
1.587986
1.584798
1.582548
1.577111
1.568298
1.56736
1.575986
1.578236
1.57111
1.57111
1.571673
1.576736
1.581798
1.588736
1.595674
1.599799
1.594736
1.587799
1.587236
1.587236
1.585736
1.579173
1.577861
1.568485
1.57036
1.583486
1.577111
1.57261
1.570735
1.570735
1.575986
1.584423
1.590049
1.591174
1.594924
1.587799
1.586861
1.588736
1.588736
1.585361
1.580298
1.571298
1.56661
1.578423
1.581423
1.577673
1.571486
1.572986
1.572986
1.577486
1.581423
1.590799
1.589111
1.588548
1.597549
1.586298
1.588923
1.587423
1.587423
1.580861
1.576361
1.573923
1.579173
1.575423
1.571673
1.573548
1.572048
1.574673
1.574673
1.582923
1.589111
1.589486
1.596799
1.595299
1.587236
1.587986
1.585548
1.581236
1.581236
1.575611
1.57336
1.573548
1.576548
1.584423
1.572986
1.572048
1.574298
1.578986
1.578986
1.588923
1.590049
1.589861
1.596799
1.585923
1.587236
1.587611
1.582736
1.582736
1.578611
1.572986
1.567923
1.578236
1.578423
1.57186
1.57186
1.575048
1.582361
1.582361
1.592486
1.591174
1.603362
1.587611
1.587048
1.587048
1.587799
1.584423
1.575236
1.575236
1.573173
1.575986
1.578423
1.579736
1.573548
1.57111
1.575423
1.578986
1.590799
1.590799
1.591361
1.598299
1.590236
1.586861
1.588173
1.588173
1.584798
1.576361
1.577298
1.577298
1.575236
1.590611
1.575611
1.574486
1.57186
1.574111
1.580298
1.590049
1.588173
1.588173
1.592486
1.592674
1.588548
1.588548
1.587048
1.584798
1.579736
1.576548
1.576548
1.572235
1.573173
1.578611
1.574111
1.572235
1.573548
1.579736
1.590986
1.590611
1.590611
1.597736
1.600549
1.585548
1.588736
1.588361
1.584236
1.580298
1.56811
1.568673
1.568673
1.592861
1.580861
1.574298
1.570548
1.573923
1.580298
1.591174
1.593611
1.602049
1.602049
1.597549
1.585923
1.589111
1.588361
1.586673
1.577861
1.570173
1.570548
1.585173
1.585173
1.578986
1.574861
1.57261
1.575611
1.579923
1.589298
1.591361
1.589486
1.602799
1.602799
1.594361
1.589861
1.590049
1.585548
1.581048
1.573923
1.576173
1.576361
1.576361
1.571298
1.57336
1.57261
1.574486
1.579923
1.589861
1.591924
1.596986
1.595486
1.595486
1.589674
1.590799
1.590986
1.586298
1.581048
1.579548
1.575986
1.571298
1.583111
1.583111
1.577111
1.572986
1.573735
1.577298
1.587423
1.591361
1.598486
1.597361
1.594736
1.594736
1.589298
1.589111
1.586111
1.582736
1.575423
1.570173
1.580111
1.583673
1.575048
1.575048
1.573173
1.573923
1.581611
1.587986
1.593799
1.597174
1.596236
1.588173
1.588173
1.590424
1.590424
1.587611
1.581986
1.571486
1.574486
1.578986
1.574673
1.574861
1.574861
1.573548
1.57261
1.579548
1.590799
1.591549
1.597924
1.586861
1.591174
1.591736
1.591736
1.590424
1.587799
1.581048
1.574673
1.576548
1.575423
1.578236
1.57336
1.574861
1.574861
1.574486
1.581798
1.586298
1.590049
1.588548
1.605049
1.593424
1.589298
1.592111
1.592111
1.587423
1.582923
1.578048
1.575986
1.581611
1.572798
1.574486
1.574673
1.576173
1.576173
1.579923
1.586486
1.588361
1.596611
1.602237
1.594924
1.589486
1.591361
1.591361
1.588361
1.583486
1.577111
1.569423
1.577298
1.589674
1.575798
1.574673
1.573735
1.573735
1.580111
1.588736
1.593236
1.595861
1.594174
1.587423
1.591361
1.593424
1.588361
1.588361
1.583111
1.57111
1.571486
1.575048
1.577486
1.579361
1.574298
1.573173
1.579736
1.579736
1.584423
1.593424
1.590611
1.587048
1.592674
1.589861
1.591361
1.589674
1.582923
1.582923
1.579548
1.576548
1.575048
1.584798
1.571298
1.576548
1.574298
1.580298
1.580298
1.584798
1.595299
1.592674
1.606362
1.601674
1.588173
1.591361
1.589298
1.584986
1.584986
1.579173
1.578048
1.575048
1.578048
1.578798
1.575048
1.574298
1.577486
1.583673
1.583673
1.590611
1.596236
1.600736
1.594174
1.588548
1.589298
1.588923
1.584611
1.577298
1.577298
1.56961
1.571298
1.593424
1.578611
1.575423
1.573173
1.577486
1.584048
1.593611
1.593611
1.591736
1.588361
1.589486
1.589111
1.591924
1.590424
1.582548
1.578611
1.578611
1.575236
1.576923
1.580486
1.585361
1.573548
1.575048
1.577486
1.583486
1.594736
1.594736
1.593799
1.591736
1.601861
1.590799
1.590986
1.588548
1.583861
1.580298
1.578048
1.578048
1.581986
1.568673
1.574861
1.575048
1.573923
1.577298
1.581611
1.590986
1.593236
1.593236
1.590611
1.600361
1.589486
1.590236
1.589486
1.585548
1.580298
1.578236
1.579361
1.579361
1.576361
1.575986
1.576173
1.574298
1.578798
1.582173
1.590799
1.592674
1.600361
1.600361
1.603924
1.590611
1.590236
1.589486
1.586486
1.582736
1.572423
1.57036
1.57036
1.579736
1.579923
1.576173
1.575048
1.575798
1.582361
1.591924
1.593611
1.600174
1.600174
1.598486
1.590236
1.591549
1.591174
1.587048
1.577486
1.571673
1.574111
1.582923
1.582923
1.581236
1.576173
1.573735
1.575423
1.581986
1.593799
1.592111
1.594924
1.590611
1.590611
1.590236
1.592111
1.592111
1.588173
1.578236
1.573548
1.578986
1.584236
1.574673
1.575048
1.575048
1.575423
1.582361
1.590799
1.591174
1.595299
1.599986
1.593049
1.593424
1.590986
1.590986
1.585548
1.583486
1.577673
1.578236
1.583111
1.576173
1.575798
1.573923
1.573923
1.576361
1.581423
1.590611
1.592674
1.594174
1.607487
1.594549
1.591549
1.590799
1.590799
1.589111
1.584423
1.578798
1.573173
1.579173
1.582923
1.577298
1.576173
1.576548
1.576548
1.580861
1.591361
1.593799
1.595674
1.590986
1.591924
1.593049
1.594549
1.587423
1.587423
1.582923
1.57036
1.574298
1.582173
1.582361
1.575986
1.575423
1.575611
1.581986
1.581986
1.588923
1.592861
1.590049
1.596611
1.595486
1.591924
1.591924
1.588173
1.588173
1.584423
1.576548
1.577861
1.577861
1.575798
1.576736
1.575798
1.577298
1.580486
1.580486
1.590049
1.592674
1.601111
1.600174
1.592486
1.590424
1.591361
1.590611
1.583673
1.583673
1.579736
1.572048
1.576173
1.593424
1.577111
1.574298
1.574861
1.579923
1.589298
1.589298
1.593799
1.593799
1.595299
1.590799
1.590049
1.592299
1.589674
1.583486
1.570173
1.570173
1.574673
1.585736
1.581986
1.579736
1.574111
1.575423
1.580298
1.590049
1.593424
1.593424
1.590236
1.597174
1.604299
1.591174
1.592299
1.591736
1.583111
1.580861
1.580861
1.576736
1.578423
1.577111
1.575236
1.573173
1.574861
1.578611
1.589298
1.593611
1.593611
1.592861
1.603362
1.602799
1.590424
1.591549
1.588923
1.585548
1.581986
1.578986
1.578986
1.571673
1.577486
1.579361
1.575236
1.575798
1.580111
1.586861
1.593799
1.597736
1.597736
1.596049
1.587986
1.591361
1.592299
1.591361
1.583861
1.575423
1.570735
1.585923
1.585923
1.591361
1.579548
1.576736
1.575611
1.577861
1.585923
1.595299
1.595486
1.595486
1.600736
1.586861
1.591361
1.592486
1.591361
1.584798
1.577111
1.575611
1.579361
1.579361
1.583673
1.576736
1.575236
1.573923
1.578798
1.585548
1.593236
1.593424
1.598299
1.598299
1.594736
1.590049
1.592486
1.590611
1.586298
1.581611
1.575423
1.56736
1.585361
1.585361
1.583861
1.576173
1.574673
1.577111
1.584423
1.594736
1.592299
1.600361
1.590799
1.590799
1.590611
1.592111
1.590236
1.584611
1.577486
1.576923
1.57336
1.582923
1.576548
1.576548
1.575236
1.575423
1.578798
1.583673
1.592674
1.592861
1.602049
1.605799
1.589674
1.589674
1.591549
1.589486
1.584798
1.580861
1.572986
1.571673
1.581986
1.584048
1.584048
1.576923
1.574298
1.577111
1.581236
1.594361
1.592111
1.597174
1.599799
1.587986
1.587986
1.591924
1.590049
1.585923
1.583673
1.570548
1.572423
1.587236
1.581423
1.575798
1.575798
1.574861
1.577861
1.583486
1.593986
1.593799
1.591549
1.603924
1.590049
1.590799
1.590799
1.591174
1.585923
1.580673
1.580111
1.576736
1.579923
1.57186
1.575048
1.574673
1.574673
1.577298
1.581423
1.590236
1.592486
1.596236
1.594736
1.589486
1.591549
1.591549
1.590799
1.586486
1.581798
1.579173
1.578798
1.575423
1.575611
1.575048
1.574861
1.574861
1.578798
1.582361
1.590424
1.593611
1.596424
1.602049
1.587048
1.591549
1.591549
1.591549
1.587799
1.579923
1.569048
1.572048
1.585548
1.580111
1.576548
1.573923
1.577861
1.577861
1.582361
1.592486
1.592111
1.595299
1.593611
1.593799
1.592486
1.591549
1.587611
1.587611
1.580486
1.576548
1.578236
1.581611
1.580111
1.575236
1.575423
1.576923
1.576923
1.581423
1.589111
1.591736
1.595486
1.602049
1.594736
1.590986
1.589298
1.586861
1.586861
1.584611
1.578236
1.576923
1.575423
1.575423
1.575423
1.574111
1.575611
1.581423
1.581423
1.589674
1.593986
1.596986
1.598674
1.593799
1.590986
1.590799
1.587986
1.583673
1.583673
1.578611
1.57186
1.573735
1.590799
1.576736
1.575048
1.575986
1.579361
1.587236
1.587236
1.592486
1.597736
1.594924
1.595299
1.590049
1.591361
1.587611
1.582548
1.577673
1.577673
1.568673
1.57186
1.579736
1.577486
1.575048
1.575048
1.580298
1.589111
1.589111
1.594736
1.594736
1.598486
1.583111
1.589861
1.590799
1.588923
1.582923
1.569798
1.569798
1.575986
1.578798
1.579173
1.573548
1.575423
1.575236
1.581048
1.590049
1.593236
1.593236
1.589674
1.593424
1.587611
1.590049
1.592486
1.586298
1.583111
1.579361
1.576736
1.576736
1.583111
1.571673
1.575236
1.574298
1.574111
1.578798
1.585173
1.591361
1.598486
1.598486
1.604111
1.592486
1.587611
1.591361
1.588361
1.585173
1.578798
1.577111
1.577111
1.575048
1.577673
1.581611
1.574673
1.575611
1.578986
1.585361
1.589486
1.598299
1.598299
1.598111
1.599049
1.589298
1.590236
1.589486
1.583298
1.578611
1.57261
1.572423
1.572423
1.594361
1.578986
1.573735
1.575423
1.578423
1.585923
1.594549
1.593236
1.603362
1.603362
1.586298
1.588923
1.593236
1.588361
1.583673
1.571486
1.571486
1.581986
1.583486
1.583486
1.579548
1.575048
1.574298
1.578236
1.586673
1.592674
1.593799
1.592674
1.596611
1.596611
1.590236
1.592299
1.588548
1.582923
1.578236
1.580298
1.575236
1.583486
1.583486
1.57186
1.575048
1.575798
1.578798
1.582361
1.590799
1.593049
1.594361
1.601111
1.601111
1.589861
1.591924
1.588548
1.584986
1.578611
1.568485
1.573173
1.581798
1.580673
1.580673
1.574861
1.574111
1.577298
1.585548
1.591924
1.591361
1.588173
1.593799
1.589486
1.589486
1.592111
1.589861
1.584048
1.578611
1.575798
1.579923
1.576173
1.573735
1.575986
1.575986
1.572986
1.576923
1.581611
1.590236
1.593986
1.590799
1.591549
1.586111
1.586111
1.591361
1.590799
1.585923
1.575986
1.572235
1.579923
1.579923
1.575611
1.573923
1.573923
1.574111
1.576173
1.581798
1.590611
1.592111
1.589486
1.594924
1.588361
1.590424
1.590424
1.587423
1.584611
1.580861
1.578048
1.570173
1.571486
1.581048
1.574111
1.575236
1.575236
1.575798
1.580298
1.592111
1.595674
1.594924
1.596611
1.587611
1.590049
1.589111
1.589111
1.584986
1.577111
1.575611
1.578986
1.572235
1.569048
1.575048
1.573548
1.573548
1.577298
1.580298
1.590986
1.588736
1.602049
1.606924
1.588361
1.589486
1.588736
1.588736
1.586861
1.581611
1.577673
1.56811
1.580111
1.582361
1.574486
1.572235
1.575986
1.575986
1.580673
1.592111
1.591736
1.595486
1.590799
1.589111
1.590424
1.590049
1.586298
1.586298
1.579361
1.569235
1.578236
1.580486
1.589298
1.572798
1.57336
1.575048
1.580298
1.580298
1.589298
1.591736
1.591174
1.608799
1.593049
1.590424
1.589486
1.585548
1.583298
1.583298
1.577111
1.573923
1.570548
1.575048
1.574486
1.573548
1.573173
1.579173
1.579173
1.588173
1.590424
1.596611
1.600174
1.597736
1.589111
1.590799
1.586486
1.579736
1.579736
1.567923
1.570173
1.587799
1.581236
1.573923
1.572798
1.57336
1.581048
1.590424
1.590424
1.593986
1.592486
1.585548
1.590986
1.589861
1.589486
1.585736
1.580111
1.573548
1.573548
1.575611
1.580861
1.591924
1.573735
1.571673
1.573548
1.580298
1.586673
1.590986
1.590986
1.591174
1.595111
1.589486
1.589486
1.589861
1.587048
1.579361
1.573923
1.573923
1.574861
1.576361
1.576923
1.573173
1.575236
1.579173
1.586298
1.591174
1.596986
1.595111
1.595111
1.593424
1.587986
1.590049
1.587236
1.581798
1.575798
1.569423
1.578611
1.581798
1.581798
1.575986
1.573923
1.575798
1.578986
1.585548
1.593986
1.593986
1.597361
1.597361
1.587986
1.585923
1.588923
1.587423
1.581423
1.569235
1.573173
1.580861
1.581986
1.581986
1.574298
1.572798
1.57261
1.578236
1.585736
1.589674
1.589861
1.597174
1.600549
1.600549
1.588923
1.589111
1.584986
1.582173
1.580298
1.576736
1.583111
1.570173
1.577861
1.577861
1.572986
1.573548
1.576736
1.584611
1.591361
1.591924
1.598299
1.590049
1.588173
1.588173
1.588736
1.586486
1.583861
1.577861
1.57261
1.569798
1.594736
1.577861
1.572798
1.572798
1.572986
1.577861
1.585361
1.593049
1.592299
1.603736
1.586298
1.589298
1.589298
1.592111
1.587236
1.583298
1.572798
1.573548
1.578986
1.577673
1.574111
1.57261
1.57261
1.573548
1.577298
1.584611
1.592486
1.590424
1.594361
1.603924
1.587611
1.590799
1.590799
1.588173
1.582923
1.578611
1.576548
1.579923
1.575986
1.576548
1.574486
1.57261
1.57261
1.576173
1.581986
1.588173
1.594549
1.593049
1.590236
1.587611
1.589674
1.588736
1.588736
1.583861
1.577298
1.57036
1.577673
1.590049
1.576923
1.573923
1.570735
1.570735
1.576923
1.584048
1.591174
1.591924
1.589111
1.606549
1.588173
1.588736
1.588548
1.588548
1.584423
1.578048
1.577673
1.582736
1.579736
1.57336
1.575423
1.573735
1.575986
1.575986
1.581611
1.588923
1.592674
1.604299
1.593611
1.589674
1.589486
1.589111
1.584048
1.584048
1.578423
1.576173
1.56961
1.579361
1.581798
1.573173
1.573173
1.575423
1.581048
1.581048
1.591361
1.592486
1.604299
1.591361
1.586673
1.590049
1.590986
1.584423
1.576548
1.576548
1.569985
1.576173
1.579173
1.576548
1.57336
1.571486
1.575986
1.579736
1.579736
1.592111
1.590799
1.587986
1.602611
1.590424
1.587423
1.588548
1.584423
1.579548
1.579548
1.575798
1.575986
1.577111
1.572235
1.573735
1.573173
1.576548
1.580486
1.590236
1.590236
1.590049
1.595111
1.600174
1.590611
1.590236
1.589486
1.584423
1.581423
1.572798
1.572798
1.566235
1.579548
1.585173
1.573548
1.571673
1.574298
1.581048
1.593986
1.594549
1.594549
1.599236
1.586673
1.587236
1.589861
1.589298
1.584798
1.578236
1.572048
1.575986
1.575986
1.581986
1.581423
1.573173
1.573173
1.575986
1.578611
1.589298
1.589674
1.589674
1.600924
1.596236
1.592299
1.590424
1.590049
1.585736
1.583298
1.575423
1.572986
1.572986
1.573173
1.581611
1.574486
1.573735
1.573173
1.578048
1.590799
1.592111
1.604861
1.604861
1.581236
1.588361
1.588923
1.589861
1.586111
1.578611
1.574861
1.577111
1.579173
1.579173
1.584798
1.574486
1.57336
1.574298
1.577673
1.585548
1.591361
1.595299
1.598861
1.598861
1.589111
1.590049
1.588923
1.587236
1.581236
1.575048
1.569048
1.568298
1.568298
1.584048
1.574486
1.571673
1.575236
1.580111
1.588923
1.593611
1.591174
1.594924
1.594924
1.586298
1.587799
1.587799
1.587423
1.580298
1.57111
1.574111
1.580111
1.577673
1.577673
1.572986
1.571486
1.575798
1.578423
1.587236
1.591361
1.591549
1.589486
1.589111
1.589111
1.588923
1.590799
1.586861
1.581611
1.573923
1.576548
1.577673
1.583861
1.573923
1.573923
1.573548
1.575048
1.579173
1.587423
1.590236
1.589486
1.597549
1.598861
1.588361
1.588361
1.589298
1.587236
1.581236
1.576361
1.575423
1.583673
1.578423
1.573923
1.573923
1.572423
1.574861
1.576923
1.587986
1.590049
1.594549
1.611237
1.589861
1.590799
1.590799
1.590611
1.587611
1.582923
1.578798
1.571673
1.572235
1.580111
1.579736
1.572048
1.572048
1.57261
1.578236
1.584048
1.592299
1.594924
1.603736
1.589674
1.588361
1.591736
1.591736
1.587986
1.583111
1.570735
1.569235
1.581986
1.581423
1.576923
1.573548
1.573735
1.573735
1.578236
1.584986
1.592486
1.589861
1.591361
1.596611
1.588173
1.591174
1.591174
1.587986
1.584423
1.579361
1.575986
1.585923
1.576548
1.573735
1.574298
1.572986
1.572986
1.576736
1.583861
1.590799
1.590424
1.597361
1.595299
1.588173
1.589486
1.587986
1.587986
1.584798
1.579548
1.575423
1.569985
1.584236
1.583673
1.574673
1.573548
1.578423
1.578423
1.582361
1.590799
1.593049
1.599986
1.605236
1.587423
1.589674
1.589486
1.583298
1.583298
1.574861
1.570173
1.578236
1.583861
1.578798
1.572986
1.573173
1.577298
1.577298
1.582548
1.591549
1.591924
1.588548
1.594924
1.588173
1.590236
1.588361
1.582736
1.582736
1.580486
1.578611
1.577673
1.575986
1.57336
1.573548
1.573735
1.578048
1.581798
1.581798
1.592111
1.591736
1.593611
1.600924
1.587423
1.589486
1.588548
1.584986
1.577111
1.577111
1.570548
1.576548
1.585361
1.576923
1.575048
1.572235
1.579173
1.580861
1.590236
1.590236
1.590799
1.586298
1.595486
1.589298
1.589674
1.587986
1.583111
1.579361
1.575798
1.575798
1.570173
1.575986
1.57336
1.574486
1.572798
1.575048
1.579548
1.584236
1.584236
1.591361
1.600549
1.596611
1.587048
1.589298
1.590049
1.584798
1.576548
1.56886
1.56886
1.576548
1.580861
1.577111
1.574298
1.572423
1.575798
1.580111
1.590611
1.589674
1.589674
1.587986
1.597174
1.589674
1.589674
1.588923
1.584423
1.581986
1.577673
1.577486
1.577486
1.573735
1.572423
1.574673
1.57336
1.574673
1.578798
1.587048
1.591549
1.602237
1.602237
1.596236
1.590611
1.588173
1.591361
1.585736
1.580861
1.571673
1.56811
1.56811
1.576548
1.578236
1.575423
1.57336
1.575048
1.580111
1.591174
1.592486
1.597924
1.597924
1.593986
1.586861
1.589111
1.589111
1.586673
1.578986
1.573923
1.576923
1.585548
1.585548
1.575798
1.573173
1.57186
1.573923
1.579173
1.584798
1.590986
1.597736
1.597549
1.597549
1.586861
1.589486
1.589674
1.585736
1.580861
1.57261
1.567548
1.580861
1.590049
1.590049
1.575423
1.573173
1.574298
1.578798
1.587986
1.592486
1.592674
1.595486
1.595486
1.587423
1.588361
1.590049
1.586486
1.580111
1.569235
1.574486
1.586486
1.586673
1.586673
1.575236
1.57186
1.57336
1.577298
1.589298
1.592861
1.586298
1.587423
1.587799
1.587799
1.589298
1.590799
1.585548
1.581236
1.576173
1.575048
1.586486
1.566423
1.573923
1.573923
1.572048
1.573548
1.578423
1.582923
1.589298
1.595674
1.597174
1.593986
1.586298
1.586298
1.588736
1.587611
1.580673
1.575798
1.56811
1.571673
1.586861
1.576736
1.572235
1.572235
1.572048
1.575986
1.585923
1.589861
1.597174
1.596236
1.581986
1.587611
1.587611
1.589674
1.586861
1.580673
1.570548
1.569985
1.581611
1.578986
1.576548
1.571673
1.571673
1.57186
1.577673
1.586111
1.590799
1.592861
1.588548
1.595299
1.588736
1.591361
1.591361
1.585361
1.580111
1.575798
1.575236
1.578986
1.575798
1.571486
1.570923
1.571673
1.571673
1.575611
1.583298
1.587611
1.590049
1.598299
1.593611
1.587423
1.586861
1.586111
1.586111
1.581798
1.576173
1.568485
1.566985
1.581236
1.576923
1.571298
1.57336
1.57336
1.581986
1.591924
1.592674
1.598111
1.587611
1.587799
1.588548
1.586861
1.579736
1.570173
1.570173
1.571486
1.578236
1.588548
1.573923
1.570923
1.57111
1.574861
1.581798
1.589861
1.589861
1.588173
1.588736
1.590611
1.586861
1.589111
1.585923
1.581986
1.577298
1.575423
1.575423
1.571673
1.572986
1.577861
1.573173
1.569985
1.574298
1.579361
1.589674
1.590986
1.590986
1.591549
1.595486
1.587986
1.588736
1.586861
1.580486
1.573735
1.56886
1.573173
1.573173
1.580298
1.582548
1.570548
1.569985
1.574486
1.581798
1.591549
1.589486
1.589486
1.586486
1.592111
1.585548
1.588548
1.586861
1.580298
1.576548
1.576736
1.575236
1.575236
1.583111
1.569423
1.572986
1.571486
1.574486
1.577673
1.588361
1.588361
1.592111
1.592111
1.598299
1.584236
1.585923
1.586486
1.582736
1.576736
1.57186
1.566798
1.582173
1.582173
1.575611
1.571486
1.570548
1.571673
1.577298
1.590236
1.589674
1.595111
1.588361
1.588361
1.585736
1.588736
1.586673
1.581423
1.572798
1.571298
1.57186
1.569423
1.569423
1.574298
1.570548
1.570173
1.572423
1.578798
1.588173
1.587048
1.593611
1.607487
1.607487
1.585361
1.587799
1.585548
1.582736
1.577673
1.573173
1.57036
1.566985
1.575236
1.575236
1.570548
1.569985
1.57261
1.577111
1.587986
1.589486
1.590799
1.589486
1.583486
1.583486
1.585736
1.586486
1.581611
1.578048
1.56736
1.56586
1.581048
1.578798
1.570735
1.570735
1.569985
1.57036
1.576361
1.590049
1.586861
1.584423
1.593236
1.587611
1.586673
1.586673
1.586111
1.583111
1.576361
1.570548
1.572235
1.580861
1.57186
1.57036
1.568673
1.568673
1.570923
1.576173
1.586298
1.587048
1.591736
1.591174
1.587986
1.585923
1.585923
1.586861
1.581048
1.577486
1.563423
1.568485
1.585548
1.582736
1.57111
1.56886
1.56886
1.570923
1.574111
1.584986
1.588923
1.586486
1.587799
1.583673
1.584798
1.585361
1.585361
1.581798
1.574673
1.56886
1.57036
1.575798
1.57261
1.567173
1.568673
1.56886
1.56886
1.573923
1.581236
1.584423
1.591736
1.595486
1.587611
1.583673
1.585548
1.581986
1.581986
1.577298
1.56961
1.564923
1.579923
1.582173
1.569798
1.567735
1.569048
1.569048
1.575048
1.584423
1.589486
1.589674
1.588361
1.584423
1.586298
1.585173
1.581423
1.581423
1.576548
1.56811
1.571486
1.572798
1.581423
1.56961
1.567735
1.568298
1.572986
1.572986
1.580673
1.584611
1.587048
1.592111
1.587048
1.583111
1.584986
1.582736
1.578048
1.578048
1.573173
1.57111
1.566235
1.567735
1.572423
1.568298
1.56661
1.571486
1.579923
1.579923
1.587799
1.589111
1.584048
1.581611
1.583486
1.585736
1.582173
1.575798
1.56661
1.56661
1.570173
1.576548
1.581048
1.56886
1.56661
1.568673
1.572048
1.581236
1.581236
1.584236
1.584048
1.592111
1.593424
1.581611
1.582548
1.581423
1.576923
1.574111
1.574111
1.569235
1.56736
1.569423
1.57036
1.567923
1.56736
1.57111
1.575048
1.585923
1.585923
1.587799
1.591174
1.589861
1.581611
1.582736
1.582736
1.576548
1.56586
1.564735
1.564735
1.565298
1.570923
1.56961
1.566798
1.567173
1.57111
1.577298
1.584986
1.582923
1.582923
1.586298
1.589111
1.581986
1.582173
1.581423
1.576923
1.572235
1.569235
1.569235
1.574486
1.567923
1.568673
1.56661
1.566423
1.568673
1.575423
1.584236
1.584236
1.584236
1.588361
1.593799
1.581236
1.581986
1.581798
1.577298
1.573735
1.56361
1.566048
1.566048
1.577111
1.570735
1.56736
1.565485
1.569423
1.577298
1.584236
1.583673
1.583861
1.583861
1.581798
1.582173
1.581986
1.580861
1.576548
1.57036
1.570173
1.570548
1.56736
1.56736
1.564173
1.565673
1.566423
1.568673
1.575048
1.584611
1.581798
1.585173
1.585173
1.587423
1.581611
1.583298
1.581611
1.577486
1.570923
1.56886
1.56886
1.564923
1.564923
1.572235
1.566798
1.565673
1.567735
1.572235
1.581986
1.586673
1.593049
1.578611
1.578611
1.580861
1.581236
1.582173
1.575986
1.567735
1.562298
1.564923
1.573548
1.568485
1.568485
1.566985
1.566235
1.56886
1.573735
1.582173
1.582548
1.588923
1.592861
1.580861
1.580861
1.581611
1.581048
1.577673
1.571298
1.570548
1.563798
1.565673
1.56961
1.569235
1.569235
1.565298
1.566048
1.574486
1.583298
1.585548
1.583486
1.584048
1.578798
1.578798
1.581236
1.582548
1.576548
1.56886
1.565485
1.569985
1.56661
1.565485
1.564548
1.564548
1.564923
1.567735
1.57336
1.581423
1.581611
1.584048
1.588736
1.581048
1.581048
1.581048
1.581611
1.576548
1.574861
1.568298
1.561923
1.565485
1.581236
1.564735
1.564735
1.564735
1.565485
1.571673
1.581423
1.583861
1.593236
1.587048
1.577486
1.580861
1.581611
1.581611
1.576548
1.57186
1.56136
1.565298
1.574861
1.575611
1.565673
1.564173
1.564173
1.565298
1.570548
1.579923
1.581986
1.583298
1.596049
1.585173
1.581986
1.580298
1.580298
1.578236
1.574486
1.56811
1.565485
1.565673
1.569048
1.565298
1.56511
1.567173
1.567173
1.57186
1.577861
1.581423
1.586486
1.595486
1.583111
1.580486
1.578986
1.578611
1.578611
1.573923
1.56136
1.561173
1.580673
1.57111
1.566423
1.563235
1.56661
1.570735
1.570735
1.580111
1.583673
1.580111
1.581798
1.580486
1.582173
1.580486
1.577486
1.57186
1.57186
1.565298
1.566985
1.575986
1.577673
1.563423
1.56586
1.56586
1.570735
1.570735
1.577298
1.581236
1.583861
1.589486
1.585736
1.579361
1.581423
1.579923
1.574298
1.574298
1.569048
1.562485
1.570548
1.575236
1.56811
1.562673
1.56586
1.567923
1.578611
1.578611
1.584048
1.585923
1.588548
1.577673
1.579736
1.582361
1.578611
1.574673
1.559673
1.559673
1.565485
1.573735
1.575986
1.567735
1.56436
1.564548
1.569048
1.577861
1.581611
1.581611
1.581798
1.588361
1.591924
1.580861
1.581048
1.578236
1.575236
1.56811
1.56811
1.56736
1.568485
1.562298
1.565298
1.565298
1.56361
1.569235
1.577111
1.580673
1.580673
1.584798
1.590986
1.592111
1.578236
1.581798
1.579736
1.575048
1.570735
1.560048
1.560048
1.567173
1.576361
1.565673
1.56436
1.563985
1.567735
1.577486
1.583861
1.585361
1.585361
1.586298
1.582361
1.579923
1.584048
1.580111
1.574861
1.566423
1.569423
1.575611
1.575611
1.571298
1.566048
1.564173
1.56661
1.568298
1.576736
1.584423
1.583298
1.587611
1.587611
1.592299
1.580298
1.580861
1.578986
1.574298
1.569985
1.568485
1.560798
1.560798
1.561548
1.573548
1.566985
1.562673
1.56886
1.575798
1.582361
1.587611
1.586486
1.586486
1.588173
1.577673
1.581423
1.580486
1.574673
1.563985
1.564548
1.571298
1.566235
1.566235
1.56736
1.565298
1.565298
1.569048
1.574111
1.583486
1.580861
1.585548
1.596799
1.596799
1.580111
1.580861
1.578986
1.574486
1.57186
1.568298
1.563798
1.562298
1.568485
1.568485
1.565673
1.565298
1.567173
1.573548
1.581798
1.584236
1.587048
1.599049
1.599049
1.577673
1.582736
1.580673
1.577486
1.568673
1.562298
1.564548
1.574673
1.569235
1.569235
1.566235
1.563048
1.567173
1.57336
1.582548
1.579173
1.589111
1.580486
1.583111
1.580861
1.580861
1.578048
1.568485
1.56736
1.568673
1.575423
1.572423
1.56511
1.565673
1.565673
1.56886
1.572423
1.582361
1.582548
1.582361
1.587423
1.580861
1.580486
1.580486
1.580486
1.577673
1.572986
1.569235
1.560985
1.578423
1.573548
1.567548
1.564548
1.565485
1.565485
1.57261
1.584236
1.585548
1.588923
1.577298
1.582361
1.582548
1.581611
1.577486
1.577486
1.569235
1.563423
1.569798
1.571298
1.580111
1.566798
1.564735
1.566985
1.57336
1.57336
1.582548
1.584611
1.583111
1.588923
1.581798
1.582361
1.582923
1.578423
1.578423
1.573923
1.567548
1.56961
1.569423
1.565673
1.568485
1.565673
1.567923
1.573548
1.573548
1.582361
1.582548
1.591174
1.593049
1.586298
1.581423
1.583111
1.579361
1.573923
1.573923
1.569048
1.561548
1.570548
1.573173
1.567923
1.566235
1.568298
1.56961
1.583486
1.583486
1.583861
1.590049
1.585923
1.588173
1.581236
1.584423
1.578986
1.572423
1.570735
1.570735
1.56811
1.578423
1.569048
1.567173
1.564735
1.566048
1.571298
1.583298
1.583486
1.583486
1.585548
1.601861
1.585173
1.581798
1.582173
1.581048
1.574673
1.569985
1.569985
1.569985
1.575986
1.566048
1.569048
1.568298
1.56586
1.570173
1.579923
1.578986
1.578986
1.587611
1.587799
1.585923
1.583861
1.582548
1.580298
1.575048
1.571673
1.564173
1.564173
1.563985
1.56961
1.567173
1.56586
1.566985
1.572048
1.578423
1.583673
1.590424
1.590424
1.587611
1.577673
1.580486
1.582361
1.580298
1.575236
1.573173
1.56211
1.569423
1.569423
1.580486
1.569985
1.56661
1.565673
1.571486
1.578611
1.585548
1.589298
1.587611
1.587611
1.582173
1.581236
1.582548
1.580298
1.575798
1.565673
1.567548
1.57186
1.57186
1.561173
1.564735
1.56661
1.565485
1.571486
1.578236
1.583486
1.584423
1.591924
1.591924
1.585923
1.581423
1.583111
1.581236
1.576548
1.570735
1.566798
1.560423
1.57036
1.57036
1.573923
1.566048
1.566985
1.568485
1.576923
1.584611
1.585361
1.590424
1.580861
1.580861
1.581236
1.584611
1.580673
1.575986
1.566048
1.56211
1.575423
1.574486
1.570735
1.570735
1.566048
1.567173
1.571673
1.577861
1.584236
1.582548
1.581798
1.595486
1.595486
1.581236
1.583861
1.582173
1.577486
1.57336
1.56961
1.57261
1.56811
1.573173
1.573173
1.567735
1.566985
1.569798
1.577111
1.584798
1.588736
1.589674
1.590799
1.581048
1.581048
1.583111
1.580111
1.575423
1.569423
1.561923
1.569423
1.577486
1.571673
1.566235
1.566235
1.566423
1.570173
1.576548
1.586298
1.584048
1.584423
1.587423
1.583111
1.583111
1.583111
1.583298
1.576173
1.570735
1.570548
1.566985
1.578423
1.567548
1.566235
1.567173
1.567173
1.570735
1.574861
1.582361
1.587986
1.593986
1.590236
1.581986
1.583486
1.583486
1.582736
1.579548
1.574861
1.566985
1.563423
1.582923
1.573923
1.567735
1.567173
1.567173
1.568673
1.573923
1.587236
1.586861
1.580111
1.582736
1.582548
1.583298
1.582923
1.582923
1.578236
1.569798
1.569798
1.57111
1.569048
1.563235
1.56736
1.567173
1.56886
1.56886
1.575048
1.582736
1.582548
1.601486
1.585923
1.583111
1.583486
1.583298
1.580298
1.580298
1.574861
1.570548
1.561173
1.576548
1.56811
1.567735
1.56661
1.56886
1.56886
1.575986
1.587048
1.587048
1.590611
1.581423
1.580298
1.584611
1.584236
1.580298
1.580298
1.57186
1.56586
1.568485
1.576548
1.575986
1.568673
1.569048
1.568485
1.574111
1.574111
1.585736
1.584236
1.584236
1.589861
1.582923
1.584611
1.585173
1.577861
1.575048
1.575048
1.569048
1.569798
1.572235
1.565485
1.568673
1.567173
1.570548
1.574486
1.583298
1.583298
1.584611
1.594924
1.595486
1.584986
1.582923
1.585548
1.578611
1.575423
1.567548
1.567548
1.562485
1.570548
1.579736
1.569985
1.56661
1.56961
1.575236
1.583861
1.583861
1.586298
1.591174
1.588361
1.581798
1.584236
1.584236
1.580111
1.573923
1.566235
1.566235
1.573735
1.573173
1.570735
1.57036
1.567923
1.56886
1.575986
1.583111
1.585736
1.585736
1.589111
1.599424
1.586298
1.583111
1.583861
1.579923
1.574486
1.570173
1.571298
1.571298
1.580111
1.573173
1.568485
1.566985
1.568298
1.57261
1.582548
1.584048
1.590424
1.590424
1.593986
1.587236
1.582736
1.583298
1.580673
1.577673
1.57186
1.569235
1.569235
1.561173
1.575611
1.57036
1.569048
1.570173
1.57336
1.578423
1.586486
1.586486
1.586486
1.599799
1.586298
1.583111
1.585736
1.581986
1.577486
1.56661
1.565485
1.578986
1.578986
1.575986
1.572235
1.56736
1.567735
1.572423
1.582736
1.586861
1.581611
1.593611
1.593611
1.592486
1.584048
1.586486
1.580673
1.577861
1.571298
1.57111
1.575611
1.573923
1.573923
1.569048
1.568298
1.57036
1.574111
1.580486
1.584611
1.589298
1.593799
1.593799
1.586673
1.583486
1.584611
1.582736
1.577861
1.575986
1.572048
1.566235
1.575611
1.575611
1.575798
1.567548
1.56736
1.574298
1.580298
1.586486
1.588736
1.586111
1.584048
1.584048
1.584048
1.587423
1.582736
1.578236
1.56661
1.56811
1.569048
1.577298
1.572423
1.572423
1.569423
1.566048
1.571673
1.579361
1.586298
1.586486
1.594361
1.598111
1.584611
1.584611
1.585736
1.582361
1.576361
1.574486
1.570923
1.567548
1.56286
1.567548
1.569235
1.569235
1.567735
1.572235
1.577298
1.585923
1.586298
1.594549
1.595111
1.582173
1.582173
1.583673
1.584048
1.578986
1.573173
1.566048
1.56586
1.581986
1.572423
1.569235
1.569235
1.568485
1.57186
1.578798
1.589111
1.587799
1.582173
1.584236
1.583111
1.584986
1.584986
1.584236
1.579736
1.569048
1.56886
1.574111
1.574111
1.573735
1.567735
1.569235
1.569235
1.572798
1.576173
1.588173
1.584798
1.586298
1.589298
1.583673
1.587048
1.583111
1.583111
1.578423
1.575048
1.572423
1.567548
1.569798
1.57336
1.569048
1.56961
1.56961
1.57261
1.576548
1.586298
1.586861
1.592486
1.594924
1.583486
1.584798
1.584986
1.584986
1.579548
1.575798
1.566423
1.569048
1.573735
1.573173
1.569985
1.568485
1.569985
1.569985
1.576361
1.586111
1.587611
1.591361
1.584236
1.583673
1.586861
1.585361
1.581611
1.581611
1.570735
1.56736
1.570173
1.573548
1.576548
1.568485
1.568298
1.570923
1.576361
1.576361
1.586111
1.587986
1.584048
1.596049
1.588173
1.584423
1.584611
1.581236
1.575048
1.575048
1.57186
1.572986
1.577486
1.575048
1.56961
1.569985
1.571486
1.576361
1.576361
1.584611
1.586486
1.591924
1.591549
1.586111
1.585173
1.584423
1.581048
1.577861
1.577861
1.574298
1.569423
1.567173
1.579173
1.569423
1.56886
1.570548
1.575798
1.587799
1.587799
1.588736
1.593049
1.588923
1.582361
1.586673
1.587236
1.580298
1.576736
1.562673
1.562673
1.56886
1.579736
1.576548
1.57186
1.567548
1.570735
1.576548
1.587048
1.587236
1.587236
1.586861
1.587611
1.585548
1.585173
1.586298
1.581798
1.576923
1.574298
1.574298
1.572986
1.577486
1.570923
1.57111
1.568673
1.570923
1.574673
1.583298
1.588736
1.588736
1.587611
1.590986
1.584798
1.585736
1.581611
1.578048
1.571673
1.56436
1.571298
1.582173
1.582173
1.570173
1.56961
1.56886
1.575423
1.587236
1.586111
1.588548
1.591361
1.587236
1.587236
1.585548
1.587423
1.582923
1.576548
1.567173
1.57186
1.577298
1.571673
1.569048
1.569048
1.569985
1.570735
1.575423
1.584048
1.586298
1.583861
1.591736
1.589111
1.585361
1.585361
1.585923
1.581798
1.579173
1.575236
1.57186
1.56211
1.576548
1.571673
1.569423
1.569423
1.56886
1.572986
1.583111
1.585923
1.588361
1.595111
1.581986
1.583111
1.583111
1.586298
1.584611
1.577298
1.57111
1.566048
1.581611
1.578611
1.572798
1.567548
1.567548
1.56886
1.575423
1.582923
1.587236
1.585361
1.581048
1.590611
1.584798
1.585361
1.585361
1.582361
1.577486
1.57336
1.570923
1.569423
1.570548
1.57261
1.571298
1.570548
1.570548
1.575798
1.582923
1.586673
1.590049
1.596236
1.593799
1.586673
1.587423
1.585173
1.585173
1.577861
1.575798
1.56811
1.56586
1.584423
1.572986
1.569985
1.570735
1.570735
1.573923
1.583673
1.591174
1.590236
1.588548
1.584611
1.584986
1.587799
1.584611
1.584611
1.579548
1.567173
1.569235
1.576736
1.584798
1.570548
1.570173
1.570173
1.574861
1.574861
1.581423
1.590424
1.586486
1.583673
1.594361
1.585361
1.586486
1.585173
1.577861
1.577861
1.573735
1.571486
1.572423
1.56436
1.570173
1.569235
1.569985
1.572798
1.580298
1.580298
1.585736
1.588736
1.589298
1.589861
1.583486
1.585548
1.585361
1.580298
1.575798
1.575798
1.57111
1.567173
1.581423
1.581236
1.570735
1.569235
1.57336
1.580486
1.580486
1.590986
1.588736
1.597924
1.577861
1.584048
1.585923
1.584423
1.579361
1.570548
1.570548
1.569423
1.576923
1.578048
1.575798
1.569048
1.568673
1.571673
1.578423
1.587236
1.587236
1.587611
1.593424
1.596236
1.585923
1.584798
1.584236
1.580861
1.575611
1.572798
1.572798
1.564735
1.56811
1.577111
1.570173
1.568485
1.573548
1.577111
1.587236
1.589298
1.589298
1.588736
1.593986
1.582923
1.586298
1.586111
1.580673
1.574673
1.564548
1.564548
1.568673
1.584423
1.576173
1.569985
1.56811
1.57186
1.575611
1.589298
1.587799
1.587799
1.588361
1.585361
1.583673
1.584798
1.585548
1.579361
1.573173
1.570173
1.570735
1.570735
1.577486
1.577111
1.570548
1.56811
1.572048
1.575611
1.586111
1.586861
1.580111
1.580111
1.593049
1.586486
1.585548
1.584798
1.581798
1.575986
1.57111
1.56961
1.577861
1.577861
1.564923
1.57036
1.569048
1.570548
1.575236
1.586111
1.587423
1.591924
1.587611
1.587611
1.584048
1.584986
1.586298
1.581423
1.576548
1.566235
1.565485
1.578611
1.578611
1.582736
1.572048
1.567923
1.572048
1.575986
1.586486
1.589298
1.590049
1.590799
1.590799
1.581048
1.584611
1.586111
1.581986
1.574111
1.569423
1.568673
1.578798
1.567735
1.567735
1.56961
1.567548
1.56961
1.575423
1.585361
1.585923
1.583486
1.594736
1.588173
1.588173
1.585548
1.584986
1.580861
1.576548
1.57111
1.572798
1.578236
1.568298
1.56961
1.56961
1.56736
1.570548
1.573548
1.582736
1.583673
1.591174
1.597924
1.580298
1.580298
1.584798
1.585736
1.582923
1.576548
1.56886
1.56361
1.575048
1.580111
1.569985
1.569985
1.56886
1.567923
1.575048
1.582548
1.586486
1.582173
1.585361
1.581986
1.584048
1.584048
1.586673
1.582923
1.575986
1.56961
1.57036
1.577673
1.566235
1.569235
1.568298
1.568298
1.569048
1.573923
1.583111
1.583673
1.588173
1.587611
1.589298
1.582736
1.583673
1.583673
1.582736
1.577486
1.57261
1.57036
1.56811
1.572048
1.569985
1.568298
1.568298
1.569423
1.573173
1.579923
1.584236
1.587986
1.585736
1.584611
1.584048
1.584798
1.584798
1.581986
1.577111
1.570923
1.564735
1.566798
1.575611
1.570923
1.567548
1.568485
1.568485
1.57336
1.581798
1.586861
1.585736
1.587236
1.584048
1.583298
1.583673
1.581798
1.581798
1.577111
1.569985
1.568485
1.578236
1.570548
1.566798
1.567548
1.567548
1.574486
1.574486
1.581798
1.585736
1.588361
1.596049
1.589486
1.581611
1.584236
1.583486
1.583486
1.576361
1.573548
1.56586
1.569423
1.583298
1.574298
1.567923
1.565298
1.570735
1.570735
1.577861
1.587048
1.585548
1.585173
1.581048
1.581423
1.586486
1.583486
1.577861
1.577861
1.566798
1.568298
1.57261
1.577486
1.572048
1.564548
1.568298
1.571486
1.578423
1.578423
1.585923
1.584986
1.599236
1.594924
1.581986
1.583673
1.584048
1.579361
1.572986
1.572986
1.56961
1.560048
1.583111
1.578423
1.566798
1.567173
1.57036
1.575986
1.585548
1.585548
1.587236
1.593424
1.574861
1.579923
1.585548
1.583673
1.578423
1.567923
1.567923
1.568485
1.573173
1.575611
1.578048
1.565673
1.567173
1.570548
1.575986
1.587611
1.587611
1.583861
1.582923
1.601674
1.584236
1.584048
1.582361
1.578423
1.571673
1.57036
1.57036
1.574111
1.57261
1.56736
1.569048
1.565673
1.57036
1.575048
1.582923
1.583486
1.583486
1.591736
1.595674
1.583486
1.583486
1.582173
1.578798
1.572986
1.562298
1.563798
1.563798
1.583111
1.572235
1.56811
1.564173
1.569048
1.575236
1.587236
1.585173
1.585173
1.580486
1.582173
1.581986
1.583486
1.580861
1.576173
1.570923
1.566798
1.569798
1.569798
1.574298
1.57186
1.566048
1.567173
1.566985
1.574861
1.583673
1.582923
1.585173
1.585173
1.593986
1.584611
1.582736
1.582736
1.578048
1.573548
1.568298
1.56211
1.578798
1.578798
1.577298
1.567173
1.56736
1.56886
1.572986
1.586486
1.584986
1.594174
1.596986
1.596986
1.578236
1.582736
1.584611
1.578423
1.572798
1.561735
1.566048
1.57186
1.574861
1.574861
1.56586
1.565298
1.568298
1.572986
1.583673
1.583861
1.580111
1.593236
1.593236
1.587236
1.581423
1.581611
1.578611
1.57336
1.56961
1.570548
1.576173
1.566235
1.566235
1.567735
1.565485
1.567548
1.572235
1.579923
1.581611
1.591549
1.591361
1.584798
1.584798
1.581236
1.582548
1.578423
1.576361
1.566798
1.560798
1.562485
1.579923
1.567923
1.567923
1.565673
1.565298
1.571298
1.583486
1.584423
1.584611
1.584986
1.581048
1.582173
1.582173
1.582923
1.580673
1.572986
1.567735
1.569423
1.575986
1.578798
1.568673
1.568673
1.56511
1.566985
1.572235
1.580486
1.583111
1.588361
1.590799
1.577861
1.581048
1.581048
1.583486
1.580673
1.574486
1.57036
1.563235
1.56586
1.570923
1.567173
1.567173
1.567173
1.565485
1.57186
1.580111
1.584048
1.589861
1.599049
1.578611
1.580861
1.581798
1.581798
1.578986
1.573548
1.560985
1.566423
1.572423
1.573173
1.566048
1.563423
1.564923
1.564923
1.570923
1.580486
1.583861
1.587048
1.581611
1.585923
1.581798
1.581048
1.578611
1.578611
1.571298
1.566048
1.56586
1.575798
1.572423
1.565673
1.566235
1.564548
1.564548
1.569985
1.576923
1.580673
1.581611
1.593236
1.586486
1.581798
1.579736
1.578986
1.578986
1.573735
1.56811
1.565673
1.570923
1.56661
1.56811
1.565673
1.564923
1.56886
1.56886
1.576173
1.584048
1.585361
1.589861
1.584048
1.579361
1.580298
1.572986
1.562298
1.563235
1.563235
1.573735
1.570548
1.568298
1.564173
1.56436
1.567548
1.576923
1.581986
1.581986
1.582736
1.583486
1.591361
1.580673
1.580673
1.578423
1.575236
1.567923
1.568485
1.568485
1.569048
1.571673
1.564923
1.564173
1.563423
1.56811
1.573548
1.581236
1.580673
1.580673
1.595486
1.582548
1.580111
1.579923
1.579736
1.573923
1.57036
1.563048
1.558548
1.558548
1.576736
1.573548
1.563798
1.563798
1.566798
1.575611
1.582548
1.582736
1.588736
1.588736
1.575798
1.578236
1.579923
1.579361
1.574486
1.563048
1.56211
1.569235
1.57186
1.57186
1.569798
1.563235
1.563985
1.56586
1.575236
1.583298
1.582923
1.580486
1.580486
1.595486
1.580298
1.581048
1.576923
1.573548
1.570735
1.56736
1.57186
1.566798
1.566798
1.563048
1.564548
1.563423
1.567173
1.572235
