71.3092,1.701
71.3162,1.669
71.3162,1.619
71.3162,1.596
71.3162,1.612
71.3172,1.643
71.3172,1.674
71.3172,1.705
71.3172,1.734
71.3172,1.784
71.3172,1.83
71.3182,1.864
71.3182,1.817
71.3182,1.78
71.3182,1.748
71.3182,1.712
71.3182,1.678
71.3192,1.605
71.3192,1.616
71.3192,1.633
71.3192,1.654
71.3192,1.689
71.3202,1.726
71.3202,1.804
71.3202,1.847
71.3202,1.899
71.3202,1.882
71.3202,1.848
71.3212,1.775
71.3212,1.739
71.3212,1.709
71.3212,1.657
71.3212,1.629
71.3212,1.641
71.3222,1.676
71.3222,1.717
71.3222,1.753
71.3222,1.791
71.3232,1.831
71.3232,1.881
71.3232,1.902
71.3232,1.878
71.3232,1.842
71.3232,1.811
71.3242,1.784
71.3242,1.688
71.3242,1.658
71.3242,1.666
71.3242,1.69
71.3242,1.702
71.3242,1.733
71.3242,1.808
71.3252,1.847
71.3252,1.895
71.3252,1.927
71.3252,1.921
71.3252,1.891
71.3252,1.828
71.3252,1.791
71.3262,1.756
71.3262,1.699
71.3262,1.666
71.3262,1.672
71.3262,1.705
71.3262,1.737
71.3262,1.779
71.3272,1.814
71.3272,1.842
71.3272,1.929
71.3272,1.935
71.3272,1.904
71.3272,1.873
71.3272,1.818
71.3282,1.781
71.3282,1.702
71.3282,1.66
71.3282,1.672
71.3282,1.684
71.3282,1.698
71.3282,1.729
71.3292,1.799
71.3292,1.837
71.3292,1.888
71.3292,1.924
71.3292,1.93
71.3302,1.895
71.3302,1.824
71.3302,1.785
71.3302,1.752
71.3302,1.701
71.3302,1.66
71.3302,1.666
71.3302,1.69
71.3312,1.722
71.3312,1.762
71.3312,1.799
71.3312,1.832
71.3312,1.879
71.3312,1.927
71.3322,1.895
71.3322,1.857
71.3322,1.825
71.3322,1.784
71.3322,1.747
71.3322,1.65
71.3322,1.657
71.3332,1.685
71.3332,1.684
71.3332,1.714
71.3332,1.751
71.3332,1.83
71.3332,1.877
71.3332,1.921
71.3332,1.931
71.3342,1.896
71.3342,1.856
71.3342,1.782
71.3342,1.754
71.3342,1.692
71.3342,1.651
71.3342,1.657
71.3352,1.669
71.3352,1.711
71.3352,1.75
71.3352,1.787
71.3352,1.818
71.3352,1.873
71.3352,1.913
71.3362,1.903
71.3362,1.864
71.3362,1.824
71.3362,1.772
71.3362,1.747
71.3362,1.699
71.3362,1.662
71.3372,1.669
71.3372,1.682
71.3372,1.703
71.3372,1.745
71.3372,1.783
71.3372,1.862
71.3372,1.907
71.3382,1.924
71.3382,1.891
71.3382,1.85
71.3382,1.776
71.3382,1.748
71.3382,1.699
71.3382,1.654
71.3392,1.645
71.3392,1.657
71.3392,1.7
71.3401,1.736
71.3401,1.772
71.3401,1.805
71.3401,1.861
71.3401,1.902
71.3401,1.917
71.3401,1.859
71.3412,1.822
71.3412,1.794
71.3412,1.759
71.3412,1.71
71.3412,1.662
71.3412,1.665
71.3421,1.677
71.3421,1.701
71.3421,1.732
71.3421,1.77
71.3421,1.801
71.3421,1.884
71.3421,1.906
71.3431,1.883
71.3431,1.836
71.3431,1.803
71.3431,1.766
71.3431,1.692
71.3431,1.639
71.3431,1.626
71.3441,1.636
71.3441,1.655
71.3441,1.661
71.3441,1.734
71.3441,1.76
71.3441,1.808
71.3441,1.848
71.3451,1.87
71.3451,1.852
71.3451,1.787
71.3451,1.736
71.3451,1.71
71.3461,1.667
71.3461,1.622
71.3461,1.607
71.3461,1.652
71.3461,1.669
71.3461,1.711
71.3461,1.748
71.3471,1.781
71.3471,1.886
71.3471,1.92
71.3471,1.906
71.3471,1.857
71.3471,1.829
71.3471,1.79
71.3481,1.723
71.3481,1.679
71.3481,1.645
71.3481,1.673
71.3481,1.681
71.3481,1.705
71.3481,1.774
71.3481,1.808
71.3491,1.856
71.3491,1.9
71.3491,1.927
71.3491,1.869
71.3491,1.839
71.3491,1.8
71.3491,1.763
71.3501,1.729
71.3501,1.676
71.3501,1.667
71.3501,1.68
71.3501,1.702
71.3501,1.741
71.3501,1.775
71.3511,1.808
71.3511,1.899
71.3511,1.936
71.3511,1.934
71.3511,1.885
71.3521,1.837
71.3521,1.811
71.3521,1.739
71.3521,1.686
71.3521,1.668
71.3521,1.683
71.3521,1.691
71.3521,1.705
71.3531,1.784
71.3531,1.81
71.3531,1.855
71.3531,1.899
71.3531,1.935
71.3531,1.878
71.3531,1.847
71.3541,1.812
71.3541,1.768
71.3541,1.739
71.3541,1.688
71.3541,1.679
71.3541,1.678
71.3541,1.699
71.3551,1.736
71.3551,1.776
71.3551,1.811
71.3551,1.889
71.3561,1.932
71.3561,1.928
71.3561,1.892
71.3561,1.856
71.3561,1.823
71.3561,1.731
71.3561,1.66
71.3571,1.63
71.3571,1.648
71.3571,1.655
71.3571,1.68
71.3571,1.723
71.3571,1.736
71.3571,1.736
71.3581,1.74
71.3581,1.713
71.3581,1.663
71.3581,1.498
71.3581,1.421
71.3581,1.36
71.3581,1.297
71.3591,1.256
71.3591,1.246
71.3591,1.245
71.3591,1.256
71.3591,1.344
71.3591,1.627
71.3591,1.823
71.3601,1.899
71.3601,1.967
71.3601,2.001
71.3601,2.083
71.3601,2.109
71.3601,2.129
71.3601,2.307
71.3601,2.295
71.3611,2.261
71.3611,2.236
71.3611,2.252
71.3621,2.246
71.3621,2.273
71.3621,2.297
71.3621,2.318
71.3621,2.329
71.3631,2.328
71.3631,2.294
71.3631,2.139
71.3631,2.088
71.3631,2.02
71.3631,1.951
71.3641,1.856
71.3641,1.789
71.3641,1.758
71.3651,1.767
71.3651,1.785
71.3651,1.803
71.3651,1.821
71.3651,1.903
71.3660,1.937
71.3660,1.927
71.3660,1.901
71.3660,1.862
71.3660,1.831
71.3671,1.755
71.3671,1.706
71.3671,1.66
71.3671,1.668
71.3671,1.673
71.3671,1.681
71.3671,1.741
71.3681,1.756
71.3681,1.79
71.3681,1.842
71.3681,1.879
71.3681,1.878
71.3681,1.817
71.3681,1.784
71.3691,1.742
71.3691,1.718
71.3691,1.672
71.3691,1.627
71.3691,1.649
71.3691,1.658
71.3691,1.682
71.3691,1.719
71.3701,1.751
71.3701,1.826
71.3701,1.86
71.3701,1.871
71.3701,1.851
71.3701,1.816
71.3701,1.762
71.3711,1.703
71.3711,1.657
71.3711,1.622
71.3711,1.625
71.3711,1.636
71.3711,1.646
71.3721,1.699
71.3721,1.739
71.3721,1.767
71.3721,1.814
71.3721,1.851
71.3731,1.842
71.3731,1.802
71.3731,1.766
71.3731,1.73
71.3731,1.707
71.3741,1.662
71.3741,1.614
71.3741,1.634
71.3741,1.652
71.3741,1.667
71.3741,1.703
71.3741,1.739
71.3751,1.814
71.3751,1.859
71.3751,1.86
71.3751,1.853
71.3751,1.816
71.3751,1.769
71.3751,1.711
71.3761,1.664
71.3761,1.625
71.3761,1.617
71.3761,1.63
71.3761,1.671
71.3761,1.699
71.3761,1.739
71.3771,1.768
71.3771,1.821
71.3771,1.853
71.3771,1.857
71.3771,1.81
71.3771,1.78
71.3781,1.746
71.3781,1.718
71.3781,1.676
71.3781,1.62
71.3781,1.631
71.3781,1.645
71.3781,1.675
71.3781,1.721
71.3790,1.753
71.3790,1.817
71.3790,1.861
71.3790,1.87
71.3790,1.843
71.3790,1.803
71.3790,1.748
71.3800,1.705
71.3800,1.668
71.3800,1.625
71.3800,1.613
71.3800,1.622
71.3800,1.661
71.3800,1.695
71.3810,1.732
71.3810,1.757
71.3810,1.801
71.3810,1.821
71.3810,1.843
71.3810,1.79
71.3810,1.76
71.3820,1.719
71.3820,1.68
71.3820,1.635
71.3820,1.578
71.3820,1.597
71.3820,1.598
71.3820,1.617
71.3830,1.65
71.3830,1.705
71.3830,1.743
71.3830,1.778
71.3830,1.8
71.3830,1.789
71.3830,1.744
71.3830,1.676
71.3840,1.629
71.3840,1.603
71.3840,1.553
71.3840,1.534
71.3840,1.556
71.3840,1.577
71.3840,1.616
71.3850,1.651
71.3850,1.678
71.3850,1.717
71.3850,1.757
71.3850,1.775
71.3850,1.737
71.3850,1.707
71.3860,1.666
71.3860,1.635
71.3860,1.553
71.3860,1.538
71.3860,1.553
71.3860,1.564
71.3860,1.585
71.3870,1.611
71.3870,1.681
71.3870,1.714
71.3870,1.758
71.3870,1.804
71.3870,1.795
71.3870,1.752
71.3870,1.676
71.3880,1.645
71.3880,1.61
71.3880,1.565
71.3880,1.543
71.3880,1.566
71.3880,1.582
71.3890,1.627
71.3890,1.669
71.3890,1.703
71.3890,1.745
71.3890,1.795
71.3900,1.83
71.3900,1.795
71.3900,1.757
71.3900,1.718
71.3900,1.69
71.3900,1.607
71.3900,1.586
71.3910,1.602
71.3910,1.622
71.3910,1.634
71.3910,1.668
71.3910,1.741
71.3910,1.791
71.3920,1.841
71.3920,1.873
71.3920,1.804
71.3920,1.76
71.3920,1.733
71.3920,1.706
71.9904,1.66
71.9904,1.62
71.9904,1.653
71.9914,1.664
71.9914,1.691
71.9914,1.741
71.9914,1.766
71.9914,1.808
71.9914,1.893
71.9914,1.888
71.9924,1.859
71.9924,1.828
71.9924,1.785
71.9924,1.708
71.9924,1.665
71.9924,1.624
71.9924,1.629
71.9934,1.655
71.9934,1.666
71.9934,1.74
71.9934,1.78
71.9934,1.807
71.9934,1.858
71.9934,1.901
71.9944,1.895
71.9944,1.825
71.9944,1.788
71.9944,1.745
71.9944,1.715
71.9944,1.661
71.9944,1.621
71.9954,1.641
71.9954,1.663
71.9954,1.69
71.9954,1.732
71.9954,1.765
71.9954,1.795
71.9954,1.895
71.9954,1.902
71.9964,1.856
71.9964,1.836
71.9964,1.781
71.9964,1.708
71.9964,1.656
71.9974,1.616
71.9974,1.618
71.9974,1.633
71.9974,1.651
71.9974,1.719
71.9974,1.757
71.9974,1.796
71.9974,1.847
71.9984,1.892
71.9984,1.882
71.9984,1.818
71.9984,1.779
71.9984,1.736
71.9984,1.709
71.9984,1.641
71.9994,1.602
71.9994,1.629
71.9994,1.642
71.9994,1.676
71.9994,1.707
71.9994,1.749
71.9994,1.79
72.0004,1.88
72.0004,1.89
72.0004,1.858
72.0004,1.813
72.0004,1.783
72.0004,1.704
72.0014,1.647
72.0014,1.608
72.0014,1.604
72.0014,1.625
72.0014,1.634
72.0014,1.702
72.0014,1.745
72.0014,1.774
72.0024,1.826
72.0024,1.875
72.0024,1.887
72.0024,1.815
72.0024,1.788
72.0024,1.749
72.0024,1.705
72.0034,1.648
72.0034,1.605
72.0034,1.623
72.0034,1.626
72.0034,1.663
72.0034,1.708
72.0034,1.748
72.0044,1.777
72.0044,1.884
72.0044,1.914
72.0044,1.881
72.0044,1.822
72.0044,1.783
72.0044,1.742
72.0044,1.656
72.0054,1.613
72.0054,1.606
72.0054,1.625
72.0054,1.64
72.0054,1.658
72.0064,1.742
72.0064,1.776
72.0064,1.841
72.0064,1.88
72.0064,1.906
72.0064,1.89
72.0074,1.792
72.0074,1.751
72.0074,1.719
72.0074,1.667
72.0074,1.614
72.0074,1.606
72.0074,1.628
72.0084,1.658
72.0084,1.7
72.0084,1.733
72.0084,1.769
72.0084,1.825
72.0084,1.89
72.0084,1.873
72.0094,1.819
72.0094,1.77
72.0094,1.732
72.0094,1.693
72.0094,1.595
72.0094,1.578
72.0094,1.6
72.0094,1.595
72.0104,1.629
72.0104,1.662
72.0104,1.725
72.0104,1.78
72.0104,1.826
72.0114,1.85
72.0114,1.833
72.0114,1.781
72.0114,1.708
72.0114,1.669
72.0114,1.619
72.0114,1.571
72.0124,1.549
72.0124,1.57
72.0124,1.621
72.0124,1.664
72.0124,1.715
72.0124,1.748
72.0133,1.804
72.0133,1.854
72.0133,1.891
72.0133,1.831
72.0133,1.8
72.0133,1.757
72.0133,1.713
72.0143,1.679
72.0143,1.604
72.0143,1.615
72.0143,1.632
72.0143,1.667
72.0143,1.694
72.0143,1.739
72.0153,1.824
72.0153,1.88
72.0153,1.919
72.0153,1.916
72.0153,1.845
72.0153,1.807
72.0153,1.725
72.0163,1.685
72.0163,1.629
72.0163,1.607
72.0163,1.623
72.0163,1.645
72.0163,1.706
72.0163,1.737
72.0163,1.781
72.0173,1.823
72.0173,1.883
72.0173,1.927
72.0173,1.86
72.0173,1.822
72.0173,1.78
72.0173,1.737
72.0183,1.698
72.0183,1.639
72.0183,1.634
72.0183,1.646
72.0183,1.662
72.0183,1.707
72.0183,1.748
72.0193,1.784
72.0193,1.89
72.0193,1.932
72.0193,1.922
72.0193,1.867
72.0193,1.846
72.0193,1.735
72.0203,1.708
72.0203,1.632
72.0203,1.606
72.0203,1.625
72.0203,1.642
72.0203,1.698
72.0203,1.742
72.0213,1.777
72.0213,1.824
72.0213,1.878
72.0213,1.935
72.0213,1.873
72.0213,1.831
72.0213,1.797
72.0223,1.763
72.0223,1.714
72.0223,1.623
72.0223,1.59
72.0223,1.614
72.0223,1.62
72.0223,1.666
72.0233,1.718
72.0233,1.727
72.0233,1.775
72.0233,1.779
72.0233,1.729
72.0233,1.635
72.0233,1.548
72.0243,1.397
72.0243,1.327
72.0243,1.262
72.0243,1.245
72.0243,1.248
72.0243,1.245
72.0243,1.243
72.0253,1.456
72.0253,1.752
72.0253,1.908
72.0253,1.966
72.0253,1.968
72.0253,1.984
72.0253,2.074
72.0263,2.113
72.0263,2.211
72.0263,2.287
72.0263,2.248
72.0263,2.219
72.0263,2.228
72.0263,2.22
72.0273,2.246
72.0273,2.258
72.0273,2.298
72.0273,2.376
72.0273,2.421
72.0273,2.382
72.0273,2.269
72.0283,2.189
72.0283,2.112
72.0283,1.947
72.0283,1.847
72.0283,1.781
72.0293,1.764
72.0293,1.741
72.0293,1.72
72.0293,1.785
72.0293,1.811
72.0293,1.847
72.0293,1.892
72.0303,1.956
72.0303,1.91
72.0303,1.856
72.0303,1.81
72.0303,1.755
72.0303,1.715
72.0313,1.642
72.0313,1.59
72.0313,1.624
72.0313,1.613
72.0313,1.655
72.0313,1.694
72.0313,1.737
72.0323,1.842
72.0323,1.908
72.0323,1.913
72.0323,1.864
72.0323,1.81
72.0323,1.769
72.0323,1.671
72.0323,1.605
72.0333,1.552
72.0333,1.583
72.0333,1.586
72.0333,1.593
72.0333,1.668
72.0333,1.722
72.0333,1.765
72.0343,1.818
72.0343,1.888
72.0343,1.918
72.0343,1.794
72.0343,1.75
72.0343,1.692
72.0343,1.658
72.0353,1.591
72.0353,1.546
72.0353,1.577
72.0353,1.593
72.0353,1.612
72.0353,1.664
72.0353,1.719
72.0363,1.82
72.0363,1.883
72.0363,1.898
72.0363,1.859
72.0363,1.802
72.0363,1.759
72.0363,1.661
72.0373,1.6
72.0373,1.536
72.0373,1.555
72.0373,1.566
72.0373,1.572
72.0373,1.664
72.0373,1.711
72.0373,1.749
72.0382,1.823
72.0382,1.885
72.0382,1.862
72.0382,1.803
72.0382,1.757
72.0382,1.706
72.0392,1.667
72.0392,1.599
72.0392,1.543
72.0392,1.568
72.0392,1.575
72.0392,1.611
72.0392,1.66
72.0402,1.704
72.0402,1.819
72.0402,1.889
72.0402,1.924
72.0402,1.881
72.0402,1.805
72.0402,1.759
72.0412,1.668
72.0412,1.609
72.0412,1.533
72.0412,1.549
72.0412,1.561
72.0412,1.569
72.0412,1.649
72.0422,1.699
72.0422,1.739
72.0422,1.807
72.0422,1.871
72.0422,1.887
72.0422,1.795
72.0422,1.751
72.0432,1.697
72.0432,1.654
72.0432,1.594
72.0432,1.517
72.0432,1.559
72.0432,1.553
72.0432,1.579
72.0442,1.622
72.0442,1.67
72.0442,1.774
72.0442,1.834
72.0442,1.882
72.0442,1.858
72.0442,1.771
72.0452,1.718
72.0452,1.614
72.0452,1.565
72.0452,1.492
72.0452,1.46
72.0452,1.479
72.0452,1.524
72.0462,1.57
72.0462,1.619
72.0462,1.652
72.0462,1.713
72.0462,1.773
72.0462,1.789
72.0462,1.717
72.0472,1.674
72.0472,1.618
72.0472,1.57
72.0472,1.52
72.0472,1.424
72.0472,1.449
72.0472,1.466
72.0472,1.494
72.0482,1.545
72.0482,1.594
72.0482,1.692
72.0482,1.756
72.0482,1.801
72.0482,1.784
72.0482,1.715
72.0492,1.619
72.0492,1.577
72.0492,1.532
72.0492,1.451
72.0492,1.424
72.0492,1.459
72.0492,1.498
72.0502,1.545
72.0502,1.602
72.0502,1.643
72.0502,1.697
72.0502,1.763
72.0502,1.799
72.0512,1.737
72.0512,1.695
72.0512,1.649
72.0512,1.605
72.0512,1.555
72.0512,1.46
72.0512,1.481
72.0512,1.506
72.0522,1.532
72.0522,1.584
72.0522,1.691
72.0522,1.75
72.0522,1.805
72.0522,1.863
72.0522,1.858
72.0532,1.792
72.0532,1.696
72.0532,1.657
72.0532,1.616
72.0532,1.544
72.0532,1.511
72.0532,1.537
72.0542,1.586
72.0542,1.637
72.0542,1.689
72.0542,1.734
72.0542,1.787
72.0542,1.925
72.0542,1.91
72.0552,1.851
72.0552,1.799
72.0552,1.748
72.0552,1.709
72.0552,1.589
72.0552,1.552
72.0562,1.577
72.0562,1.596
72.0562,1.62
72.0562,1.664
72.0562,1.759
72.0562,1.811
72.0562,1.882
72.0572,1.94
72.0572,1.933
72.0572,1.878
72.0572,1.772
72.0572,1.72
72.0572,1.682
72.0572,1.6
72.0582,1.555
72.0582,1.603
72.0582,1.621
72.0582,1.663
72.0582,1.715
72.0582,1.759
72.0582,1.808
72.0592,1.933
72.0592,1.932
72.0592,1.88
72.0592,1.821
72.0592,1.773
72.0592,1.726
72.0592,1.603
72.0602,1.557
72.0602,1.583
72.0602,1.592
72.0602,1.612
72.0602,1.656
72.0602,1.75
72.0602,1.8
72.0612,1.866
72.0612,1.915
72.0612,1.923
72.0612,1.762
72.0612,1.709
72.0612,1.671
72.0612,1.595
72.9001,1.555
72.9001,1.585
72.9001,1.593
72.9011,1.63
72.9011,1.687
72.9011,1.738
72.9011,1.845
72.9021,1.908
72.9021,1.91
72.9021,1.864
72.9021,1.808
72.9021,1.754
72.9031,1.664
72.9031,1.59
72.9031,1.52
72.9031,1.541
72.9031,1.564
72.9041,1.578
72.9041,1.676
72.9041,1.716
72.9041,1.762
72.9051,1.845
72.9051,1.894
72.9051,1.901
72.9051,1.797
72.9061,1.755
72.9061,1.701
72.9061,1.651
72.9061,1.583
72.9061,1.555
72.9071,1.571
72.9071,1.577
72.9071,1.618
72.9071,1.67
72.9071,1.716
72.9081,1.834
72.9081,1.888
72.9081,1.916
72.9081,1.868
72.9091,1.809
72.9091,1.76
72.9091,1.666
72.9091,1.599
72.9101,1.539
72.9101,1.548
72.9101,1.566
72.9101,1.625
72.9111,1.668
72.9111,1.712
72.9111,1.757
72.9111,1.832
72.9121,1.896
72.9121,1.864
72.9121,1.808
72.9121,1.766
72.9131,1.718
72.9131,1.674
72.9131,1.611
72.9131,1.558
72.9131,1.584
72.9141,1.587
72.9141,1.625
72.9141,1.674
72.9141,1.724
72.9141,1.826
72.9151,1.895
72.9151,1.919
72.9151,1.88
72.9151,1.817
72.9161,1.769
72.9161,1.68
72.9161,1.607
72.9171,1.542
72.9171,1.55
72.9171,1.578
72.9171,1.627
72.9171,1.677
72.9181,1.726
72.9181,1.755
72.9181,1.824
72.9191,1.88
72.9201,1.882
72.9201,1.808
72.9220,1.759
72.9230,1.704
72.9241,1.659
72.9241,1.601
72.9241,1.523
72.9250,1.559
72.9250,1.558
72.9250,1.579
72.9250,1.631
72.9260,1.682
72.9260,1.784
72.9260,1.84
72.9260,1.873
72.9260,1.847
72.9260,1.768
72.9260,1.709
72.9271,1.623
72.9271,1.568
72.9271,1.5
72.9271,1.491
72.9271,1.525
72.9271,1.539
72.9280,1.624
72.9280,1.676
72.9280,1.721
72.9280,1.789
72.9290,1.852
72.9290,1.896
72.9290,1.804
72.9290,1.767
72.9290,1.716
72.9300,1.672
72.9300,1.628
72.9300,1.552
72.9300,1.573
72.9300,1.59
72.9300,1.606
72.9310,1.658
72.9310,1.707
72.9310,1.747
72.9310,1.878
72.9320,1.927
72.9320,1.915
72.9320,1.83
72.9320,1.785
72.9320,1.735
72.9320,1.639
72.9330,1.562
72.9330,1.538
72.9330,1.571
72.9330,1.584
72.9330,1.617
72.9340,1.705
72.9340,1.755
72.9340,1.823
72.9340,1.873
72.9340,1.927
72.9340,1.912
72.9340,1.794
72.9350,1.741
72.9350,1.697
72.9350,1.652
72.9350,1.578
72.9350,1.577
72.9360,1.592
72.9360,1.618
72.9360,1.668
72.9360,1.723
72.9360,1.757
72.9370,1.886
72.9370,1.948
72.9370,1.931
72.9370,1.847
72.9380,1.801
72.9380,1.757
72.9380,1.655
72.9380,1.589
72.9390,1.556
72.9390,1.571
72.9390,1.59
72.9400,1.614
72.9400,1.715
72.9400,1.759
72.9400,1.819
72.9410,1.888
72.9410,1.944
72.9410,1.926
72.9410,1.794
72.9420,1.752
72.9420,1.714
72.9420,1.671
72.9430,1.597
72.9430,1.565
72.9430,1.582
72.9430,1.602
72.9440,1.645
72.9440,1.697
72.9440,1.732
72.9440,1.787
72.9450,1.894
72.9450,1.871
72.9450,1.781
72.9450,1.709
72.9460,1.609
72.9460,1.527
72.9460,1.33
72.9460,1.291
72.9470,1.302
72.9470,1.282
72.9470,1.265
72.9470,1.277
72.9480,1.321
72.9480,1.389
72.9480,1.628
72.9490,1.967
72.9490,2.095
72.9490,2.009
72.9490,1.845
72.9500,1.791
72.9500,1.854
72.9500,1.868
72.9510,1.992
72.9530,2.172
72.9540,2.222
72.9550,2.226
72.9629,2.26
72.9709,2.303
72.9729,2.332
72.9759,2.402
72.9759,2.475
72.9759,2.361
72.9759,2.277
72.9769,2.187
72.9769,2.093
72.9769,1.904
72.9769,1.828
72.9779,1.813
72.9779,1.795
72.9779,1.769
72.9779,1.775
72.9789,1.825
72.9789,1.842
72.9789,1.899
72.9789,1.95
72.9789,1.93
72.9799,1.877
72.9799,1.767
72.9799,1.711
72.9799,1.669
72.9809,1.596
72.9809,1.528
72.9809,1.543
72.9809,1.573
72.9809,1.617
72.9809,1.666
72.9819,1.709
72.9819,1.748
72.9819,1.808
72.9819,1.88
72.9819,1.833
72.9819,1.771
72.9819,1.722
72.9829,1.666
72.9829,1.557
72.9829,1.502
72.9829,1.509
72.9829,1.529
72.9829,1.548
72.9839,1.589
72.9839,1.678
72.9839,1.727
72.9839,1.8
72.9839,1.859
72.9839,1.868
72.9839,1.814
72.9849,1.699
72.9849,1.649
72.9849,1.605
72.9849,1.528
72.9849,1.473
72.9849,1.498
72.9859,1.529
72.9859,1.573
72.9859,1.617
72.9859,1.664
72.9859,1.711
72.9859,1.846
72.9859,1.843
72.9869,1.811
72.9869,1.758
72.9869,1.708
72.9869,1.649
72.9869,1.54
72.9869,1.477
72.9869,1.493
72.9879,1.507
72.9879,1.52
72.9879,1.552
72.9879,1.655
72.9879,1.694
72.9889,1.773
72.9889,1.832
72.9889,1.843
72.9899,1.807
72.9899,1.692
72.9899,1.643
72.9899,1.599
72.9899,1.539
72.9909,1.468
72.9909,1.506
72.9909,1.507
72.9909,1.554
72.9909,1.594
72.9919,1.646
72.9919,1.684
72.9919,1.827
72.9919,1.838
72.9929,1.804
72.9929,1.732
72.9929,1.681
72.9929,1.63
72.9929,1.513
72.9929,1.448
72.9939,1.479
72.9939,1.486
72.9939,1.49
72.9939,1.523
72.9939,1.618
72.9939,1.656
72.9949,1.743
72.9949,1.803
72.9949,1.829
72.9949,1.8
72.9949,1.661
72.9959,1.612
72.9959,1.573
72.9959,1.505
72.9959,1.425
72.9959,1.445
72.9968,1.457
72.9968,1.486
72.9968,1.532
72.9968,1.582
72.9968,1.616
72.9968,1.741
72.9978,1.77
72.9978,1.741
72.9978,1.685
72.9978,1.634
72.9978,1.562
72.9978,1.452
72.9988,1.382
72.9988,1.363
72.9988,1.387
72.9988,1.397
72.9988,1.425
72.9988,1.517
72.9988,1.558
72.9998,1.61
72.9998,1.664
72.9998,1.708
72.9998,1.599
73.0008,1.553
73.0008,1.502
73.0008,1.449
73.0008,1.393
73.0018,1.328
73.0018,1.337
73.0018,1.343
73.0018,1.374
73.0018,1.416
73.0028,1.467
73.0028,1.506
73.0028,1.629
73.0028,1.681
73.0038,1.656
73.0038,1.584
73.0038,1.543
73.0038,1.492
73.0038,1.4
73.0038,1.331
73.0048,1.316
73.0048,1.333
73.0048,1.345
73.0058,1.387
73.0058,1.471
73.0058,1.513
73.0068,1.579
73.0068,1.634
73.0068,1.696
73.0068,1.68
73.0078,1.568
73.0078,1.522
73.0078,1.478
73.0078,1.427
73.0078,1.361
73.0078,1.35
73.0078,1.393
73.0088,1.416
73.0088,1.47
73.0088,1.52
73.0088,1.57
73.0088,1.638
73.0088,1.772
73.0088,1.754
73.0098,1.682
73.0098,1.64
73.0098,1.592
73.0098,1.518
73.0098,1.446
73.0098,1.418
73.0108,1.454
73.0108,1.469
73.0108,1.492
73.0108,1.6
73.0108,1.644
73.0118,1.71
73.0118,1.781
73.0118,1.841
73.0118,1.84
73.0118,1.715
73.0118,1.667
73.0118,1.622
73.0128,1.58
73.0128,1.517
73.0128,1.486
73.0128,1.536
73.0128,1.556
73.0128,1.605
73.0128,1.652
73.0138,1.697
73.0138,1.759
73.0138,1.891
73.0138,1.871
73.0138,1.8
73.0138,1.75
73.0138,1.703
73.0148,1.607
73.0148,1.533
73.0148,1.49
73.0148,1.528
73.0148,1.535
73.0148,1.555
73.0148,1.65
73.0158,1.69
73.0158,1.738
73.0158,1.817
73.0158,1.867
73.0158,1.862
73.0158,1.741
73.0158,1.677
73.0168,1.636
73.0168,1.601
73.0168,1.532
73.0168,1.505
73.0168,1.519
73.0168,1.537
73.0178,1.582
73.0178,1.632
73.0178,1.673
73.0178,1.787
73.0178,1.849
73.0178,1.851
73.0178,1.788
73.0188,1.72
73.0188,1.671
73.0188,1.59
73.0188,1.516
73.0188,1.454
73.0188,1.491
73.0188,1.484
73.0198,1.502
73.0198,1.601
73.0198,1.648
73.0198,1.697
73.0208,1.754
73.0208,1.826
73.0208,1.817
73.0208,1.707
73.0218,1.661
73.0218,1.604
73.0218,1.559
73.0218,1.492
73.0228,1.48
73.0228,1.483
73.0228,1.509
73.0238,1.539
73.0238,1.58
73.0238,1.641
73.0248,1.746
73.0248,1.802
73.0248,1.813
73.0248,1.757
73.0248,1.698
73.0248,1.654
73.0248,1.576
73.0258,1.5
73.0258,1.433
73.0258,1.447
73.0258,1.483
73.0258,1.518
73.0258,1.586
73.0268,1.615
73.0268,1.664
73.0268,1.729
73.0268,1.794
73.0268,1.76
73.0268,1.7
73.0268,1.65
73.0278,1.559
73.0278,1.441
73.0278,1.452
73.0278,1.47
73.0278,1.478
73.0278,1.531
73.0278,1.585
73.0288,1.673
73.0288,1.747
73.0288,1.797
73.0288,1.816
73.0288,1.756
73.0288,1.658
73.0288,1.587
73.0298,1.551
73.0298,1.495
73.0298,1.433
73.0298,1.447
73.0298,1.459
73.0298,1.505
73.0298,1.547
73.0308,1.602
73.0308,1.646
73.0308,1.722
73.0308,1.792
73.0318,1.747
73.0318,1.68
73.0318,1.626
73.0318,1.562
73.0318,1.52
73.0318,1.387
73.0318,1.399
73.0328,1.418
73.0328,1.414
73.0328,1.459
73.0328,1.516
73.0328,1.617
73.0337,1.685
73.0337,1.752
73.0337,1.778
73.0337,1.746
73.0337,1.648
73.0337,1.588
73.0337,1.542
73.0337,1.494
73.0347,1.416
73.0347,1.438
73.0347,1.472
73.0347,1.514
73.0347,1.556
73.0347,1.609
73.0347,1.656
73.0357,1.719
73.0357,1.814
73.0368,1.78
73.0368,1.717
73.0368,1.659
73.0368,1.607
73.0377,1.516
73.0377,1.443
73.0377,1.445
73.0377,1.467
73.0387,1.479
73.0387,1.516
73.0397,1.613
73.0397,1.655
73.0407,1.728
73.0407,1.781
73.0407,1.814
73.0417,1.782
73.0417,1.665
73.0417,1.626
73.0417,1.578
73.0427,1.512
73.0427,1.439
73.0427,1.455
73.0427,1.484
73.0427,1.511
73.0427,1.572
73.0427,1.614
73.0427,1.658
73.0437,1.799
73.0437,1.828
73.0437,1.796
73.0437,1.733
73.0437,1.682
73.0437,1.637
73.0447,1.534
73.0447,1.462
73.0447,1.454
73.0447,1.476
73.0447,1.478
73.0447,1.515
73.0457,1.621
73.0457,1.651
73.0457,1.721
73.0457,1.783
73.0457,1.82
73.0457,1.781
73.0457,1.687
73.0467,1.631
73.0467,1.595
73.0467,1.537
73.0467,1.465
73.0467,1.452
73.0467,1.481
73.0477,1.513
73.0477,1.561
73.0477,1.609
73.0477,1.648
73.0477,1.721
73.0477,1.829
73.0487,1.802
73.0487,1.73
73.0487,1.683
73.0487,1.636
73.0487,1.592
73.0487,1.472
73.0487,1.44
73.0497,1.442
73.0497,1.435
73.0497,1.447
73.0497,1.469
73.0497,1.484
73.0507,1.505
73.0507,1.551
73.0507,1.604
73.0507,1.545
73.0507,1.417
73.0517,1.28
73.0517,1.253
73.0517,1.251
73.0517,1.264
73.0517,1.443
73.0517,1.622
73.0527,1.668
73.0527,1.682
73.0527,1.713
73.0527,1.812
73.0527,1.904
73.0527,2.109
73.0537,2.392
73.0537,2.328
73.0537,2.27
73.0537,2.166
73.0537,2.079
73.0537,2.028
73.0537,1.901
73.0537,1.936
73.0547,1.951
73.0547,1.928
73.0547,1.934
73.0547,1.946
73.0547,1.994
73.0557,2.023
73.0557,2.045
73.0557,2.006
73.0567,1.908
73.0567,1.83
73.0567,1.654
73.0567,1.603
73.0567,1.499
73.0567,1.437
73.0577,1.459
73.0577,1.453
73.0577,1.514
73.0577,1.573
73.0577,1.611
73.0587,1.665
73.0587,1.731
73.8087,1.774
73.8097,1.695
73.8097,1.644
73.8097,1.583
73.8107,1.55
73.8107,1.489
73.8107,1.409
73.8107,1.381
73.8117,1.406
73.8117,1.429
73.8117,1.462
73.8117,1.502
73.8127,1.552
73.8127,1.688
73.8127,1.746
73.8127,1.728
73.8137,1.666
73.8137,1.613
73.8137,1.576
73.8137,1.476
73.8147,1.394
73.8147,1.355
73.8147,1.37
73.8147,1.394
73.8157,1.396
73.8157,1.506
73.8157,1.549
73.8157,1.598
73.8167,1.668
73.8167,1.73
73.8167,1.707
73.8167,1.605
73.8177,1.548
73.8177,1.5
73.8177,1.455
73.8186,1.374
73.8186,1.336
73.8186,1.375
73.8186,1.389
73.8196,1.431
73.8196,1.483
73.8196,1.533
73.8196,1.579
73.8206,1.712
73.8236,1.712
73.8276,1.663
73.8336,1.598
73.8416,1.538
73.8426,1.488
73.8456,1.369
73.8456,1.327
73.8466,1.358
73.8466,1.37
73.8466,1.374
73.8466,1.421
73.8476,1.502
73.8476,1.553
73.8476,1.617
73.8476,1.692
73.8476,1.676
73.8486,1.641
73.8486,1.541
73.8486,1.48
73.8486,1.445
73.8486,1.366
73.8496,1.313
73.8496,1.361
73.8496,1.359
73.8496,1.402
73.8506,1.451
73.8506,1.491
73.8506,1.538
73.8506,1.668
73.8516,1.683
73.8516,1.624
73.8516,1.568
73.8516,1.521
73.8526,1.473
73.8526,1.354
73.8526,1.293
73.8526,1.315
73.8536,1.342
73.8536,1.334
73.8536,1.365
73.8536,1.464
73.8536,1.502
73.8546,1.57
73.8546,1.632
73.8546,1.663
73.8546,1.599
73.8556,1.48
73.8556,1.427
73.8556,1.376
73.8566,1.317
73.8566,1.275
73.8566,1.286
73.8566,1.29
73.8575,1.317
73.8575,1.358
73.8575,1.406
73.8575,1.442
73.8575,1.517
73.8585,1.586
73.8585,1.542
73.8585,1.467
73.8585,1.42
73.8595,1.36
73.8595,1.27
73.8595,1.25
73.8595,1.261
73.8605,1.266
73.8605,1.257
73.8605,1.269
73.8605,1.303
73.8615,1.375
73.8615,1.44
73.8615,1.508
73.8615,1.531
73.8615,1.488
73.8625,1.367
73.8625,1.328
73.8625,1.295
73.8625,1.262
73.8635,1.246
73.8635,1.25
73.8635,1.253
73.8635,1.26
73.8645,1.285
73.8645,1.325
73.8645,1.368
73.8645,1.437
73.8645,1.499
73.8655,1.497
73.8655,1.433
73.8655,1.391
73.8655,1.342
73.8665,1.302
73.8665,1.25
73.8665,1.257
73.8665,1.262
73.8675,1.259
73.8675,1.277
73.8675,1.313
73.8675,1.402
73.8685,1.475
73.8685,1.553
73.8685,1.604
73.8685,1.57
73.8685,1.498
73.8695,1.415
73.8695,1.375
73.8695,1.319
73.8695,1.273
73.8705,1.292
73.8705,1.312
73.8705,1.35
73.8705,1.396
73.8715,1.447
73.8715,1.491
73.8715,1.572
73.8715,1.639
73.8715,1.655
73.8725,1.594
73.8725,1.548
73.8725,1.504
73.8735,1.461
73.8735,1.405
73.8735,1.345
73.8735,1.373
73.8745,1.388
73.8745,1.419
73.8745,1.475
73.8745,1.518
73.8745,1.628
73.8755,1.701
73.8755,1.76
73.8755,1.727
73.8755,1.651
73.8755,1.61
73.8765,1.525
73.8765,1.466
73.8765,1.386
73.8765,1.379
73.8775,1.423
73.8775,1.43
73.8775,1.507
73.8775,1.542
73.8785,1.585
73.8785,1.653
73.8785,1.719
73.8785,1.746
73.8795,1.665
73.8795,1.614
73.8795,1.573
73.8795,1.532
73.8805,1.481
73.8805,1.365
73.8805,1.405
73.8805,1.407
73.8805,1.437
73.8815,1.481
73.8815,1.528
73.8815,1.624
73.8815,1.694
73.8825,1.746
73.8825,1.728
73.8825,1.656
73.8825,1.613
73.8835,1.506
73.8835,1.459
73.8835,1.379
73.8835,1.369
73.8835,1.39
73.8845,1.393
73.8845,1.463
73.8845,1.507
73.8845,1.553
73.8855,1.613
73.8855,1.675
73.8855,1.729
73.8855,1.643
73.8944,1.592
73.8944,1.539
73.8944,1.494
73.8944,1.451
73.8954,1.343
73.8954,1.365
73.8954,1.375
73.8954,1.397
73.8954,1.443
73.8964,1.485
73.8964,1.58
73.8964,1.649
73.8964,1.705
73.8974,1.688
73.8974,1.63
73.8974,1.583
73.8974,1.476
73.8984,1.43
73.8984,1.352
73.8984,1.326
73.8984,1.342
73.8984,1.355
73.8994,1.422
73.8994,1.474
73.8994,1.519
73.8994,1.57
73.9004,1.636
73.9004,1.703
73.9004,1.62
73.9004,1.579
73.9004,1.525
73.9014,1.475
73.9014,1.425
73.9014,1.355
73.9014,1.342
73.9024,1.348
73.9024,1.367
73.9024,1.411
73.9024,1.461
73.9024,1.509
73.9034,1.633
73.9034,1.689
73.9034,1.676
73.9034,1.624
73.9044,1.568
73.9044,1.522
73.9044,1.431
73.9044,1.356
73.9054,1.324
73.9054,1.352
73.9054,1.37
73.9054,1.423
73.9064,1.474
73.9064,1.519
73.9064,1.569
73.9064,1.636
73.9074,1.696
73.9074,1.629
73.9074,1.578
73.9084,1.53
73.9084,1.48
73.9084,1.438
73.9084,1.357
73.9084,1.342
73.9094,1.346
73.9094,1.355
73.9094,1.402
73.9094,1.453
73.9104,1.505
73.9104,1.62
73.9104,1.67
73.9104,1.672
73.9114,1.626
73.9114,1.556
73.9114,1.504
73.9114,1.4
73.9124,1.33
73.9124,1.288
73.9124,1.305
73.9124,1.331
73.9134,1.331
73.9134,1.43
73.9134,1.476
73.9134,1.526
73.9144,1.593
73.9144,1.663
73.9144,1.664
73.9144,1.572
73.9154,1.518
73.9154,1.475
73.9154,1.445
73.9154,1.369
73.9154,1.313
73.9164,1.361
73.9164,1.376
73.9164,1.42
73.9164,1.478
73.9174,1.518
73.9174,1.567
73.9174,1.712
73.9174,1.728
73.9184,1.672
73.9184,1.613
73.9184,1.566
73.9184,1.479
73.9184,1.342
73.9194,1.354
73.9194,1.38
73.9194,1.435
73.9194,1.481
73.9194,1.529
73.9204,1.572
73.9204,1.642
73.9204,1.71
73.9204,1.684
73.9214,1.625
73.9214,1.577
73.9214,1.527
73.9214,1.489
73.9214,1.416
73.9224,1.369
73.9224,1.393
73.9224,1.396
73.9224,1.44
73.9234,1.488
73.9234,1.545
73.9234,1.659
73.9234,1.727
73.9244,1.736
73.9244,1.699
73.9244,1.641
73.9244,1.588
73.9244,1.499
73.9254,1.424
73.9254,1.355
73.9254,1.379
73.9254,1.396
73.9264,1.397
73.9264,1.487
73.9264,1.541
73.9264,1.578
73.9274,1.657
73.9274,1.723
73.9274,1.703
73.9274,1.641
73.9284,1.599
73.9284,1.545
73.9284,1.498
73.9284,1.432
73.9284,1.371
73.9294,1.388
73.9294,1.4
73.9294,1.447
73.9294,1.501
73.9304,1.56
73.9323,1.667
73.9343,1.716
73.9413,1.727
73.9443,1.7
73.9493,1.639
73.9513,1.582
73.9533,1.5
73.9543,1.419
73.9543,1.32
73.9553,1.306
73.9553,1.302
73.9553,1.273
73.9553,1.26
73.9563,1.269
73.9563,1.277
73.9563,1.298
73.9563,1.323
73.9573,1.304
73.9573,1.248
73.9573,1.241
73.9573,1.241
73.9583,1.264
73.9583,1.401
73.9583,1.456
73.9583,1.423
73.9593,1.422
73.9593,1.495
73.9593,1.638
73.9593,1.739
73.9593,1.927
73.9603,2.244
73.9603,2.264
73.9603,2.238
73.9603,2.174
73.9613,2.137
73.9613,2.073
73.9613,1.963
73.9613,1.887
73.9623,1.864
73.9623,1.867
73.9623,1.854
73.9623,1.841
73.9623,1.871
73.9633,1.891
73.9633,1.921
73.9633,1.946
73.9633,1.95
73.9643,1.9
73.9643,1.719
73.9643,1.639
73.9643,1.575
73.9643,1.506
73.9653,1.409
73.9653,1.404
73.9653,1.432
73.9653,1.466
73.9663,1.509
73.9663,1.556
73.9663,1.599
73.9663,1.661
73.9673,1.757
73.9673,1.732
73.9673,1.658
73.9673,1.604
73.9673,1.55
73.9683,1.509
73.9683,1.363
73.9683,1.346
73.9683,1.363
73.9692,1.387
73.9692,1.411
73.9692,1.459
73.9692,1.551
73.9692,1.611
73.9702,1.681
73.9702,1.726
73.9702,1.702
73.9702,1.637
73.9712,1.545
73.9712,1.491
73.9712,1.443
73.9712,1.364
73.9712,1.345
73.9722,1.372
73.9722,1.393
73.9722,1.444
73.9732,1.497
73.9732,1.539
73.9732,1.595
73.9732,1.665
73.9742,1.715
73.9742,1.634
73.9742,1.586
73.9742,1.537
73.9742,1.496
73.9752,1.442
73.9752,1.336
73.9752,1.359
73.9752,1.378
73.9762,1.403
73.9762,1.451
73.9762,1.497
73.9762,1.598
73.9762,1.665
73.9772,1.722
73.9772,1.703
73.9772,1.642
73.9772,1.595
73.9772,1.488
73.9782,1.449
73.9782,1.375
73.9782,1.342
73.9782,1.364
73.9792,1.383
73.9792,1.442
73.9792,1.488
73.9792,1.535
73.9802,1.594
73.9802,1.664
73.9802,1.727
73.9802,1.653
73.9802,1.599
73.9812,1.552
73.9812,1.513
73.9812,1.459
73.9812,1.381
73.9812,1.351
73.9822,1.385
73.9822,1.404
73.9822,1.446
73.9822,1.502
73.9832,1.545
73.9832,1.601
73.9832,1.728
73.9832,1.731
73.9832,1.681
73.9842,1.609
73.9842,1.56
73.9842,1.523
73.9842,1.392
73.9852,1.355
73.9852,1.377
73.9852,1.404
73.9852,1.409
73.9852,1.454
73.9862,1.55
73.9862,1.598
73.9862,1.664
73.9862,1.724
73.9872,1.719
73.9872,1.606
73.9872,1.554
73.9872,1.511
73.9882,1.466
73.9882,1.388
73.9882,1.339
73.9892,1.378
73.9892,1.396
73.9892,1.431
73.9892,1.483
73.9892,1.522
73.9902,1.563
73.9902,1.691
73.9902,1.699
73.9902,1.652
73.9912,1.582
73.9912,1.533
73.9912,1.482
73.9912,1.354
73.9922,1.309
73.9922,1.325
73.9922,1.335
73.9922,1.349
73.9932,1.394
73.9932,1.48
73.9932,1.528
73.9932,1.599
73.9942,1.67
73.9942,1.668
73.9942,1.618
73.9942,1.504
73.9952,1.456
73.9952,1.42
73.9952,1.347
73.9952,1.296
73.9962,1.307
73.9962,1.348
73.9962,1.383
73.9962,1.427
73.9962,1.479
73.9972,1.52
73.9972,1.664
73.9972,1.668
73.9972,1.626
73.9982,1.568
73.9982,1.523
73.9982,1.463
73.9982,1.35
73.9982,1.302
73.9992,1.324
73.9992,1.332
73.9992,1.349
73.9992,1.389
74.0002,1.49
74.0002,1.529
74.0002,1.605
74.0002,1.674
74.0002,1.687
74.0012,1.655
74.0012,1.551
74.0012,1.5
74.0012,1.457
74.0022,1.401
74.0022,1.341
74.0022,1.355
74.0022,1.395
74.0022,1.436
74.0032,1.493
74.0032,1.547
74.0032,1.592
74.0032,1.67
74.0042,1.759
74.0042,1.72
74.0042,1.658
74.0042,1.612
74.0042,1.557
74.0052,1.522
74.0052,1.386
74.0052,1.401
74.0052,1.422
74.0061,1.438
74.0061,1.481
74.0061,1.526
74.0061,1.628
74.0071,1.698
74.0071,1.765
74.0071,1.789
74.0071,1.77
74.0081,1.65
74.0081,1.6
74.0081,1.558
74.0081,1.493
74.0081,1.427
74.0241,1.429
74.0251,1.469
74.0251,1.501
74.0251,1.55
74.0251,1.606
74.0251,1.645
74.0261,1.711
74.0261,1.796
74.0261,1.771
74.0261,1.71
74.0271,1.665
74.0271,1.608
74.0271,1.564
74.0271,1.438
74.0281,1.434
74.0281,1.455
74.0281,1.467
74.0291,1.506
74.0291,1.555
74.0291,1.634
74.0291,1.709
74.0301,1.771
74.0301,1.8
74.0301,1.778
74.0301,1.666
74.0311,1.614
74.0311,1.571
74.0311,1.512
74.0321,1.442
74.0321,1.432
74.0321,1.469
74.0321,1.506
74.0321,1.551
74.0331,1.6
74.0331,1.637
74.0331,1.704
74.0331,1.81
74.0341,1.786
74.0341,1.714
74.0341,1.676
74.0341,1.62
74.0341,1.52
74.0371,1.441
74.0381,1.43
74.0381,1.463
74.0381,1.467
74.0381,1.504
74.0391,1.594
74.0391,1.633
74.0391,1.702
74.0391,1.77
74.0401,1.806
74.0401,1.793
74.0401,1.673
74.0401,1.625
74.0411,1.571
74.0440,1.526
74.0450,1.446
74.0520,1.431
74.0620,1.472
74.0630,1.496
74.0660,1.544
74.0660,1.598
74.0660,1.638
74.0670,1.763
74.0670,1.824
74.0670,1.782
74.0670,1.725
74.0680,1.683
74.0680,1.622
74.0680,1.527
74.0680,1.446
74.0680,1.432
74.0690,1.45
74.0690,1.47
74.0690,1.501
74.0690,1.595
74.0700,1.643
74.0700,1.705
74.0700,1.766
74.0700,1.811
74.0710,1.793
74.0710,1.688
74.0710,1.635
74.0710,1.59
74.0720,1.547
74.0720,1.462
74.0730,1.436
74.0730,1.483
74.0730,1.506
74.0740,1.551
74.0740,1.609
74.0740,1.643
74.0740,1.775
74.0740,1.828
74.0750,1.8
74.0750,1.742
74.0750,1.705
74.0750,1.65
74.0750,1.555
74.0760,1.469
74.0760,1.432
74.0760,1.474
74.0760,1.484
74.0760,1.511
74.0770,1.609
74.0770,1.651
74.0770,1.709
74.0770,1.787
74.0770,1.844
74.0780,1.822
74.0780,1.706
74.0780,1.662
74.0780,1.609
74.0780,1.56
74.0790,1.489
74.0790,1.465
74.0790,1.486
74.0790,1.51
74.0790,1.556
74.0799,1.598
74.0799,1.631
74.0799,1.759
74.0799,1.81
74.0799,1.811
74.0809,1.748
74.0809,1.688
74.0809,1.638
74.0809,1.537
74.0819,1.453
74.0819,1.416
74.0819,1.43
74.0819,1.454
74.0819,1.469
74.0829,1.556
74.0829,1.604
74.0829,1.659
74.0829,1.738
74.0839,1.792
74.0839,1.781
74.0839,1.682
74.0839,1.64
74.0839,1.598
74.0849,1.567
74.0849,1.474
74.0849,1.461
74.0849,1.476
74.0859,1.507
74.0859,1.555
74.0859,1.609
74.0859,1.663
74.0859,1.783
74.0869,1.843
74.0869,1.837
74.0869,1.793
74.0869,1.745
74.0869,1.691
74.0879,1.596
74.0879,1.517
74.0879,1.474
74.0879,1.491
74.0889,1.508
74.0889,1.528
74.0899,1.623
74.0899,1.672
74.0899,1.718
74.0899,1.786
74.0909,1.852
74.0909,1.854
74.0909,1.75
74.0909,1.705
74.0919,1.656
74.0919,1.615
74.0919,1.539
74.0919,1.502
74.0919,1.525
74.0929,1.54
74.0929,1.579
74.0929,1.634
74.0929,1.681
74.0939,1.798
74.0939,1.861
74.0939,1.869
74.0939,1.819
74.0949,1.773
74.0949,1.719
74.0949,1.645
74.0949,1.557
74.0949,1.49
74.0959,1.51
74.0959,1.536
74.0959,1.551
74.0959,1.642
74.0969,1.685
74.0969,1.725
74.0969,1.799
74.0969,1.865
74.0969,1.871
74.0979,1.773
74.0979,1.727
74.0979,1.675
74.0979,1.638
74.0989,1.556
74.0989,1.53
74.0989,1.551
74.0989,1.59
74.0989,1.638
74.7202,1.742
74.7202,1.816
74.7202,1.873
74.7202,1.875
74.7212,1.82
74.7212,1.755
74.7212,1.656
74.7222,1.607
74.7222,1.548
74.7222,1.475
74.7232,1.469
74.7232,1.451
74.7232,1.404
74.7232,1.409
74.7242,1.387
74.7242,1.386
74.7242,1.423
74.7242,1.438
74.7252,1.348
74.7252,1.281
74.7252,1.252
74.7252,1.242
74.7262,1.242
74.7262,1.244
74.7262,1.49
74.7262,1.593
74.7262,1.604
74.7272,1.614
74.7272,1.701
74.7272,1.844
74.7272,2.082
74.7282,2.253
74.7282,2.409
74.7282,2.43
74.7282,2.399
74.7282,2.319
74.7292,2.206
74.7292,2.112
74.7292,2.01
74.7292,2.019
74.7302,2.065
74.7302,2.026
74.7302,2.042
74.7302,2.056
74.7312,2.062
74.7312,2.105
74.7312,2.139
74.7312,2.07
74.7312,1.957
74.7322,1.877
74.7322,1.79
74.7322,1.727
74.7322,1.663
74.7332,1.565
74.7332,1.583
74.7332,1.595
74.7332,1.619
74.7332,1.668
74.7342,1.715
74.7342,1.833
74.7342,1.888
74.7342,1.917
74.7352,1.887
74.7352,1.807
74.7352,1.697
74.7352,1.662
74.7362,1.591
74.7362,1.502
74.7362,1.494
74.7362,1.526
74.7372,1.568
74.7372,1.619
74.7372,1.669
74.7372,1.704
74.7372,1.772
74.7382,1.837
74.7382,1.848
74.7382,1.783
74.7382,1.728
74.7392,1.677
74.7392,1.631
74.7392,1.577
74.7402,1.487
74.7402,1.509
74.7402,1.528
74.7402,1.556
74.7402,1.599
74.7412,1.693
74.7412,1.755
74.7412,1.82
74.7412,1.865
74.7422,1.84
74.7422,1.778
74.7422,1.685
74.7422,1.639
74.7432,1.589
74.7432,1.512
74.7432,1.498
74.7432,1.505
74.7432,1.552
74.7442,1.609
74.7442,1.657
74.7442,1.698
74.7442,1.757
74.7452,1.824
74.7452,1.852
74.7452,1.791
74.7452,1.749
74.7462,1.688
74.7462,1.646
74.7462,1.6
74.7462,1.495
74.7462,1.532
74.7472,1.543
74.7472,1.563
74.7472,1.61
74.7472,1.663
74.7482,1.765
74.7482,1.832
74.7482,1.88
74.7482,1.87
74.7482,1.804
74.7492,1.755
74.7492,1.663
74.7492,1.607
74.7492,1.527
74.7502,1.505
74.7502,1.529
74.7502,1.548
74.7502,1.623
74.7512,1.673
74.7512,1.709
74.7512,1.774
74.7512,1.838
74.7512,1.896
74.7522,1.82
74.7522,1.774
74.7522,1.723
74.7522,1.67
74.7532,1.626
74.7532,1.544
74.7532,1.537
74.7532,1.553
74.7532,1.579
74.7541,1.638
74.7541,1.672
74.7541,1.719
74.7541,1.844
74.7551,1.888
74.7551,1.884
74.7551,1.825
74.7551,1.775
74.7561,1.722
74.7561,1.63
74.7561,1.549
74.7561,1.509
74.7561,1.527
74.7571,1.542
74.7571,1.565
74.7571,1.66
74.7571,1.702
74.7571,1.76
74.7581,1.828
74.7581,1.879
74.7581,1.86
74.7581,1.754
74.7591,1.703
74.7591,1.653
74.7591,1.603
74.7591,1.522
74.7601,1.478
74.7601,1.508
74.7601,1.52
74.7601,1.565
74.7611,1.613
74.7611,1.659
74.7611,1.708
74.7611,1.836
74.7621,1.827
74.7621,1.779
74.7621,1.734
74.7621,1.665
74.7631,1.62
74.7631,1.493
74.7631,1.445
74.7631,1.465
74.7641,1.505
74.7641,1.508
74.7641,1.554
74.7641,1.644
74.7651,1.69
74.7651,1.762
74.7651,1.825
74.7651,1.822
74.7661,1.775
74.7661,1.665
74.7661,1.614
74.7661,1.578
74.7671,1.499
74.7671,1.443
74.7671,1.478
74.7671,1.499
74.7671,1.545
74.7681,1.601
74.7681,1.65
74.7681,1.701
74.7681,1.836
74.7691,1.841
74.7691,1.793
74.7691,1.734
74.7691,1.687
74.7691,1.638
74.7701,1.523
74.7701,1.471
74.7701,1.496
74.7701,1.506
74.7711,1.529
74.7711,1.575
74.7711,1.676
74.7711,1.723
74.7721,1.794
74.7721,1.86
74.7721,1.872
74.7721,1.833
74.7721,1.733
74.7731,1.681
74.7731,1.643
74.7731,1.559
74.7731,1.507
74.7741,1.549
74.7741,1.567
74.7741,1.618
74.7741,1.666
74.7741,1.709
74.7751,1.762
74.7751,1.893
74.7751,1.907
74.7751,1.872
74.7761,1.812
74.7761,1.765
74.7761,1.716
74.7761,1.599
74.7771,1.537
74.7771,1.561
74.7771,1.569
74.7771,1.582
74.7771,1.628
74.7781,1.725
74.7781,1.765
74.7781,1.84
74.7781,1.898
74.7781,1.912
74.7791,1.819
74.7791,1.773
74.7791,1.722
74.7791,1.674
74.7801,1.61
74.7801,1.544
74.7801,1.575
74.7801,1.589
74.7811,1.623
74.7811,1.679
74.7811,1.724
74.7821,1.77
74.7821,1.904
74.7821,1.922
74.7831,1.892
74.7831,1.829
74.7831,1.786
74.7841,1.723
74.7841,1.633
74.7841,1.552
74.7841,1.559
74.7851,1.596
74.7851,1.602
74.7851,1.682
74.7851,1.734
74.7861,1.76
74.7861,1.838
74.7861,1.904
74.7871,1.929
74.7871,1.84
74.7871,1.78
74.7881,1.733
74.7881,1.69
74.7891,1.625
74.7891,1.556
74.7891,1.587
74.7891,1.599
74.7901,1.626
74.7901,1.676
74.7901,1.727
74.7910,1.767
74.7910,1.901
74.7910,1.937
74.7920,1.904
74.7920,1.83
74.7920,1.787
74.7930,1.739
74.7930,1.646
74.7930,1.57
74.7930,1.57
74.7930,1.583
74.7940,1.587
74.7940,1.672
74.7940,1.723
74.7940,1.757
74.7950,1.832
74.7950,1.895
74.7950,1.928
74.7950,1.832
74.7950,1.79
74.7960,1.74
74.7960,1.696
74.7960,1.634
74.7960,1.569
74.7960,1.578
74.7970,1.592
74.7970,1.619
74.7970,1.662
74.7980,1.707
74.7980,1.756
74.7980,1.89
74.7980,1.929
74.7990,1.909
74.7990,1.838
74.7990,1.803
74.8000,1.694
74.8000,1.635
74.8000,1.557
74.8000,1.56
74.8010,1.586
74.8010,1.588
74.8010,1.672
74.8020,1.712
74.8020,1.753
74.8020,1.819
74.8020,1.879
74.8030,1.93
74.8030,1.837
74.8030,1.798
74.8040,1.741
74.8040,1.7
74.8040,1.652
74.8040,1.565
74.8070,1.576
74.8090,1.592
74.8170,1.626
74.8200,1.665
74.8250,1.706
74.8270,1.756
74.8289,1.886
74.8299,1.939
74.8299,1.936
74.8299,1.851
74.8299,1.803
74.8309,1.75
74.8309,1.643
74.8309,1.576
74.8319,1.554
74.8319,1.575
74.8319,1.589
74.8319,1.661
74.8319,1.707
74.8329,1.752
74.8329,1.815
74.8329,1.88
74.8329,1.941
74.8339,1.849
74.8339,1.807
74.8339,1.751
74.8339,1.697
74.8349,1.652
74.8349,1.573
74.8349,1.577
74.8349,1.581
74.8359,1.593
74.8359,1.641
74.8359,1.693
74.8359,1.71
74.8359,1.841
74.8369,1.899
74.8369,1.895
74.8369,1.825
74.8369,1.773
74.8379,1.72
74.8379,1.619
74.8379,1.541
74.8379,1.502
74.8389,1.522
74.8389,1.535
74.8389,1.607
74.8399,1.658
74.8399,1.702
74.8399,1.765
74.8399,1.83
74.8409,1.898
74.8409,1.829
74.8409,1.79
74.8419,1.732
74.8419,1.688
74.8419,1.655
74.8419,1.569
74.8419,1.564
74.8429,1.583
74.8429,1.605
74.8429,1.653
74.8429,1.707
74.8439,1.805
74.8439,1.872
74.8439,1.932
74.8439,1.929
74.8439,1.869
74.8449,1.814
74.8449,1.718
74.8449,1.678
74.8449,1.602
74.8459,1.56
74.8459,1.581
74.8459,1.603
74.8459,1.67
74.8469,1.71
74.8469,1.75
74.8469,1.805
74.8469,1.89
74.8479,1.938
74.8479,1.886
74.8479,1.827
74.8479,1.778
74.8479,1.728
74.8489,1.681
74.8489,1.565
74.8489,1.59
74.8489,1.613
74.8499,1.621
74.8499,1.669
74.8499,1.713
74.8499,1.811
74.8499,1.891
74.8509,1.949
74.8509,1.945
74.8509,1.893
74.8509,1.844
74.8519,1.741
74.8519,1.705
74.8519,1.627
74.8519,1.578
74.8529,1.589
74.8529,1.608
74.8529,1.666
74.8539,1.717
74.8539,1.769
74.8539,1.823
74.8539,1.887
74.8549,1.946
74.8549,1.892
74.8549,1.831
74.8549,1.795
74.8559,1.747
74.8559,1.713
74.8559,1.569
74.8569,1.594
74.8569,1.613
74.8569,1.637
74.8569,1.688
74.8579,1.733
74.8579,1.829
74.8579,1.871
74.8579,1.932
74.8589,1.927
74.8589,1.896
74.8589,1.835
74.8589,1.73
74.8599,1.671
74.8599,1.569
74.8599,1.454
74.8599,1.429
74.8599,1.406
74.8609,1.346
74.8609,1.355
74.8609,1.362
74.8619,1.373
74.8619,1.397
74.8619,1.424
74.8619,1.354
74.8619,1.308
74.8629,1.335
74.8629,1.491
74.8629,1.697
74.8629,1.643
74.8639,1.616
74.8639,1.683
74.8639,1.898
74.8639,2.202
74.8649,2.376
74.8649,2.486
75.4024,2.564
75.4064,2.56
75.4064,2.52
75.4064,2.379
75.4064,2.297
75.4074,2.249
75.4074,2.173
75.4074,2.089
75.4084,2.031
75.4084,2.013
75.4084,2.025
75.4084,2.039
75.4094,2.058
75.4094,2.064
75.4094,2.12
75.4094,2.098
75.4104,2.029
75.4104,1.937
75.4104,1.883
75.4104,1.825
75.4104,1.694
75.4114,1.619
75.4114,1.622
75.4114,1.638
75.4114,1.656
75.4124,1.696
75.4124,1.788
75.4124,1.82
75.4124,1.89
75.4134,1.946
75.4134,1.955
75.4134,1.92
75.4134,1.809
75.4134,1.761
75.4144,1.716
75.4144,1.656
75.4144,1.553
75.4144,1.585
75.4154,1.599
75.4154,1.64
75.4154,1.68
75.4154,1.73
75.4164,1.774
75.4164,1.897
75.4164,1.932
75.4174,1.907
75.4174,1.834
75.4174,1.791
75.4174,1.736
75.4184,1.639
75.4184,1.563
75.4194,1.553
75.4194,1.58
75.4194,1.597
75.4194,1.625
75.4194,1.722
75.4194,1.753
75.4204,1.832
75.4204,1.901
75.4204,1.929
75.4204,1.906
75.4214,1.788
75.4214,1.737
75.4214,1.689
75.4214,1.636
75.4224,1.559
75.4224,1.571
75.4224,1.585
75.4224,1.623
75.4234,1.669
75.4234,1.718
75.4234,1.76
75.4234,1.886
75.4234,1.931
75.4244,1.917
75.4244,1.845
75.4244,1.79
75.4244,1.743
75.4244,1.641
75.4253,1.566
75.4253,1.552
75.4253,1.576
75.4253,1.593
75.4263,1.675
75.4263,1.718
75.4263,1.761
75.4263,1.827
75.4263,1.894
75.4273,1.948
75.4273,1.852
75.4273,1.807
75.4273,1.751
75.4273,1.706
75.4283,1.664
75.4283,1.573
75.4283,1.581
75.4283,1.591
75.4293,1.621
75.4293,1.669
75.4293,1.724
75.4293,1.763
75.4303,1.886
75.4303,1.939
75.4303,1.92
75.4313,1.855
75.4313,1.807
75.4313,1.757
75.4313,1.663
75.4323,1.579
75.4323,1.547
75.4323,1.569
75.4323,1.6
75.4323,1.616
75.4333,1.71
75.4333,1.765
75.4333,1.809
75.4333,1.871
75.4333,1.932
75.4343,1.906
75.4343,1.808
75.4343,1.749
75.4343,1.688
75.4343,1.644
75.4353,1.57
75.4353,1.533
75.4353,1.571
75.4363,1.596
75.4363,1.633
75.4363,1.692
75.4363,1.729
75.4373,1.774
75.4373,1.898
75.4373,1.871
75.4373,1.811
75.4383,1.76
75.4383,1.709
75.4393,1.654
75.4393,1.518
75.4393,1.483
75.4393,1.506
75.4403,1.524
75.4403,1.543
75.4403,1.582
75.4403,1.683
75.4413,1.735
75.4413,1.799
75.4413,1.849
75.4413,1.845
75.4423,1.782
75.4423,1.681
75.4423,1.634
75.4423,1.586
75.4423,1.513
75.4433,1.476
75.4433,1.495
75.4433,1.526
75.4433,1.578
75.4443,1.627
75.4443,1.676
75.4443,1.722
75.4443,1.8
75.4453,1.85
75.4453,1.806
75.4453,1.736
75.4453,1.691
75.4463,1.65
75.4463,1.607
75.4463,1.486
75.4463,1.511
75.4473,1.526
75.4473,1.541
75.4473,1.586
75.4473,1.651
75.4483,1.746
75.4483,1.804
75.4483,1.878
75.4483,1.879
75.4493,1.834
75.4493,1.767
75.4493,1.68
75.4493,1.644
75.4503,1.57
75.4503,1.52
75.4503,1.532
75.4503,1.572
75.4513,1.634
75.4513,1.691
75.4513,1.736
75.4513,1.784
75.4513,1.876
75.4523,1.934
75.4523,1.901
75.4523,1.839
75.4523,1.772
75.4523,1.729
75.4533,1.692
75.4533,1.624
75.4533,1.586
75.4543,1.626
75.4543,1.621
75.4543,1.675
75.4543,1.736
75.4553,1.771
75.4553,1.904
75.4553,1.973
75.4553,1.967
75.4563,1.924
75.4563,1.87
75.4563,1.758
75.4563,1.718
75.4573,1.658
75.4573,1.598
75.4573,1.625
75.4573,1.633
75.4583,1.702
75.4583,1.734
75.4583,1.797
75.4583,1.85
75.4593,1.91
75.4593,1.974
75.4593,1.944
75.4593,1.878
75.4593,1.833
75.4603,1.781
75.4603,1.74
75.4603,1.667
75.4603,1.607
75.4613,1.634
75.4613,1.651
75.4613,1.695
75.4613,1.751
75.4623,1.83
75.4623,1.908
75.4623,1.981
75.4623,1.979
75.4632,1.951
75.4662,1.884
75.4682,1.776
75.4742,1.733
75.4872,1.663
75.4882,1.594
75.4912,1.611
75.4912,1.632
75.4922,1.687
75.4922,1.728
75.4922,1.783
75.4922,1.827
75.4922,1.899
75.4932,1.958
75.4932,1.95
75.4932,1.865
75.4932,1.829
75.4942,1.776
75.4942,1.737
75.4942,1.668
75.4942,1.601
75.4952,1.624
75.4952,1.634
75.4952,1.676
75.4952,1.734
75.4962,1.814
75.4962,1.886
75.4962,1.952
75.4972,1.967
75.4972,1.934
75.4972,1.868
75.4972,1.778
75.4972,1.721
75.4972,1.659
75.4982,1.587
75.4982,1.598
75.4982,1.626
75.4982,1.664
75.4982,1.715
75.4992,1.764
75.4992,1.801
75.4992,1.877
75.4992,1.942
75.4992,1.935
75.5001,1.869
75.5001,1.829
75.5001,1.778
75.5001,1.729
75.5011,1.587
75.5011,1.583
75.5011,1.612
75.5011,1.628
75.5011,1.666
75.5021,1.712
75.5021,1.805
75.5021,1.875
75.5021,1.936
75.5031,1.965
75.5031,1.94
75.5031,1.867
75.5031,1.776
75.5041,1.728
75.5041,1.667
75.5041,1.593
75.5051,1.596
75.5051,1.618
75.5061,1.658
75.5061,1.708
75.5061,1.758
75.5071,1.797
75.5071,1.879
75.5071,1.935
75.5071,1.948
75.5081,1.879
75.5081,1.835
75.5081,1.785
75.5081,1.737
75.5091,1.678
75.5091,1.606
75.5091,1.611
75.5091,1.625
75.5101,1.668
75.5101,1.706
75.5101,1.801
75.5101,1.875
75.5111,1.932
75.5111,1.972
75.5111,1.956
75.5111,1.884
75.5121,1.791
75.5121,1.738
75.5121,1.682
75.5121,1.605
75.5131,1.589
75.5131,1.615
75.5131,1.658
75.5131,1.707
75.5131,1.763
75.5141,1.805
75.5141,1.865
75.5141,1.976
75.5141,1.958
75.5151,1.891
75.5151,1.837
75.5151,1.793
75.5151,1.743
75.5161,1.611
75.5161,1.583
75.5161,1.618
75.5161,1.639
75.5161,1.657
75.5171,1.71
75.5171,1.801
75.5171,1.864
75.5171,1.929
75.5181,1.98
75.5181,1.974
75.5181,1.9
75.5181,1.807
75.5181,1.755
75.5191,1.701
75.5191,1.614
75.5191,1.586
75.5191,1.631
75.5201,1.658
75.5201,1.694
75.5201,1.742
75.5201,1.785
75.5211,1.835
75.5211,1.958
75.5211,1.949
75.5211,1.881
75.5221,1.83
75.5221,1.762
75.5221,1.718
75.5221,1.59
75.5231,1.554
75.5231,1.586
75.5231,1.589
75.5231,1.616
75.5241,1.652
75.5241,1.74
75.5241,1.801
75.5241,1.871
75.5251,1.933
75.5251,1.928
75.5251,1.808
75.5251,1.764
75.5251,1.712
75.5261,1.677
75.5261,1.599
75.5261,1.562
75.5261,1.623
75.5261,1.635
75.5271,1.683
75.5271,1.743
75.5271,1.802
75.5271,1.852
75.5281,1.988
75.5281,1.979
75.5281,1.917
75.5281,1.876
75.5281,1.81
75.5291,1.767
75.5291,1.627
75.5291,1.592
75.5291,1.626
75.5301,1.64
75.5301,1.662
75.5301,1.712
75.5301,1.804
75.5311,1.84
75.5311,1.936
75.5311,1.985
75.5311,1.965
75.5311,1.869
75.5321,1.819
75.5321,1.772
75.5321,1.727
75.5321,1.649
75.5331,1.607
75.5331,1.656
75.5331,1.679
75.5331,1.72
75.5341,1.771
75.5341,1.826
75.5341,1.849
75.5341,1.984
75.5341,1.98
75.5351,1.943
75.5351,1.893
75.5351,1.841
75.5351,1.785
75.5361,1.662
75.5361,1.61
75.5361,1.626
75.5361,1.655
75.5371,1.676
75.5371,1.761
75.5371,1.818
75.5371,1.869
75.5380,1.945
75.5380,2.006
75.5380,1.991
75.5380,1.895
75.5390,1.845
75.5390,1.796
75.5390,1.749
75.5390,1.677
75.5400,1.638
75.5400,1.649
75.5400,1.681
75.5400,1.715
75.5410,1.774
75.5410,1.829
75.5410,1.88
75.5410,2.009
75.5420,2.003
75.5420,1.943
75.5420,1.89
75.5420,1.846
75.5430,1.788
75.5430,1.663
75.5430,1.602
75.5430,1.606
75.5440,1.591
75.5440,1.567
75.5440,1.554
75.5440,1.546
75.5450,1.55
75.5450,1.583
75.5450,1.616
75.5450,1.587
75.5460,1.404
75.5460,1.35
75.5460,1.279
75.5460,1.273
75.5460,1.308
75.5470,1.517
75.5470,1.743
75.5470,1.707
75.5470,1.723
75.5470,1.804
75.5480,1.976
75.5480,2.084
75.5480,2.538
75.5480,2.603
75.5490,2.55
75.5490,2.483
75.5490,2.432
75.5490,2.37
75.5490,2.238
75.5500,2.156
75.5500,2.163
75.5500,2.186
75.5500,2.155
75.5510,2.167
75.5510,2.19
75.5510,2.238
75.5510,2.262
76.0846,2.173
76.0856,2.077
76.0856,1.989
76.0856,1.913
76.0856,1.844
76.0866,1.747
76.0866,1.669
76.0866,1.68
76.0866,1.695
76.0876,1.728
76.0876,1.791
76.0876,1.832
76.0876,1.934
76.0886,2.0
76.0886,2.014
76.0886,1.981
76.0886,1.909
76.0896,1.859
76.0896,1.751
76.0896,1.689
76.0896,1.599
76.0906,1.6
76.0906,1.616
76.0906,1.638
76.0906,1.716
76.0916,1.778
76.0916,1.823
76.0916,1.886
76.0916,1.952
76.0916,1.946
76.0926,1.874
76.0926,1.832
76.0926,1.775
76.0926,1.732
76.0936,1.674
76.0936,1.589
76.0936,1.612
76.0936,1.629
76.0946,1.666
76.0946,1.71
76.0946,1.752
76.0946,1.871
76.0946,1.93
76.0956,1.966
76.0956,1.939
76.0956,1.869
76.0956,1.824
76.0966,1.727
76.0966,1.667
76.0966,1.588
76.0966,1.571
76.0966,1.602
76.0976,1.62
76.0976,1.705
76.0976,1.752
76.0976,1.786
76.0985,1.855
76.0985,1.931
76.0985,1.947
76.0985,1.873
76.0995,1.819
76.0995,1.776
76.0995,1.728
76.0995,1.672
76.0995,1.595
76.1005,1.597
76.1005,1.626
76.1005,1.644
76.1005,1.697
76.1015,1.756
76.1015,1.857
76.1015,1.918
76.1015,1.966
76.1015,1.958
76.1025,1.868
76.1025,1.81
76.1025,1.739
76.1025,1.666
76.1035,1.584
76.1035,1.576
76.1035,1.604
76.1035,1.612
76.1035,1.692
76.1045,1.736
76.1045,1.768
76.1045,1.839
76.1045,1.906
76.1055,1.937
76.1055,1.862
76.1055,1.814
76.1055,1.767
76.1065,1.715
76.1065,1.673
76.1065,1.561
76.1065,1.585
76.1075,1.594
76.1075,1.625
76.1075,1.658
76.1075,1.723
76.1075,1.827
76.1085,1.887
76.1085,1.937
76.1085,1.927
76.1085,1.854
76.1095,1.802
76.1095,1.697
76.1095,1.645
76.1095,1.565
76.1105,1.535
76.1105,1.544
76.1105,1.562
76.1105,1.642
76.1105,1.674
76.1115,1.706
76.1115,1.767
76.1115,1.845
76.1115,1.892
76.1125,1.803
76.1125,1.747
76.1125,1.688
76.1125,1.642
76.1125,1.597
76.1135,1.513
76.1135,1.472
76.1135,1.503
76.1135,1.536
76.1145,1.581
76.1145,1.625
76.1145,1.656
76.1145,1.77
76.1145,1.833
76.1155,1.823
76.1155,1.763
76.1155,1.714
76.1155,1.659
76.1165,1.551
76.1165,1.484
76.1165,1.472
76.1165,1.471
76.1175,1.478
76.1175,1.504
76.1175,1.608
76.1175,1.649
76.1175,1.702
76.1185,1.778
76.1185,1.855
76.1185,1.833
76.1185,1.712
76.1195,1.657
76.1195,1.618
76.1195,1.574
76.1195,1.487
76.1195,1.451
76.1205,1.505
76.1225,1.543
76.1245,1.565
76.1305,1.607
76.1374,1.661
76.1394,1.723
76.1414,1.87
76.1414,1.85
76.1424,1.81
76.1424,1.751
76.1424,1.698
76.1424,1.65
76.1424,1.546
76.1434,1.509
76.1434,1.544
76.1434,1.569
76.1434,1.576
76.1444,1.631
76.1444,1.713
76.1444,1.776
76.1444,1.859
76.1454,1.91
76.1454,1.932
76.1454,1.875
76.1454,1.772
76.1464,1.72
76.1464,1.673
76.1464,1.61
76.1464,1.576
76.1464,1.595
76.1474,1.634
76.1474,1.683
76.1474,1.729
76.1474,1.775
76.1484,1.824
76.1484,1.902
76.1484,1.972
76.1484,1.924
76.1494,1.877
76.1494,1.826
76.1494,1.754
76.1494,1.73
76.1494,1.601
76.1504,1.627
76.1504,1.647
76.1504,1.669
76.1504,1.697
76.1514,1.754
76.1514,1.851
76.1514,1.911
76.1514,1.992
76.1524,2.004
76.1524,1.937
76.1524,1.883
76.1524,1.785
76.1534,1.74
76.1534,1.67
76.1534,1.615
76.1534,1.638
76.1544,1.649
76.1544,1.708
76.1544,1.754
76.1554,1.798
76.1554,1.832
76.1554,1.9
76.1564,1.997
76.1564,1.958
76.1564,1.881
76.1574,1.83
76.1574,1.771
76.1574,1.736
76.1574,1.596
76.1574,1.63
76.1584,1.651
76.1584,1.649
76.1584,1.695
76.1584,1.733
76.1594,1.823
76.1594,1.898
76.1594,1.966
76.1594,1.99
76.1594,1.938
76.1604,1.882
76.1604,1.767
76.1604,1.728
76.1604,1.657
76.1614,1.583
76.1614,1.593
76.1614,1.631
76.1614,1.669
76.1624,1.728
76.1624,1.779
76.1624,1.81
76.1624,1.897
76.1624,1.983
76.1634,1.944
76.1634,1.861
76.1634,1.821
76.1634,1.763
76.1644,1.713
76.1644,1.586
76.1644,1.602
76.1644,1.615
76.1654,1.62
76.1654,1.661
76.1654,1.718
76.1654,1.808
76.1654,1.883
76.1664,1.93
76.1664,1.967
76.1664,1.933
76.1664,1.821
76.1674,1.76
76.1674,1.715
76.1674,1.65
76.1674,1.583
76.1684,1.579
76.1684,1.624
76.1684,1.648
76.1684,1.709
76.1684,1.757
76.1694,1.792
76.1694,1.869
76.1694,1.973
76.1694,1.932
76.1704,1.86
76.1704,1.824
76.1704,1.773
76.1704,1.714
76.1714,1.583
76.1714,1.591
76.1714,1.599
76.1714,1.612
76.1724,1.656
76.1724,1.704
76.1724,1.8
76.1733,1.862
76.1733,1.936
76.1733,1.977
76.1733,1.95
76.1743,1.822
76.1743,1.764
76.1743,1.729
76.1743,1.666
76.1743,1.588
76.1753,1.569
76.1753,1.618
76.1753,1.652
76.1753,1.7
76.1753,1.752
76.1763,1.783
76.1763,1.857
76.1763,1.976
76.1763,1.947
76.1773,1.877
76.1773,1.824
76.1773,1.771
76.1773,1.722
76.1773,1.592
76.1783,1.586
76.1783,1.609
76.1783,1.618
76.1783,1.655
76.1793,1.741
76.1793,1.784
76.1793,1.849
76.1793,1.916
76.1793,1.968
76.1803,1.943
76.1803,1.831
76.1803,1.772
76.1803,1.717
76.1813,1.676
76.1813,1.588
76.1813,1.575
76.1813,1.626
76.1823,1.641
76.1823,1.68
76.1823,1.741
76.1823,1.781
76.1833,1.839
76.1833,1.961
76.1833,1.952
76.1833,1.865
76.1843,1.812
76.1843,1.757
76.1843,1.7
76.1843,1.583
76.1853,1.557
76.1853,1.584
76.1853,1.6
76.1853,1.62
76.1853,1.7
76.1863,1.742
76.1863,1.789
76.1863,1.872
76.1863,1.916
76.1873,1.905
76.1873,1.773
76.1873,1.719
76.1873,1.676
76.1883,1.625
76.1883,1.547
76.1883,1.514
76.1883,1.562
76.1893,1.601
76.1893,1.641
76.1893,1.694
76.1903,1.744
76.1903,1.805
76.1903,1.937
76.1903,1.928
76.1903,1.855
76.1913,1.823
76.1913,1.767
76.1913,1.712
76.1913,1.604
76.1923,1.58
76.1923,1.597
76.1923,1.608
76.1923,1.64
76.1923,1.73
76.1933,1.781
76.1933,1.83
76.1933,1.91
76.1933,1.964
76.1943,1.951
76.1943,1.83
76.1943,1.779
76.1943,1.733
76.1953,1.683
76.1953,1.601
76.1953,1.582
76.1953,1.621
76.1963,1.637
76.1963,1.675
76.1963,1.73
76.1963,1.776
76.1963,1.907
76.1973,1.972
76.1973,1.969
76.1973,1.898
76.1973,1.84
76.1983,1.79
76.1983,1.701
76.1983,1.624
76.1983,1.581
76.1993,1.602
76.1993,1.627
76.1993,1.645
76.1993,1.734
76.1993,1.78
76.2003,1.83
76.2003,1.902
76.2003,1.968
76.2003,1.97
76.2013,1.848
76.2013,1.803
76.2013,1.751
76.2013,1.699
76.2013,1.627
76.2023,1.576
76.2023,1.625
76.2023,1.634
76.2023,1.676
76.2033,1.739
76.2033,1.77
76.2033,1.899
76.2033,1.963
76.2033,1.951
76.2043,1.917
76.2043,1.857
76.2043,1.81
76.2043,1.724
76.2053,1.642
76.2053,1.592
76.2053,1.622
76.2053,1.641
76.2063,1.631
76.2063,1.741
76.2063,1.783
76.2063,1.831
76.2063,1.894
76.2073,1.947
76.2073,1.919
76.2073,1.764
76.2073,1.675
76.2083,1.598
76.2083,1.514
76.2083,1.404
76.2083,1.35
76.2083,1.337
76.2093,1.3
76.2093,1.314
76.2093,1.332
76.2093,1.412
76.2093,1.84
76.2102,2.088
76.2102,2.173
76.2102,2.105
76.2102,2.001
76.2112,1.93
76.2112,1.926
76.2112,1.944
76.2112,2.061
76.2112,2.21
76.2122,2.281
76.2122,2.259
76.2122,2.254
76.2122,2.284
76.2122,2.325
76.2132,2.387
76.2132,2.448
76.2132,2.468
76.2132,2.292
76.2142,2.202
76.2142,2.119
76.2142,2.049
76.2142,1.944
76.2142,1.837
76.2152,1.824
76.2152,1.809
76.2152,1.799
76.2152,1.822
76.2152,1.838
76.2162,1.91
76.2162,1.949
76.2162,1.973
76.2162,1.92
76.2162,1.854
76.2172,1.814
76.2172,1.723
76.2172,1.648
76.2172,1.568
76.2182,1.57
76.2182,1.601
76.2182,1.598
76.2182,1.672
76.2182,1.728
76.2192,1.764
76.2192,1.898
76.2192,1.88
76.2192,1.807
76.9951,1.768
76.9961,1.707
76.9981,1.662
77.0001,1.598
77.0021,1.532
77.0021,1.553
77.0021,1.561
77.0021,1.604
77.0031,1.662
77.0031,1.71
77.0031,1.82
77.0031,1.873
77.0031,1.901
77.0041,1.86
77.0041,1.797
77.0041,1.748
77.0051,1.645
77.0051,1.6
77.0051,1.511
77.0061,1.515
77.0061,1.542
77.0061,1.588
77.0061,1.638
77.0061,1.674
77.0071,1.713
77.0071,1.798
77.0071,1.877
77.0071,1.86
77.0081,1.795
77.0081,1.75
77.0081,1.7
77.0081,1.652
77.0081,1.59
77.0091,1.512
77.0091,1.536
77.0091,1.538
77.0091,1.565
77.0101,1.619
77.0101,1.674
77.0101,1.775
77.0101,1.841
77.0111,1.889
77.0111,1.859
77.0111,1.788
77.0111,1.742
77.0111,1.643
77.0121,1.588
77.0121,1.502
77.0121,1.481
77.0121,1.506
77.0131,1.567
77.0131,1.61
77.0131,1.661
77.0131,1.693
77.0131,1.777
77.0141,1.835
77.0141,1.841
77.0141,1.778
77.0141,1.726
77.0151,1.663
77.0151,1.622
77.0151,1.575
77.0151,1.49
77.0161,1.513
77.0161,1.516
77.0161,1.55
77.0161,1.587
77.0161,1.633
77.0171,1.748
77.0171,1.812
77.0171,1.844
77.0171,1.826
77.0181,1.75
77.0181,1.654
77.0181,1.609
77.0181,1.548
77.0181,1.47
77.0191,1.453
77.0191,1.464
77.0191,1.52
77.0191,1.548
77.0201,1.605
77.0201,1.63
77.0201,1.682
77.0201,1.75
77.0211,1.781
77.0211,1.727
77.0211,1.667
77.0211,1.602
77.0221,1.558
77.0221,1.505
77.0221,1.395
77.0231,1.404
77.0231,1.421
77.0231,1.449
77.0231,1.486
77.0231,1.535
77.0241,1.624
77.0241,1.693
77.0241,1.717
77.0241,1.695
77.0251,1.638
77.0251,1.591
77.0251,1.493
77.0251,1.436
77.0251,1.367
77.0261,1.345
77.0261,1.363
77.0261,1.362
77.0261,1.436
77.0271,1.486
77.0271,1.527
77.0271,1.584
77.0271,1.664
77.0281,1.707
77.0281,1.626
77.0281,1.582
77.0281,1.529
77.0281,1.481
77.0291,1.436
77.0291,1.351
77.0291,1.355
77.0291,1.372
77.0301,1.394
77.0301,1.437
77.0301,1.488
77.0301,1.539
77.0301,1.664
77.0311,1.739
77.0311,1.733
77.0311,1.657
77.0311,1.607
77.0320,1.57
77.0320,1.487
77.0320,1.402
77.0320,1.373
77.0320,1.411
77.0330,1.439
77.0330,1.456
77.0330,1.556
77.0330,1.609
77.0340,1.671
77.0340,1.735
77.0340,1.821
77.0340,1.814
77.0340,1.713
77.0350,1.672
77.0350,1.622
77.0350,1.582
77.0350,1.508
77.0360,1.477
77.0360,1.535
77.0360,1.546
77.0360,1.589
77.0360,1.64
77.0370,1.691
77.0370,1.735
77.0370,1.895
77.0370,1.884
77.0380,1.84
77.0380,1.791
77.0380,1.742
77.0380,1.689
77.0390,1.584
77.0390,1.542
77.0390,1.567
77.0390,1.593
77.0400,1.591
77.0400,1.639
77.0400,1.755
77.0400,1.801
77.0400,1.878
77.0410,1.95
77.0410,1.963
77.0410,1.893
77.0410,1.766
77.0420,1.726
77.0420,1.69
77.0420,1.612
77.0420,1.58
77.0420,1.593
77.0430,1.608
77.0430,1.65
77.0430,1.713
77.0430,1.757
77.0440,1.794
77.0440,1.88
77.0440,1.936
77.0440,1.891
77.0440,1.834
77.0450,1.78
77.0450,1.73
77.0450,1.687
77.0450,1.565
77.0460,1.583
77.0460,1.597
77.0460,1.602
77.0460,1.646
77.0460,1.693
77.0470,1.781
77.0470,1.844
77.0470,1.92
77.0470,1.928
77.0480,1.872
77.0480,1.814
77.0480,1.72
77.0480,1.68
77.0480,1.591
77.0490,1.532
77.0490,1.564
77.0490,1.576
77.0490,1.626
77.0500,1.67
77.0500,1.714
77.0500,1.755
77.0500,1.826
77.0500,1.913
77.0510,1.875
77.0510,1.813
77.0510,1.75
77.0510,1.705
77.0520,1.657
77.0520,1.524
77.0520,1.548
77.0520,1.562
77.0520,1.559
77.0520,1.607
77.0530,1.655
77.0530,1.741
77.0530,1.815
77.0530,1.887
77.0540,1.908
77.0540,1.866
77.0540,1.796
77.0540,1.688
77.0550,1.649
77.0550,1.585
77.0550,1.507
77.0550,1.531
77.0550,1.562
77.0560,1.604
77.0560,1.636
77.0560,1.687
77.0560,1.734
77.0570,1.804
77.0570,1.896
77.0570,1.863
77.0570,1.785
77.0570,1.751
77.0570,1.692
77.0570,1.644
77.0580,1.52
77.0580,1.529
77.0580,1.562
77.0580,1.554
77.0580,1.609
77.0580,1.648
77.0590,1.74
77.0590,1.815
77.0590,1.863
77.0590,1.897
77.0590,1.878
77.0600,1.796
77.0600,1.706
77.0600,1.66
77.0600,1.598
77.0610,1.526
77.0610,1.535
77.0610,1.562
77.0610,1.596
77.0610,1.653
77.0620,1.695
77.0620,1.744
77.0620,1.814
77.0620,1.905
77.0620,1.885
77.0630,1.813
77.0630,1.766
77.0630,1.712
77.0630,1.662
77.0640,1.538
77.0640,1.545
77.0640,1.565
77.0640,1.576
77.0650,1.602
77.0650,1.652
77.0650,1.739
77.0650,1.807
77.0660,1.876
77.0660,1.918
77.0660,1.892
77.0660,1.812
77.0660,1.717
77.0670,1.67
77.0670,1.61
77.0670,1.53
77.0670,1.526
77.0670,1.563
77.0670,1.589
77.0680,1.633
77.0680,1.678
77.0680,1.725
77.0680,1.788
77.0690,1.887
77.0690,1.867
77.0690,1.8
77.0690,1.753
77.0690,1.685
77.0699,1.641
77.0699,1.504
77.0699,1.478
77.0699,1.515
77.0709,1.53
77.0709,1.555
77.0709,1.597
77.0709,1.687
77.0719,1.755
77.0719,1.823
77.0719,1.859
77.0719,1.838
77.0729,1.778
77.0729,1.689
77.0729,1.645
77.0729,1.593
77.0739,1.513
77.0739,1.497
77.0739,1.559
77.0739,1.584
77.0739,1.646
77.0749,1.695
77.0749,1.738
77.0749,1.803
77.0749,1.903
77.0749,1.91
77.0759,1.833
77.0759,1.782
77.0759,1.739
77.0759,1.696
77.0759,1.559
77.0759,1.532
77.0759,1.565
77.0769,1.583
77.0769,1.599
77.0769,1.642
77.0769,1.743
77.0769,1.803
77.0769,1.877
77.0769,1.93
77.0779,1.904
77.0779,1.8
77.0779,1.745
77.0779,1.699
77.0779,1.658
77.0779,1.574
77.0779,1.541
77.0789,1.59
77.0789,1.623
77.0789,1.659
77.0789,1.704
77.0789,1.755
77.0789,1.813
77.0799,1.936
77.0799,1.915
77.0799,1.857
77.0799,1.812
77.0799,1.76
77.0809,1.707
77.0809,1.583
77.0809,1.552
77.0809,1.575
77.0809,1.587
77.0819,1.615
77.0819,1.704
77.0819,1.754
77.0819,1.802
77.0819,1.874
77.0829,1.933
77.0829,1.916
77.0829,1.814
77.0829,1.756
77.0839,1.712
77.0839,1.666
77.0839,1.587
77.0839,1.541
77.0839,1.6
77.0849,1.616
77.0849,1.657
77.0849,1.711
77.0849,1.751
77.0849,1.809
77.0859,1.966
77.0859,1.957
77.0859,1.88
77.0859,1.815
77.0859,1.764
77.0859,1.666
77.0859,1.595
77.0859,1.559
77.0869,1.576
77.0869,1.577
77.0869,1.566
77.0869,1.617
77.0869,1.62
77.0869,1.627
77.0869,1.649
77.0879,1.69
77.0879,1.67
77.0879,1.493
77.0879,1.412
77.0879,1.326
77.0889,1.281
77.0889,1.261
77.0889,1.285
77.0889,1.706
77.0889,1.772
77.0899,1.779
77.0899,1.804
77.0899,1.832
77.0899,1.928
77.0899,2.239
77.0899,2.408
77.0899,2.452
77.0909,2.433
77.0909,2.359
77.0909,2.177
77.0909,2.104
77.0909,2.051
77.0919,2.046
77.0919,2.094
77.0919,2.097
77.0919,2.12
77.0919,2.138
77.0929,2.16
77.0929,2.209
77.0929,2.237
77.0929,2.2
77.0939,2.034
77.0939,1.954
77.0939,1.856
77.0939,1.781
77.0949,1.689
77.0949,1.624
77.0949,1.622
77.0949,1.624
77.0949,1.667
77.0949,1.721
77.0949,1.763
77.0959,1.878
77.0959,1.931
77.0959,1.946
77.0959,1.888
77.0959,1.818
77.0959,1.767
77.0969,1.666
77.0969,1.586
77.0969,1.522
77.0969,1.544
77.0969,1.567
77.0969,1.564
77.0969,1.66
77.0969,1.7
77.0979,1.747
77.0979,1.828
77.0979,1.889
77.0979,1.894
77.0979,1.791
77.0979,1.741
77.0979,1.695
77.0989,1.647
77.0989,1.572
77.0989,1.513
77.0989,1.549
77.0989,1.545
77.0989,1.59
77.0989,1.641
77.0999,1.693
77.0999,1.803
77.0999,1.871
77.0999,1.886
77.0999,1.846
77.0999,1.784
77.0999,1.738
77.1009,1.636
77.1009,1.577
77.1009,1.505
77.1009,1.525
77.1009,1.553
77.1009,1.544
77.1019,1.632
77.1019,1.681
77.1019,1.716
77.1019,1.793
77.1019,1.853
77.1019,1.776
77.1019,1.73
77.1029,1.676
77.1029,1.634
77.1029,1.494
77.1029,1.503
77.1029,1.524
77.1029,1.537
77.1029,1.578
77.1039,1.624
77.1039,1.707
77.1039,1.783
77.1039,1.852
77.1039,1.867
77.1039,1.841
77.1039,1.788
77.1059,1.673
77.1118,1.637
77.1168,1.565
77.1178,1.497
77.1188,1.503
77.1198,1.522
77.1198,1.567
77.1198,1.615
77.1198,1.66
77.1208,1.703
77.1208,1.779
77.1208,1.882
77.1208,1.837
77.1218,1.766
77.1218,1.719
77.1218,1.668
77.1228,1.624
77.1228,1.487
77.1228,1.497
77.1228,1.515
77.1228,1.521
77.1228,1.55
77.1228,1.604
77.1238,1.692
77.1238,1.766
77.1238,1.822
77.1238,1.856
77.1238,1.832
77.1238,1.767
77.1238,1.649
77.1248,1.604
77.1248,1.556
77.1248,1.476
77.1248,1.466
77.1248,1.49
77.1248,1.529
77.1258,1.57
77.1258,1.618
77.1258,1.653
77.1258,1.718
77.1258,1.816
77.1258,1.791
77.1258,1.718
77.1268,1.671
77.1268,1.611
77.1268,1.562
77.1268,1.428
77.1268,1.41
77.1268,1.443
77.1268,1.437
77.1278,1.465
77.1278,1.512
77.1278,1.591
77.1278,1.652
77.1278,1.719
77.1278,1.763
77.1278,1.742
77.1288,1.675
77.1288,1.575
77.1288,1.527
77.1288,1.47
77.1288,1.391
77.1288,1.373
77.1288,1.41
77.1298,1.437
77.1298,1.487
77.1298,1.535
77.1298,1.583
77.1298,1.651
77.1298,1.757
77.1298,1.75
77.1298,1.675
77.1308,1.625
77.1308,1.579
77.1308,1.532
77.1308,1.402
77.1308,1.388
77.1308,1.404
77.1318,1.428
77.1318,1.457
77.1318,1.506
77.1318,1.605
77.1318,1.668
77.1318,1.742
77.1318,1.804
77.1328,1.787
77.1328,1.714
77.1328,1.634
77.1328,1.59
77.1328,1.544
77.1328,1.468
77.1328,1.447
77.1338,1.475
77.1338,1.529
77.1338,1.571
77.1338,1.633
77.1338,1.672
77.1348,1.733
77.1348,1.802
77.1348,1.851
77.1348,1.798
77.1348,1.75
77.1348,1.701
77.1348,1.658
77.1358,1.613
77.1358,1.505
77.1358,1.54
77.1358,1.556
77.1358,1.587
77.1358,1.634
77.1358,1.685
77.1368,1.79
77.1368,1.858
77.1368,1.92
77.1368,1.915
77.1368,1.851
77.1378,1.813
77.1378,1.712
77.1378,1.669
77.1378,1.589
77.1388,1.563
77.1388,1.584
77.1388,1.602
77.1398,1.668
77.1398,1.724
77.1398,1.767
77.1398,1.823
77.1398,1.881
77.1408,1.938
77.1408,1.881
77.1408,1.83
77.1408,1.777
77.1408,1.724
77.1418,1.68
77.1418,1.598
77.1418,1.589
77.1418,1.605
77.1428,1.622
77.1428,1.667
77.1428,1.715
77.1428,1.758
77.1428,1.877
77.1438,1.935
77.1438,1.938
77.1438,1.876
77.1438,1.82
77.1438,1.771
77.1447,1.671
77.1447,1.597
77.1447,1.554
77.1447,1.569
77.1447,1.595
77.9054,1.607
77.9054,1.702
77.9054,1.745
77.9064,1.794
77.9064,1.865
77.9064,1.925
77.9064,1.914
77.9064,1.812
77.9064,1.765
77.9073,1.705
77.9073,1.666
77.9073,1.59
77.9073,1.545
77.9073,1.574
77.9073,1.598
77.9073,1.641
77.9083,1.682
77.9083,1.731
77.9083,1.847
77.9083,1.907
77.9083,1.903
77.9083,1.863
77.9083,1.802
77.9093,1.747
77.9093,1.696
77.9093,1.579
77.9093,1.522
77.9093,1.541
77.9093,1.563
77.9093,1.584
77.9093,1.676
77.9103,1.716
77.9103,1.761
77.9103,1.834
77.9103,1.893
77.9103,1.898
77.9103,1.808
77.9113,1.754
77.9113,1.702
77.9113,1.657
77.9113,1.584
77.9113,1.524
77.9124,1.564
77.9124,1.584
77.9124,1.619
77.9124,1.666
77.9124,1.71
77.9124,1.758
77.9133,1.889
77.9133,1.898
77.9133,1.861
77.9133,1.804
77.9133,1.757
77.9133,1.66
77.9143,1.59
77.9143,1.529
77.9143,1.549
77.9143,1.581
77.9143,1.583
77.9143,1.673
77.9154,1.715
77.9154,1.759
77.9154,1.835
77.9154,1.905
77.9154,1.924
77.9163,1.816
77.9163,1.768
77.9163,1.715
77.9163,1.675
77.9163,1.608
77.9163,1.538
77.9173,1.592
77.9173,1.589
77.9173,1.626
77.9173,1.678
77.9173,1.726
77.9183,1.839
77.9183,1.909
77.9183,1.938
77.9183,1.899
77.9183,1.819
77.9183,1.768
77.9193,1.679
77.9193,1.611
77.9193,1.546
77.9193,1.574
77.9193,1.596
77.9193,1.594
77.9203,1.675
77.9203,1.729
77.9203,1.77
77.9203,1.846
77.9203,1.913
77.9213,1.904
77.9213,1.836
77.9213,1.784
77.9213,1.728
77.9213,1.687
77.9223,1.628
77.9223,1.573
77.9223,1.601
77.9223,1.597
77.9223,1.63
77.9233,1.681
77.9233,1.733
77.9233,1.848
77.9233,1.909
77.9233,1.943
77.9233,1.91
77.9243,1.833
77.9243,1.79
77.9243,1.695
77.9243,1.633
77.9243,1.56
77.9243,1.579
77.9253,1.601
77.9253,1.605
77.9253,1.689
77.9253,1.736
77.9253,1.765
77.9253,1.836
77.9263,1.91
77.9263,1.925
77.9263,1.842
77.9263,1.797
77.9263,1.748
77.9263,1.696
77.9273,1.635
77.9273,1.557
77.9273,1.586
77.9273,1.582
77.9273,1.603
77.9273,1.654
77.9283,1.706
77.9283,1.805
77.9283,1.867
77.9283,1.909
77.9283,1.892
77.9283,1.807
77.9293,1.758
77.9293,1.652
77.9293,1.6
77.9293,1.527
77.9293,1.511
77.9293,1.524
77.9303,1.583
77.9303,1.631
77.9303,1.688
77.9303,1.727
77.9303,1.793
77.9313,1.858
77.9313,1.893
77.9313,1.823
77.9313,1.779
77.9313,1.727
77.9313,1.685
77.9323,1.639
77.9323,1.554
77.9323,1.576
77.9323,1.596
77.9323,1.627
77.9333,1.678
77.9333,1.724
77.9333,1.827
77.9333,1.898
77.9333,1.964
77.9333,1.934
77.9343,1.853
77.9343,1.764
77.9343,1.712
77.9343,1.665
77.9343,1.586
77.9343,1.563
77.9353,1.59
77.9353,1.635
77.9353,1.679
77.9353,1.73
77.9363,1.771
77.9363,1.833
77.9363,1.899
77.9363,1.943
77.9363,1.872
77.9363,1.826
77.9363,1.771
77.9373,1.725
77.9373,1.676
77.9373,1.573
77.9383,1.6
77.9383,1.611
77.9383,1.638
77.9383,1.685
77.9383,1.78
77.9393,1.832
77.9393,1.903
77.9393,1.965
77.9393,1.949
77.9393,1.887
77.9403,1.794
77.9403,1.745
77.9403,1.682
77.9403,1.615
77.9403,1.579
77.9403,1.595
77.9413,1.645
77.9413,1.697
77.9413,1.74
77.9413,1.781
77.9413,1.836
77.9413,1.902
77.9423,1.959
77.9423,1.889
77.9423,1.843
77.9423,1.802
77.9423,1.739
77.9423,1.705
77.9433,1.586
77.9433,1.645
77.9433,1.647
77.9433,1.651
77.9433,1.675
77.9443,1.776
77.9443,1.824
77.9443,1.896
77.9443,1.964
77.9443,1.937
77.9452,1.847
77.9452,1.663
77.9452,1.554
77.9452,1.468
77.9452,1.326
77.9462,1.271
77.9462,1.262
77.9462,1.25
77.9462,1.25
77.9472,1.257
77.9472,1.26
77.9472,1.272
77.9472,1.363
77.9472,1.764
77.9482,1.898
77.9482,1.884
77.9482,1.806
77.9482,1.737
77.9482,1.741
77.9492,1.784
77.9492,1.865
77.9492,2.019
77.9492,2.146
77.9492,2.216
77.9492,2.306
77.9502,2.369
77.9502,2.437
77.9502,2.481
77.9502,2.455
77.9502,2.402
77.9512,2.271
77.9512,2.182
77.9512,2.101
77.9512,1.993
77.9512,1.916
77.9512,1.904
77.9522,1.878
77.9522,1.894
77.9522,1.901
77.9522,1.9
77.9522,1.919
77.9532,1.976
77.9532,2.022
77.9532,1.964
77.9532,1.898
77.9542,1.844
77.9542,1.795
77.9542,1.75
77.9542,1.615
77.9552,1.645
77.9552,1.673
77.9552,1.657
77.9552,1.698
77.9552,1.744
77.9552,1.82
77.9562,1.891
77.9562,1.949
77.9562,1.952
77.9562,1.913
77.9572,1.796
77.9572,1.743
77.9572,1.701
77.9572,1.631
77.9572,1.562
77.9582,1.568
77.9582,1.605
77.9582,1.652
77.9582,1.697
77.9582,1.747
77.9582,1.789
77.9582,1.853
77.9592,1.93
77.9592,1.891
77.9592,1.828
77.9592,1.78
77.9592,1.734
77.9602,1.686
77.9602,1.554
77.9602,1.568
77.9602,1.586
77.9602,1.6
77.9602,1.64
77.9612,1.689
77.9612,1.781
77.9612,1.854
77.9612,1.923
77.9612,1.937
77.9622,1.891
77.9622,1.784
77.9622,1.733
77.9632,1.695
77.9632,1.63
77.9632,1.561
77.9632,1.57
77.9632,1.605
77.9642,1.643
77.9642,1.692
77.9642,1.742
77.9642,1.783
77.9652,1.843
77.9652,1.942
77.9652,1.897
77.9652,1.843
77.9652,1.698
77.9662,1.648
77.9662,1.57
77.9662,1.577
77.9662,1.591
77.9662,1.604
77.9672,1.7
77.9672,1.747
77.9672,1.783
77.9672,1.854
77.9672,1.92
77.9682,1.941
77.9682,1.854
77.9682,1.811
77.9682,1.769
77.9692,1.717
77.9692,1.65
77.9702,1.588
77.9702,1.599
77.9702,1.618
77.9702,1.654
77.9702,1.706
77.9712,1.753
77.9712,1.791
77.9712,1.928
77.9722,1.954
77.9722,1.934
77.9722,1.862
77.9722,1.815
77.9722,1.775
77.9722,1.665
77.9732,1.594
77.9732,1.592
77.9732,1.614
77.9732,1.622
77.9742,1.706
77.9742,1.752
77.9742,1.793
77.9742,1.864
77.9742,1.925
77.9752,1.964
77.9752,1.87
77.9752,1.826
77.9762,1.774
77.9762,1.723
77.9762,1.668
77.9762,1.591
77.9772,1.603
77.9772,1.613
77.9772,1.643
77.9772,1.689
77.9782,1.735
77.9782,1.769
77.9782,1.901
77.9792,1.944
77.9792,1.91
77.9792,1.842
77.9802,1.793
77.9802,1.691
77.9802,1.634
77.9802,1.556
77.9802,1.541
77.9802,1.561
77.9841,1.571
77.9921,1.645
77.9991,1.694
78.0011,1.732
78.0031,1.796
78.0041,1.852
78.0041,1.903
78.0041,1.81
78.0051,1.765
78.0051,1.713
78.0051,1.667
78.0061,1.613
78.0061,1.541
78.0061,1.541
78.0061,1.555
78.0061,1.583
78.0071,1.627
78.0071,1.678
78.0071,1.718
78.0071,1.841
78.0071,1.888
78.0081,1.867
78.0081,1.803
78.0081,1.756
78.0081,1.662
78.0081,1.602
78.0091,1.527
78.0091,1.502
78.0091,1.532
78.0091,1.547
78.0091,1.614
78.0101,1.673
78.0101,1.714
78.0101,1.772
78.0101,1.838
78.0101,1.9
78.0101,1.806
78.0111,1.77
78.0111,1.721
78.0111,1.674
78.0111,1.632
78.0121,1.555
78.0121,1.56
78.0121,1.571
78.0121,1.595
78.0121,1.649
78.0131,1.709
78.0131,1.74
78.0131,1.867
78.0131,1.926
78.0141,1.914
78.0141,1.853
78.0141,1.808
78.0141,1.76
78.0151,1.67
78.0151,1.592
78.0151,1.561
78.0151,1.582
78.0161,1.602
78.0161,1.631
78.0161,1.673
78.0161,1.767
78.0171,1.819
78.0171,1.89
78.0171,1.95
78.0171,1.93
78.0181,1.871
78.0181,1.775
78.0181,1.731
78.0181,1.684
78.0190,1.603
78.0190,1.566
78.0190,1.586
78.0190,1.63
78.0190,1.678
78.0200,1.721
78.0200,1.768
78.0200,1.827
78.0200,1.947
78.0210,1.955
78.0210,1.884
78.0210,1.834
78.0210,1.785
78.0220,1.739
78.0220,1.698
78.0230,1.571
78.0230,1.59
78.0230,1.61
78.0230,1.631
78.0240,1.676
78.0240,1.73
78.0240,1.818
78.0240,1.888
78.0240,1.951
78.0250,1.942
78.0250,1.889
78.0250,1.837
78.0250,1.738
78.0250,1.693
78.0260,1.619
78.0260,1.575
78.0260,1.589
78.0260,1.61
78.0270,1.672
78.0270,1.723
78.0270,1.764
78.0270,1.813
78.0280,1.884
78.0280,1.955
78.0280,1.899
78.0280,1.843
78.0290,1.79
78.0290,1.739
78.0290,1.701
78.0290,1.625
78.0300,1.6
78.0300,1.614
78.0300,1.631
78.0300,1.675
78.0300,1.723
78.0310,1.768
78.0310,1.885
78.0310,1.949
78.0320,1.952
78.0320,1.905
78.0320,1.84
78.0320,1.796
78.0330,1.712
78.0330,1.649
78.0330,1.577
78.0330,1.595
78.0340,1.613
78.0340,1.625
78.0340,1.719
78.0340,1.766
78.0350,1.81
78.0350,1.881
78.0350,1.945
78.0350,1.951
78.0360,1.849
78.0360,1.796
78.0360,1.741
78.0360,1.704
78.0360,1.632
78.0370,1.597
78.0370,1.604
78.0370,1.625
78.0370,1.658
78.0370,1.712
78.0380,1.754
78.0380,1.87
78.0380,1.941
78.0380,1.944
78.0380,1.896
78.0390,1.84
78.0390,1.794
78.0390,1.702
78.0390,1.632
78.0400,1.565
78.0400,1.587
78.0400,1.608
78.0400,1.616
78.0410,1.702
78.0410,1.744
78.0410,1.789
78.0410,1.865
78.0420,1.924
78.0420,1.943
78.0420,1.842
78.0420,1.792
78.0430,1.743
78.0430,1.7
78.0430,1.628
78.0430,1.577
78.0430,1.59
78.0440,1.607
78.0440,1.65
78.0440,1.7
78.0440,1.746
78.0440,1.863
78.0440,1.936
78.0450,1.967
78.0450,1.915
78.0450,1.847
78.0450,1.805
78.0460,1.709
78.0460,1.641
78.0460,1.58
78.0460,1.596
78.0470,1.607
78.0470,1.618
78.0470,1.7
78.0470,1.757
78.0480,1.792
78.0480,1.863
78.0480,1.937
78.0490,1.939
78.0490,1.85
78.0490,1.805
78.0490,1.765
78.0500,1.696
78.0500,1.651
78.0500,1.574
78.0500,1.596
78.0500,1.616
78.0510,1.644
78.0510,1.699
78.0510,1.746
78.0510,1.855
78.0510,1.917
78.0520,1.946
78.0520,1.928
78.0520,1.85
78.0520,1.805
78.0530,1.72
78.0530,1.655
78.0530,1.583
78.0540,1.575
78.0540,1.593
78.0540,1.611
78.0550,1.69
78.0550,1.736
78.0550,1.778
78.0550,1.845
78.0560,1.913
78.0560,1.931
78.0560,1.83
78.0569,1.783
78.0569,1.734
78.0569,1.693
78.0569,1.638
78.0579,1.533
78.0579,1.568
78.0579,1.571
78.0579,1.602
78.0589,1.644
78.0589,1.694
78.0589,1.789
78.0599,1.853
78.0599,1.909
78.0599,1.87
78.0599,1.804
78.0609,1.761
78.0609,1.663
78.0609,1.614
78.0619,1.542
78.0619,1.538
78.0619,1.572
78.0619,1.604
78.0629,1.665
78.0629,1.72
78.0629,1.761
78.0629,1.829
78.0639,1.897
78.0639,1.934
78.0639,1.853
78.0650,1.81
78.0650,1.762
78.0650,1.716
78.0650,1.67
78.0659,1.576
78.0659,1.599
78.0659,1.613
78.0669,1.638
78.0669,1.688
78.0669,1.736
78.0669,1.841
78.0679,1.9
78.0679,1.965
78.0679,1.942
78.0679,1.864
78.8170,1.82
78.8170,1.724
78.8179,1.677
78.8179,1.596
78.8179,1.57
78.8179,1.61
78.8179,1.639
78.8179,1.69
78.8189,1.737
78.8189,1.778
78.8189,1.839
78.8189,1.912
78.8189,1.955
78.8189,1.872
78.8189,1.835
78.8199,1.786
78.8199,1.734
78.8199,1.692
78.8199,1.595
78.8199,1.616
78.8199,1.623
78.8199,1.646
78.8209,1.692
78.8209,1.745
78.8209,1.844
78.8209,1.908
78.8209,1.975
78.8219,1.963
78.8219,1.885
78.8219,1.844
78.8219,1.743
78.8219,1.7
78.8229,1.62
78.8229,1.586
78.8229,1.614
78.8229,1.655
78.8239,1.696
78.8239,1.738
78.8239,1.787
78.8239,1.851
78.8239,1.916
78.8249,1.969
78.8249,1.916
78.8249,1.857
78.8249,1.797
78.8249,1.727
78.8259,1.677
78.8259,1.564
78.8259,1.59
78.8259,1.604
78.8259,1.611
78.8259,1.626
78.8259,1.629
78.8269,1.62
78.8269,1.649
78.8269,1.631
78.8269,1.586
78.8269,1.48
78.8269,1.392
78.8279,1.26
78.8279,1.248
78.8279,1.239
78.8279,1.238
78.8279,1.242
78.8279,1.258
78.8289,1.696
78.8289,1.807
78.8289,1.832
78.8289,1.877
78.8289,1.985
78.8289,2.214
78.8289,2.215
78.8289,2.297
78.8299,2.365
78.8299,2.368
78.8299,2.347
78.8299,2.181
78.8299,2.201
78.8299,2.177
78.8299,2.171
78.8309,2.209
78.8309,2.238
78.8309,2.263
78.8309,2.307
78.8309,2.337
78.8309,2.296
78.8309,2.211
78.8319,2.13
78.8319,1.955
78.8319,1.866
78.8319,1.751
78.8319,1.676
78.8319,1.687
78.8319,1.698
78.8329,1.738
78.8329,1.782
78.8329,1.823
78.8329,1.854
78.8329,1.929
78.8329,2.006
78.8329,1.942
78.8339,1.881
78.8339,1.826
78.8339,1.772
78.8339,1.725
78.8339,1.589
78.8339,1.604
78.8349,1.613
78.8349,1.611
78.8349,1.657
78.8349,1.706
78.8349,1.797
78.8349,1.871
78.8349,1.933
78.8359,1.929
78.8359,1.893
78.8359,1.824
78.8359,1.729
78.8359,1.688
78.8359,1.607
78.8359,1.555
78.8359,1.574
78.8369,1.59
78.8369,1.64
78.8369,1.688
78.8369,1.729
78.8369,1.777
78.8369,1.851
78.8379,1.914
78.8379,1.877
78.8379,1.814
78.8379,1.768
78.8379,1.718
78.8379,1.68
78.8389,1.54
78.8389,1.568
78.8389,1.594
78.8389,1.598
78.8389,1.626
78.8389,1.68
78.8389,1.771
78.8399,1.852
78.8399,1.91
78.8399,1.942
78.8399,1.881
78.8399,1.818
78.8399,1.727
78.8399,1.679
78.8409,1.616
78.8409,1.552
78.8409,1.569
78.8409,1.58
78.8409,1.631
78.8409,1.681
78.8419,1.732
78.8419,1.769
78.8419,1.841
78.8419,1.947
78.8419,1.91
78.8419,1.84
78.8419,1.79
78.8429,1.739
78.8429,1.554
78.8429,1.576
78.8429,1.592
78.8429,1.608
78.8429,1.635
78.8429,1.739
78.8439,1.781
78.8439,1.857
78.8439,1.926
78.8439,1.948
78.8439,1.912
78.8439,1.799
78.8439,1.75
78.8448,1.701
78.8448,1.642
78.8448,1.574
78.8448,1.586
78.8448,1.61
78.8448,1.641
78.8448,1.693
78.8458,1.744
78.8458,1.788
78.8458,1.931
78.8458,1.962
78.8458,1.927
78.8458,1.852
78.8458,1.805
78.8468,1.755
78.8468,1.646
78.8468,1.574
78.8468,1.576
78.8468,1.601
78.8468,1.609
78.8468,1.644
78.8478,1.734
78.8478,1.775
78.8478,1.84
78.8478,1.899
78.8478,1.94
78.8478,1.827
78.8478,1.784
78.8478,1.733
78.8488,1.685
78.8488,1.627
78.8488,1.548
78.8488,1.557
78.8488,1.567
78.8488,1.596
78.8498,1.642
78.8498,1.695
78.8498,1.729
78.8498,1.851
78.8498,1.89
78.8508,1.876
78.8508,1.79
78.8508,1.737
78.8508,1.645
78.8508,1.583
78.8508,1.517
78.8518,1.509
78.8518,1.528
78.8518,1.538
78.8518,1.605
78.8518,1.656
78.8518,1.689
78.8518,1.76
78.8518,1.815
78.8528,1.878
78.8528,1.768
78.8528,1.724
78.8528,1.677
78.8528,1.629
78.8528,1.574
78.8528,1.5
78.8538,1.512
78.8538,1.535
78.8538,1.555
78.8538,1.601
78.8538,1.649
78.8548,1.754
78.8548,1.821
78.8548,1.872
78.8548,1.863
78.8548,1.784
78.8548,1.738
78.8548,1.645
78.8558,1.602
78.8558,1.523
78.8558,1.503
78.8558,1.531
78.8558,1.548
78.8558,1.62
78.8558,1.671
78.8568,1.715
78.8568,1.775
78.8568,1.843
78.8568,1.906
78.8568,1.824
78.8568,1.778
78.8568,1.73
78.8578,1.684
78.8578,1.639
78.8578,1.564
78.8578,1.569
78.8578,1.585
78.8578,1.598
78.8578,1.656
78.8588,1.707
78.8588,1.756
78.8588,1.885
78.8588,1.953
78.8588,1.927
78.8588,1.86
78.8588,1.819
78.8598,1.774
78.8598,1.68
78.8598,1.604
78.8598,1.568
78.8598,1.588
78.8598,1.605
78.8598,1.625
78.8618,1.728
78.8638,1.771
78.8688,1.818
78.8768,1.894
78.8778,1.953
78.8807,1.939
78.8807,1.831
78.8807,1.785
78.8807,1.731
78.8807,1.688
78.8818,1.611
78.8818,1.579
78.8818,1.628
78.8818,1.636
78.8818,1.681
78.8818,1.733
78.8818,1.773
78.8818,1.829
78.8827,1.962
78.8827,1.962
78.8827,1.893
78.8827,1.844
78.8827,1.785
78.8827,1.732
78.8827,1.617
78.8837,1.578
78.8837,1.606
78.8837,1.626
78.8837,1.632
78.8837,1.678
78.8837,1.771
78.8837,1.819
78.8847,1.889
78.8847,1.953
78.8847,1.947
78.8847,1.9
78.8847,1.79
78.8847,1.738
78.8847,1.697
78.8857,1.621
78.8857,1.578
78.8857,1.598
78.8857,1.631
78.8857,1.668
78.8857,1.719
78.8857,1.764
78.8867,1.812
78.8867,1.886
78.8867,1.961
78.8867,1.897
78.8867,1.835
78.8867,1.78
78.8877,1.73
78.8877,1.701
78.8877,1.577
78.8877,1.609
78.8887,1.612
78.8887,1.623
78.8887,1.663
78.8887,1.727
78.8898,1.799
78.8898,1.873
78.8898,1.954
78.8898,1.961
78.8898,1.905
78.8898,1.838
78.8898,1.744
78.8907,1.698
78.8907,1.621
78.8907,1.563
78.8907,1.601
78.8907,1.622
78.8907,1.659
78.8917,1.708
78.8917,1.761
78.8917,1.789
78.8917,1.869
78.8917,1.937
78.8917,1.887
78.8917,1.832
78.8927,1.786
78.8927,1.737
78.8927,1.693
78.8927,1.622
78.8927,1.58
78.8927,1.605
78.8927,1.605
78.8937,1.657
78.8937,1.7
78.8937,1.744
78.8937,1.859
78.8937,1.932
78.8937,1.948
78.8937,1.897
78.8947,1.836
78.8947,1.729
78.8947,1.682
78.8947,1.614
78.8947,1.55
78.8947,1.586
78.8947,1.607
78.8947,1.647
78.8957,1.692
78.8957,1.741
78.8957,1.793
78.8957,1.847
78.8957,1.931
78.8957,1.895
78.8967,1.831
78.8967,1.778
78.8967,1.733
78.8967,1.69
78.8967,1.622
78.8967,1.588
78.8967,1.604
78.8977,1.598
78.8977,1.642
78.8977,1.7
78.8977,1.741
78.8977,1.85
78.8977,1.922
78.8977,1.946
78.8987,1.903
78.8987,1.833
78.8987,1.79
78.8987,1.694
78.8987,1.625
78.8987,1.56
78.8987,1.583
78.8997,1.609
78.8997,1.641
78.8997,1.696
78.8997,1.751
78.8997,1.769
78.8997,1.845
78.8997,1.919
78.9007,1.909
78.9007,1.841
78.9007,1.801
78.9007,1.738
78.9007,1.701
78.9007,1.562
78.9017,1.575
78.9017,1.626
78.9017,1.601
78.9017,1.627
78.9017,1.683
78.9017,1.767
78.9017,1.847
78.9027,1.898
78.9027,1.947
78.9027,1.923
78.9027,1.832
78.9027,1.748
78.9027,1.686
78.9027,1.636
78.9037,1.568
78.9037,1.58
78.9037,1.602
78.9037,1.635
78.9037,1.68
78.9037,1.733
78.9037,1.762
78.9047,1.852
78.9047,1.895
78.9047,1.91
78.9047,1.839
78.9057,1.789
78.9057,1.731
78.9057,1.683
78.9057,1.554
78.9057,1.543
78.9057,1.547
78.9057,1.562
78.9067,1.584
78.9067,1.644
78.9067,1.724
78.9067,1.792
78.9067,1.851
78.9067,1.89
78.9067,1.851
78.9077,1.791
78.9077,1.695
78.9077,1.65
78.9077,1.6
78.9077,1.53
78.9077,1.508
78.9077,1.556
78.9087,1.588
78.9087,1.634
78.9087,1.691
78.9087,1.737
78.9087,1.799
78.9087,1.903
78.9087,1.905
78.9087,1.835
78.9097,1.809
78.9097,1.743
78.9097,1.696
78.9097,1.574
78.9097,1.556
78.9097,1.591
78.9097,1.603
78.9107,1.62
78.9107,1.668
78.9107,1.76
78.9107,1.829
78.9107,1.893
78.9117,1.954
78.9117,1.928
78.9117,1.849
78.9117,1.751
78.9117,1.712
78.9117,1.672
78.9117,1.579
78.9127,1.56
78.9127,1.601
78.9127,1.617
78.9127,1.676
78.9127,1.725
78.9127,1.766
78.9127,1.826
78.9137,1.954
78.9137,1.943
78.9137,1.864
78.9137,1.819
78.9137,1.771
78.9137,1.728
78.9137,1.6
78.9137,1.565
78.9147,1.592
78.9147,1.595
78.9147,1.635
78.9147,1.679
78.9147,1.781
78.9147,1.833
78.9147,1.898
78.9157,1.955
78.9157,1.954
78.9157,1.822
78.9157,1.779
78.9157,1.727
78.9157,1.68
78.9157,1.611
78.9167,1.583
78.9167,1.601
78.9167,1.636
78.9167,1.681
78.9167,1.73
78.9167,1.778
78.9167,1.841
78.9177,1.96
78.9177,1.941
78.9177,1.886
78.9177,1.838
78.9177,1.789
78.9177,1.7
78.9177,1.606
78.9186,1.558
78.9186,1.57
78.9186,1.586
78.9186,1.607
78.9186,1.7
78.9186,1.739
78.9186,1.766
78.9186,1.793
78.9196,1.806
78.9196,1.743
78.9196,1.518
78.9196,1.436
78.9196,1.348
78.9196,1.274
78.9196,1.247
78.9206,1.24
78.9206,1.242
78.9206,1.238
78.9206,1.249
78.9216,1.311
78.9216,1.591
78.9216,1.854
78.9216,2.036
78.9216,2.028
78.9216,1.995
78.9216,2.038
78.9226,2.084
78.9226,2.08
78.9226,2.216
78.9226,2.209
78.9226,2.252
78.9226,2.23
78.9226,2.239
78.9236,2.273
78.9236,2.319
78.9236,2.349
78.9236,2.414
78.9236,2.449
78.9236,2.397
78.9236,2.215
78.9246,2.135
78.9246,2.048
78.9246,1.978
78.9246,1.868
78.9246,1.771
78.9246,1.736
78.9246,1.721
78.9256,1.759
78.9256,1.793
78.9256,1.823
78.9256,1.855
78.9256,1.978
78.9256,1.983
78.9256,1.934
78.9266,1.874
78.9266,1.822
78.9266,1.774
78.9266,1.638
78.9266,1.585
78.9266,1.592
78.9276,1.602
78.9276,1.62
78.9276,1.658
78.9276,1.748
78.9276,1.793
78.9276,1.842
78.9276,1.909
78.9286,1.92
78.9286,1.874
78.9286,1.765
78.9286,1.716
78.9286,1.675
78.9286,1.602
78.9286,1.549
78.9296,1.559
78.9296,1.587
78.9296,1.629
78.9296,1.676
78.9296,1.729
78.9296,1.77
78.9296,1.91
78.9306,1.92
78.9306,1.862
78.9306,1.81
78.9306,1.771
78.9306,1.711
78.9306,1.593
78.9316,1.537
78.9316,1.551
78.9316,1.571
78.9316,1.577
78.9316,1.617
78.9316,1.714
78.9316,1.758
78.9326,1.836
78.9326,1.913
78.9326,1.938
78.9326,1.891
78.9326,1.767
78.9326,1.711
78.9326,1.669
78.9326,1.606
78.9336,1.535
78.9336,1.571
78.9336,1.581
78.9336,1.621
78.9336,1.67
78.9336,1.714
78.9336,1.759
78.9346,1.892
78.9346,1.914
78.9346,1.884
78.9346,1.818
78.9346,1.774
78.9346,1.725
78.9346,1.612
78.9356,1.547
78.9356,1.568
78.9356,1.623
78.9356,1.674
79.5003,1.723
79.5014,1.762
79.5014,1.837
79.5014,1.906
79.5024,1.906
79.5024,1.827
79.5034,1.781
79.5034,1.73
79.5034,1.683
79.5043,1.628
79.5043,1.577
79.5053,1.597
79.5053,1.592
79.5064,1.625
79.5064,1.67
79.5073,1.72
79.5073,1.835
79.5073,1.903
79.5083,1.946
79.5083,1.915
79.5083,1.836
79.5093,1.728
79.5093,1.692
79.5103,1.63
79.5153,1.556
79.5233,1.566
79.5303,1.593
79.5312,1.622
79.5333,1.663
79.5333,1.715
79.5333,1.749
79.5342,1.811
79.5342,1.874
79.5342,1.892
79.5342,1.802
79.5342,1.766
79.5342,1.71
79.5352,1.665
79.5352,1.604
79.5352,1.526
79.5352,1.559
79.5352,1.559
79.5352,1.575
79.5352,1.626
79.5352,1.7
79.5362,1.773
79.5362,1.819
79.5362,1.864
79.5362,1.837
79.5362,1.768
79.5362,1.668
79.5362,1.625
79.5372,1.568
79.5372,1.487
79.5372,1.47
79.5372,1.499
79.5372,1.528
79.5382,1.583
79.5382,1.625
79.5382,1.672
79.5382,1.73
79.5392,1.8
79.5392,1.838
79.5392,1.751
79.5392,1.704
79.5392,1.643
79.5392,1.6
79.5392,1.553
79.5402,1.472
79.5402,1.496
79.5402,1.508
79.5402,1.528
79.5402,1.577
79.5402,1.664
79.5402,1.733
79.5412,1.797
79.5412,1.87
79.5412,1.845
79.5412,1.759
79.5412,1.667
79.5412,1.619
79.5412,1.57
79.5422,1.492
79.5422,1.478
79.5422,1.52
79.5422,1.544
79.5422,1.598
79.5422,1.651
79.5422,1.697
79.5432,1.756
79.5432,1.816
79.5432,1.865
79.5432,1.801
79.5432,1.754
79.5432,1.71
79.5432,1.663
79.5442,1.622
79.5442,1.517
79.5442,1.547
79.5442,1.561
79.5442,1.592
79.5442,1.643
79.5442,1.691
79.5452,1.793
79.5452,1.86
79.5452,1.916
79.5452,1.908
79.5452,1.85
79.5452,1.802
79.5462,1.71
79.5462,1.669
79.5462,1.589
79.5462,1.565
79.5462,1.599
79.5462,1.602
79.5462,1.669
79.5472,1.721
79.5472,1.761
79.5472,1.819
79.5472,1.885
79.5472,1.944
79.5472,1.876
79.5472,1.827
79.5482,1.779
79.5482,1.723
79.5482,1.684
79.5482,1.571
79.5482,1.592
79.5482,1.603
79.5482,1.627
79.5492,1.667
79.5492,1.717
79.5492,1.819
79.5492,1.883
79.5492,1.94
79.5492,1.942
79.5492,1.883
79.5492,1.832
79.5502,1.732
79.5502,1.686
79.5502,1.612
79.5502,1.573
79.5502,1.593
79.5502,1.608
79.5502,1.666
79.5512,1.718
79.5512,1.764
79.5512,1.82
79.5512,1.882
79.5512,1.936
79.5512,1.88
79.5522,1.83
79.5522,1.78
79.5522,1.735
79.5522,1.685
79.5522,1.611
79.5522,1.581
79.5522,1.598
79.5532,1.614
79.5532,1.657
79.5532,1.703
79.5532,1.75
79.5532,1.868
79.5532,1.923
79.5532,1.918
79.5542,1.874
79.5542,1.823
79.5542,1.774
79.5542,1.676
79.5542,1.606
79.5552,1.557
79.5552,1.561
79.5552,1.586
79.5552,1.606
79.5552,1.692
79.5552,1.739
79.5562,1.786
79.5562,1.857
79.5562,1.917
79.5562,1.923
79.5562,1.819
79.5562,1.769
79.5562,1.718
79.5572,1.682
79.5572,1.602
79.5572,1.546
79.5572,1.583
79.5572,1.591
79.5572,1.641
79.5572,1.683
79.5572,1.732
79.5582,1.772
79.5582,1.905
79.5582,1.914
79.5582,1.868
79.5582,1.813
79.5582,1.762
79.5582,1.676
79.5592,1.61
79.5592,1.54
79.5592,1.564
79.5592,1.583
79.5592,1.594
79.5592,1.683
79.5592,1.725
79.5602,1.783
79.5602,1.849
79.5602,1.908
79.5602,1.916
79.5602,1.82
79.5602,1.774
79.5602,1.724
79.5612,1.678
79.5612,1.61
79.5612,1.544
79.5612,1.584
79.5612,1.596
79.5612,1.632
79.5622,1.687
79.5622,1.73
79.5622,1.85
79.5622,1.915
79.5622,1.937
79.5622,1.892
79.5622,1.827
79.5632,1.778
79.5632,1.683
79.5632,1.618
79.5632,1.548
79.5632,1.557
79.5632,1.577
79.5632,1.586
79.5642,1.682
79.5642,1.723
79.5642,1.773
79.5642,1.836
79.5642,1.903
79.5642,1.928
79.5642,1.826
79.5652,1.779
79.5652,1.727
79.5652,1.688
79.5652,1.623
79.5652,1.546
79.5652,1.589
79.5652,1.593
79.5652,1.622
79.5662,1.67
79.5662,1.719
79.5662,1.833
79.5662,1.895
79.5662,1.924
79.5662,1.889
79.5662,1.824
79.5671,1.775
79.5671,1.678
79.5671,1.624
79.5671,1.553
79.5671,1.542
79.5671,1.563
79.5671,1.578
79.5681,1.679
79.5681,1.716
79.5681,1.762
79.5681,1.831
79.5681,1.892
79.5681,1.919
79.5681,1.833
79.5691,1.784
79.5691,1.727
79.5691,1.678
79.5691,1.618
79.5691,1.552
79.5691,1.563
79.5691,1.582
79.5691,1.611
79.5701,1.656
79.5701,1.705
79.5701,1.807
79.5701,1.866
79.5701,1.894
79.5701,1.873
79.5711,1.808
79.5711,1.764
79.5711,1.656
79.5711,1.608
79.5711,1.528
79.5711,1.497
79.5721,1.518
79.5721,1.546
79.5721,1.614
79.5721,1.661
79.5721,1.693
79.5721,1.766
79.5721,1.822
79.5731,1.865
79.5731,1.78
79.5731,1.743
79.5731,1.689
79.5731,1.644
79.5731,1.599
79.5741,1.51
79.5741,1.546
79.5741,1.559
79.5741,1.592
79.5741,1.641
79.5741,1.695
79.5741,1.812
79.5751,1.87
79.5751,1.932
79.5751,1.908
79.5751,1.831
79.5751,1.796
79.5751,1.697
79.5751,1.651
79.5761,1.577
79.5761,1.558
79.5761,1.573
79.5761,1.592
79.5761,1.667
79.5761,1.704
79.5761,1.752
79.5771,1.817
79.5771,1.88
79.5771,1.932
79.5771,1.848
79.5771,1.808
79.5771,1.751
79.5781,1.705
79.5781,1.658
79.5781,1.562
79.5781,1.577
79.5781,1.598
79.5781,1.62
79.5781,1.665
79.5781,1.718
79.5791,1.819
79.5791,1.875
79.5791,1.932
79.5791,1.936
79.5791,1.857
79.5791,1.823
79.5791,1.712
79.5801,1.668
79.5801,1.595
79.5801,1.555
79.5801,1.586
79.5801,1.603
79.5801,1.675
79.5801,1.723
79.5811,1.763
79.5811,1.822
79.5811,1.885
79.5811,1.939
79.5811,1.863
79.5811,1.822
79.5821,1.775
79.5821,1.722
79.5821,1.681
79.5821,1.569
79.5821,1.604
79.5821,1.604
79.5821,1.622
79.5831,1.664
79.5831,1.727
79.5831,1.825
79.5831,1.897
79.5831,1.954
79.5831,1.936
79.5831,1.867
79.5831,1.82
79.5841,1.715
79.5841,1.663
79.5841,1.589
79.5841,1.541
79.5841,1.536
79.5841,1.532
79.5841,1.537
79.5851,1.542
79.5851,1.547
79.5851,1.558
79.5851,1.595
79.5851,1.646
79.5851,1.509
79.5851,1.425
79.5861,1.36
79.5861,1.311
79.5861,1.301
79.5861,1.296
79.5861,1.53
79.5861,1.804
79.5861,1.773
79.5871,1.797
79.5871,1.828
79.5871,1.932
79.5871,2.052
79.5871,2.487
79.5871,2.579
79.5881,2.543
79.5881,2.453
79.5881,2.364
79.5881,2.238
79.5881,2.164
79.5881,2.097
79.5881,2.137
79.5891,2.136
79.5891,2.098
79.5891,2.132
79.5891,2.127
79.5891,2.137
79.5891,2.176
79.5891,2.199
79.5901,2.18
79.5901,1.997
79.5901,1.915
79.5901,1.836
79.5901,1.774
79.5901,1.678
79.5901,1.605
79.5901,1.614
79.5911,1.631
79.5911,1.672
79.5911,1.723
79.5911,1.766
79.5911,1.803
79.5911,1.922
79.5911,1.913
79.5921,1.883
79.5921,1.809
79.5921,1.756
79.5921,1.706
79.5921,1.58
79.5921,1.528
79.5931,1.544
79.5931,1.551
79.5931,1.568
79.5931,1.613
79.5931,1.706
79.5931,1.748
79.5931,1.814
79.5941,1.874
79.5941,1.888
79.5941,1.853
79.5941,1.739
79.5941,1.69
79.5941,1.648
79.5941,1.577
79.5951,1.518
79.5951,1.529
79.5951,1.547
79.5951,1.591
79.5951,1.64
79.5951,1.69
79.5951,1.726
79.5951,1.8
79.5961,1.875
79.5961,1.844
79.5961,1.78
79.5961,1.733
79.5961,1.682
79.5961,1.639
79.5961,1.51
79.5971,1.522
79.5971,1.535
79.5971,1.537
79.5971,1.579
79.5971,1.63
79.5971,1.68
79.5971,1.789
79.5981,1.842
79.5981,1.877
79.5981,1.844
79.5981,1.777
79.5981,1.666
79.5981,1.631
79.5981,1.573
79.5981,1.512
79.5991,1.519
79.5991,1.533
79.5991,1.534
79.5991,1.631
79.5991,1.674
79.5991,1.713
79.6001,1.781
79.6001,1.834
79.6001,1.872
79.6001,1.768
79.6001,1.721
79.6001,1.676
79.6001,1.636
79.6001,1.574
79.6011,1.506
79.6011,1.532
79.6011,1.565
79.6011,1.617
79.6011,1.691
80.1795,1.769
80.1805,1.829
80.1805,1.864
80.1805,1.843
80.1805,1.766
80.1805,1.66
80.1805,1.623
80.1815,1.557
80.1815,1.488
80.1815,1.475
80.1815,1.51
80.1815,1.541
80.1815,1.593
80.1825,1.642
80.1825,1.678
80.1825,1.754
80.1825,1.813
80.1825,1.819
80.1825,1.741
80.1825,1.69
80.1825,1.638
80.1835,1.597
80.1835,1.538
80.1835,1.444
80.1835,1.475
80.1835,1.473
80.1835,1.518
80.1835,1.555
80.1845,1.592
80.1845,1.697
80.1845,1.77
80.1845,1.793
80.1845,1.77
80.1845,1.691
80.1845,1.639
80.1855,1.532
80.1855,1.481
80.1855,1.406
80.1855,1.382
80.1855,1.41
80.1855,1.408
80.1855,1.493
80.1865,1.54
80.1865,1.57
80.1865,1.63
80.1865,1.691
80.1865,1.721
80.1865,1.635
80.1865,1.583
80.1875,1.536
80.1875,1.5
80.1875,1.44
80.1875,1.363
80.1875,1.366
80.1885,1.394
80.1885,1.408
80.1885,1.461
80.1885,1.51
80.1885,1.549
80.1885,1.682
80.1885,1.73
80.1895,1.71
80.1895,1.648
80.1895,1.603
80.1895,1.555
80.1895,1.461
80.1895,1.38
80.1895,1.357
80.1905,1.378
80.1905,1.403
80.1905,1.426
80.1905,1.529
80.1905,1.577
80.1905,1.649
80.1905,1.711
80.1915,1.769
80.1915,1.754
80.1915,1.647
80.1915,1.608
80.1915,1.563
80.1915,1.532
80.1915,1.454
80.1925,1.421
80.1925,1.472
80.1925,1.497
80.1925,1.555
80.1925,1.613
80.1925,1.667
80.1925,1.714
80.1935,1.84
80.1935,1.841
80.1935,1.778
80.1935,1.73
80.1935,1.685
80.1935,1.648
80.1935,1.535
80.1945,1.503
80.1945,1.524
80.1945,1.54
80.1945,1.572
80.1945,1.632
80.1945,1.72
80.1945,1.78
80.1955,1.861
80.1955,1.919
80.1955,1.907
80.1955,1.798
80.1955,1.752
80.1955,1.714
80.1955,1.672
80.1965,1.592
80.1965,1.549
80.1965,1.602
80.1965,1.625
80.1965,1.671
80.1965,1.718
80.1965,1.763
80.1965,1.812
80.1975,1.941
80.1975,1.933
80.1975,1.874
80.1975,1.821
80.1975,1.772
80.1975,1.719
80.1985,1.604
80.1985,1.546
80.1985,1.574
80.1985,1.595
80.1985,1.61
80.1985,1.706
80.1985,1.751
80.1995,1.796
80.1995,1.868
80.1995,1.931
80.1995,1.928
80.1995,1.822
80.1995,1.768
80.1995,1.718
80.2005,1.67
80.2005,1.597
80.2005,1.552
80.2005,1.569
80.2005,1.605
80.2005,1.645
80.2005,1.684
80.2015,1.726
80.2015,1.777
80.2015,1.907
80.2015,1.919
80.2015,1.858
80.2015,1.798
80.2015,1.75
80.2025,1.669
80.2025,1.586
80.2025,1.536
80.2025,1.544
80.2025,1.56
80.2025,1.584
80.2034,1.685
80.2034,1.718
80.2034,1.76
80.2034,1.835
80.2034,1.893
80.2034,1.898
80.2034,1.785
80.2044,1.742
80.2044,1.688
80.2044,1.651
80.2044,1.58
80.2044,1.514
80.2044,1.562
80.2044,1.577
80.2054,1.617
80.2054,1.662
80.2054,1.706
80.2054,1.83
80.2054,1.893
80.2054,1.913
80.2054,1.85
80.2064,1.779
80.2064,1.731
80.2064,1.657
80.2064,1.584
80.2064,1.525
80.2064,1.555
80.2064,1.57
80.2074,1.56
80.2074,1.662
80.2074,1.697
80.2074,1.744
80.2074,1.819
80.2074,1.881
80.2074,1.886
80.2084,1.793
80.2084,1.74
80.2084,1.709
80.2084,1.662
80.2084,1.586
80.2084,1.521
80.2084,1.565
80.2094,1.572
80.2094,1.616
80.2094,1.67
80.2094,1.717
80.2094,1.749
80.2094,1.896
80.2094,1.906
80.2104,1.868
80.2104,1.802
80.2104,1.747
80.2104,1.706
80.2104,1.603
80.2104,1.541
80.2104,1.562
80.2114,1.568
80.2114,1.588
80.2114,1.627
80.2114,1.713
80.2114,1.759
80.2114,1.829
80.2114,1.887
80.2114,1.892
80.2124,1.867
80.2124,1.756
80.2124,1.704
80.2124,1.658
80.2124,1.596
80.2124,1.52
80.2124,1.523
80.2134,1.557
80.2134,1.587
80.2134,1.643
80.2134,1.698
80.2134,1.725
80.2134,1.797
80.2144,1.881
80.2144,1.858
80.2144,1.784
80.2144,1.721
80.2144,1.672
80.2144,1.629
80.2144,1.493
80.2154,1.49
80.2154,1.508
80.2154,1.523
80.2154,1.55
80.2154,1.605
80.2154,1.705
80.2154,1.776
80.2164,1.844
80.2164,1.866
80.2164,1.854
80.2164,1.785
80.2164,1.691
80.2164,1.65
80.2164,1.593
80.2174,1.53
80.2174,1.523
80.2174,1.555
80.2174,1.598
80.2174,1.652
80.2174,1.702
80.2174,1.735
80.2184,1.812
80.2184,1.869
80.2184,1.892
80.2184,1.826
80.2184,1.778
80.2184,1.722
80.2184,1.673
80.2194,1.64
80.2194,1.543
80.2194,1.572
80.2194,1.583
80.2194,1.614
80.2194,1.653
80.2204,1.71
80.2204,1.82
80.2204,1.874
80.2204,1.918
80.2204,1.909
80.2204,1.835
80.2214,1.791
80.2214,1.699
80.2214,1.645
80.2214,1.564
80.2214,1.544
80.2214,1.578
80.2214,1.584
80.2224,1.665
80.2224,1.724
80.2224,1.773
80.2224,1.833
80.2224,1.891
80.2224,1.943
80.2224,1.852
80.2234,1.8
80.2234,1.747
80.2234,1.703
80.2234,1.659
80.2234,1.584
80.2234,1.585
80.2234,1.59
80.2244,1.622
80.2244,1.667
80.2244,1.724
80.2244,1.763
80.2244,1.886
80.2244,1.947
80.2244,1.923
80.2244,1.845
80.2254,1.805
80.2254,1.757
80.2254,1.665
80.2254,1.592
80.2254,1.542
80.2254,1.589
80.2254,1.598
80.2264,1.632
80.2264,1.744
80.2264,1.789
80.2264,1.841
80.2264,1.893
80.2264,1.944
80.2264,1.929
80.2274,1.823
80.2274,1.768
80.2274,1.727
80.2274,1.671
80.2274,1.583
80.2274,1.531
80.2274,1.523
80.2284,1.511
80.2284,1.532
80.2284,1.539
80.2284,1.548
80.2284,1.607
80.2284,1.67
80.2284,1.614
80.2284,1.512
80.2294,1.431
80.2294,1.412
80.2294,1.438
80.2294,1.725
80.2294,1.755
80.2304,1.761
80.2304,1.748
80.2304,1.746
80.2304,1.836
80.2304,2.066
80.2304,2.29
80.2304,2.469
80.2314,2.578
80.2314,2.545
80.2314,2.432
80.2314,2.269
80.2314,2.217
80.2314,2.158
80.2314,2.084
80.2324,2.036
80.2324,2.024
80.2324,1.987
80.2324,2.012
80.2324,2.03
80.2324,2.042
80.2324,2.057
80.2334,2.082
80.2334,2.101
80.2334,1.998
80.2334,1.902
80.2334,1.835
80.2334,1.771
80.2334,1.707
80.2344,1.567
80.2344,1.576
80.2344,1.605
80.2344,1.625
80.2344,1.667
80.2344,1.759
80.2344,1.803
80.2344,1.867
80.2354,1.912
80.2354,1.915
80.2354,1.857
80.2354,1.743
80.2354,1.687
80.2354,1.644
80.2354,1.578
80.2364,1.523
80.2364,1.54
80.2364,1.572
80.2364,1.614
80.2364,1.665
80.2364,1.709
80.2364,1.756
80.2374,1.825
80.2374,1.884
80.2374,1.84
80.2374,1.785
80.2374,1.727
80.2384,1.681
80.2384,1.646
80.2384,1.509
80.2384,1.537
80.2384,1.546
80.2384,1.557
80.2384,1.608
80.2384,1.697
80.2394,1.741
80.2394,1.811
80.2394,1.864
80.2394,1.868
80.2394,1.837
80.2394,1.727
80.2394,1.675
80.2404,1.634
80.2404,1.551
80.2404,1.507
80.2404,1.517
80.2404,1.544
80.2404,1.582
80.2414,1.635
80.2414,1.683
80.2414,1.723
80.2414,1.852
80.2414,1.874
80.2414,1.826
80.2414,1.763
80.2414,1.715
80.2424,1.67
80.2424,1.55
80.2424,1.49
80.2424,1.501
80.2424,1.522
80.2424,1.532
80.2434,1.574
80.2434,1.675
80.2434,1.719
80.2434,1.776
80.2434,1.844
80.2434,1.858
80.2434,1.813
80.2434,1.703
80.2444,1.653
80.2444,1.613
80.2444,1.546
80.2444,1.48
80.2444,1.494
80.2444,1.519
80.2444,1.562
80.2454,1.612
80.2454,1.656
80.2454,1.693
80.2454,1.824
80.2454,1.844
80.2454,1.812
80.2463,1.742
80.2463,1.691
80.2463,1.639
80.2463,1.537
80.2463,1.469
80.2463,1.474
80.2463,1.491
80.2473,1.494
80.2473,1.533
80.2473,1.637
80.2473,1.667
80.2473,1.74
80.2473,1.799
80.2473,1.821
80.2483,1.786
80.2483,1.67
80.2483,1.619
80.2483,1.566
80.2483,1.501
80.2483,1.432
80.2483,1.447
80.2493,1.456
80.2493,1.494
80.2493,1.538
80.2493,1.582
80.2493,1.618
80.2493,1.744
80.2493,1.764
80.2493,1.73
80.2503,1.656
80.2503,1.609
80.2503,1.564
80.2503,1.449
80.2503,1.372
80.2503,1.365
80.2503,1.393
80.2513,1.472
80.2513,1.518
80.2513,1.559
80.8620,1.626
80.8640,1.688
80.8640,1.71
80.8650,1.628
80.8650,1.578
80.8650,1.522
80.8650,1.475
80.8650,1.416
80.8660,1.343
80.8660,1.37
80.8660,1.373
80.8660,1.407
80.8660,1.466
80.8670,1.512
80.8670,1.62
80.8670,1.683
80.8670,1.712
80.8670,1.693
80.8670,1.63
80.8680,1.587
80.8680,1.491
80.8680,1.443
80.8680,1.37
80.8680,1.354
80.8690,1.387
80.8690,1.399
80.8690,1.495
80.8690,1.55
80.8690,1.588
80.8700,1.667
80.8700,1.736
80.8700,1.778
80.8700,1.698
80.8710,1.658
80.8710,1.614
80.8710,1.571
80.8710,1.529
80.8720,1.439
80.8720,1.477
80.8720,1.496
80.8720,1.528
80.8720,1.576
80.8730,1.632
80.8730,1.751
80.8730,1.81
80.8730,1.857
80.8730,1.845
80.8740,1.785
80.8740,1.748
80.8740,1.653
80.8740,1.613
80.8740,1.539
80.8750,1.514
80.8750,1.55
80.8750,1.562
80.8750,1.652
80.8750,1.708
80.8750,1.751
80.8760,1.816
80.8760,1.88
80.8760,1.937
80.8760,1.85
80.8760,1.808
80.8770,1.758
80.8770,1.708
80.8770,1.672
80.8770,1.604
80.8770,1.595
80.8770,1.612
80.8770,1.633
80.8780,1.68
80.8780,1.736
80.8780,1.834
80.8780,1.892
80.8780,1.946
80.8780,1.94
80.8780,1.87
80.8790,1.82
80.8790,1.72
80.8790,1.676
80.8790,1.602
80.8790,1.562
80.8790,1.59
80.8800,1.608
80.8800,1.672
80.8800,1.718
80.8800,1.756
80.8800,1.815
80.8800,1.884
80.8800,1.935
80.8810,1.855
80.8810,1.808
80.8810,1.759
80.8810,1.707
80.8810,1.664
80.8810,1.583
80.8820,1.571
80.8820,1.583
80.8820,1.607
80.8820,1.652
80.8820,1.701
80.8820,1.744
80.8820,1.861
80.8830,1.921
80.8830,1.921
80.8830,1.855
80.8830,1.8
80.8830,1.749
80.8830,1.654
80.8830,1.584
80.8830,1.534
80.8840,1.563
80.8840,1.571
80.8840,1.59
80.8840,1.678
80.8840,1.724
80.8840,1.775
80.8840,1.842
80.8850,1.902
80.8850,1.901
80.8850,1.792
80.8850,1.745
80.8850,1.689
80.8850,1.649
80.8850,1.574
80.8860,1.523
80.8860,1.566
80.8860,1.58
80.8860,1.626
80.8860,1.67
80.8860,1.717
80.8860,1.767
80.8870,1.89
80.8870,1.894
80.8870,1.835
80.8870,1.785
80.8870,1.734
80.8870,1.686
80.8879,1.575
80.8879,1.526
80.8879,1.547
80.8879,1.573
80.8879,1.574
80.8879,1.62
80.8879,1.722
80.8890,1.767
80.8890,1.838
80.8890,1.891
80.8890,1.908
80.8890,1.849
80.8890,1.748
80.8890,1.699
80.8900,1.659
80.8900,1.587
80.8900,1.529
80.8900,1.558
80.8900,1.586
80.8900,1.629
80.8900,1.674
80.8910,1.717
80.8910,1.774
80.8910,1.84
80.8910,1.912
80.8910,1.873
80.8910,1.808
80.8920,1.757
80.8920,1.699
80.8920,1.662
80.8920,1.538
80.8920,1.569
80.8920,1.584
80.8920,1.588
80.8929,1.629
80.8929,1.681
80.8929,1.771
80.8929,1.846
80.8929,1.904
80.8929,1.929
80.8929,1.88
80.8939,1.817
80.8939,1.714
80.8939,1.669
80.8939,1.601
80.8939,1.538
80.8939,1.558
80.8939,1.575
80.8949,1.613
80.8949,1.661
80.8949,1.712
80.8949,1.753
80.8949,1.827
80.8949,1.887
80.8949,1.856
80.8949,1.792
80.8959,1.738
80.8959,1.687
80.8959,1.645
80.8959,1.576
80.8959,1.519
80.8959,1.531
80.8959,1.542
80.8969,1.583
80.8969,1.633
80.8969,1.727
80.8969,1.804
80.8969,1.863
80.8969,1.883
80.8969,1.844
80.8979,1.795
80.8979,1.695
80.8979,1.655
80.8979,1.592
80.8979,1.532
80.8979,1.539
80.8979,1.57
80.8989,1.626
80.8989,1.675
80.8989,1.733
80.8989,1.772
80.8989,1.844
80.8989,1.936
80.8989,1.905
80.8999,1.834
80.8999,1.789
80.8999,1.74
80.8999,1.694
80.8999,1.572
80.8999,1.563
80.8999,1.586
80.9009,1.601
80.9009,1.639
80.9009,1.688
80.9009,1.775
80.9009,1.853
80.9009,1.909
80.9019,1.932
80.9019,1.91
80.9019,1.842
80.9019,1.745
80.9019,1.706
80.9019,1.648
80.9019,1.577
80.9029,1.578
80.9029,1.597
80.9029,1.642
80.9029,1.694
80.9029,1.744
80.9029,1.78
80.9029,1.855
80.9029,1.917
80.9039,1.933
80.9039,1.857
80.9039,1.813
80.9039,1.759
80.9039,1.714
80.9049,1.598
80.9049,1.577
80.9049,1.602
80.9049,1.615
80.9049,1.646
80.9049,1.698
80.9059,1.785
80.9059,1.851
80.9059,1.913
80.9059,1.963
80.9059,1.937
80.9059,1.861
80.9059,1.763
80.9059,1.713
80.9069,1.668
80.9069,1.601
80.9069,1.576
80.9069,1.61
80.9069,1.655
80.9069,1.703
80.9069,1.761
80.9079,1.808
80.9079,1.868
80.9079,1.919
80.9079,1.929
80.9079,1.861
80.9079,1.807
80.9079,1.758
80.9089,1.717
80.9089,1.565
80.9089,1.509
80.9089,1.515
80.9089,1.474
80.9089,1.444
80.9089,1.436
80.9099,1.457
80.9099,1.481
80.9099,1.503
80.9099,1.507
80.9099,1.465
80.9099,1.368
80.9099,1.292
80.9099,1.36
80.9109,1.573
80.9109,1.647
80.9109,1.636
80.9109,1.623
80.9109,1.666
80.9109,1.814
80.9119,1.92
80.9119,2.074
80.9119,2.292
80.9119,2.415
80.9119,2.468
80.9119,2.39
80.9119,2.344
80.9129,2.288
80.9129,2.235
80.9129,2.091
80.9129,2.062
80.9129,2.074
80.9129,2.052
80.9129,2.032
80.9129,2.039
80.9139,2.08
80.9139,2.101
80.9139,2.133
80.9139,2.175
80.9139,2.124
80.9139,2.0
80.9149,1.858
80.9149,1.793
80.9149,1.733
80.9149,1.643
80.9149,1.605
80.9149,1.63
80.9149,1.66
80.9149,1.709
80.9159,1.754
80.9159,1.793
80.9159,1.848
80.9159,1.914
80.9159,1.958
80.9159,1.879
80.9159,1.828
80.9169,1.775
80.9169,1.719
80.9169,1.589
80.9169,1.56
80.9169,1.593
80.9169,1.602
80.9169,1.608
80.9179,1.655
80.9179,1.75
80.9179,1.805
80.9179,1.867
80.9179,1.925
80.9179,1.92
80.9179,1.856
80.9189,1.757
80.9189,1.705
80.9189,1.665
80.9189,1.585
80.9189,1.543
80.9189,1.565
80.9189,1.606
80.9199,1.647
80.9199,1.69
80.9199,1.737
80.9199,1.793
80.9199,1.92
80.9199,1.918
80.9199,1.865
80.9208,1.804
80.9208,1.752
80.9208,1.701
80.9208,1.584
80.9208,1.538
80.9219,1.568
80.9219,1.586
80.9219,1.594
80.9219,1.644
80.9219,1.736
80.9219,1.779
80.9219,1.853
80.9229,1.917
80.9229,1.927
80.9229,1.864
80.9229,1.761
80.9229,1.712
80.9229,1.671
80.9229,1.6
80.9239,1.545
80.9239,1.597
80.9239,1.598
80.9239,1.644
80.9239,1.693
80.9239,1.738
80.9239,1.782
80.9248,1.919
80.9248,1.93
80.9248,1.875
80.9248,1.819
80.9248,1.769
80.9248,1.716
80.9258,1.61
80.9258,1.554
80.9258,1.575
80.9258,1.589
80.9258,1.594
80.9258,1.644
80.9258,1.74
80.9258,1.788
80.9269,1.861
80.9269,1.918
80.9269,1.927
80.9269,1.824
80.9269,1.775
80.9269,1.728
80.9278,1.688
80.9278,1.618
80.9278,1.553
80.9278,1.602
80.9278,1.601
80.9278,1.645
80.9278,1.693
80.9289,1.744
80.9289,1.786
80.9289,1.923
80.9289,1.948
80.9289,1.901
80.9289,1.825
80.9289,1.772
80.9299,1.722
80.9299,1.608
80.9299,1.549
80.9299,1.58
80.9299,1.592
80.9299,1.584
80.9299,1.628
80.9299,1.719
80.9309,1.758
80.9318,1.829
80.9348,1.888
80.9378,1.91
80.9428,1.795
80.9438,1.744
80.9458,1.692
80.9458,1.645
80.9468,1.577
80.9468,1.509
80.9468,1.536
80.9468,1.543
80.9468,1.582
80.9468,1.629
80.9468,1.678
80.9478,1.709
80.9478,1.845
80.9478,1.865
80.9478,1.819
80.9478,1.755
80.9478,1.706
80.9478,1.661
80.9488,1.557
80.9488,1.489
80.9488,1.486
80.9488,1.512
80.9488,1.52
80.9488,1.607
80.9488,1.655
80.9498,1.699
80.9498,1.77
80.9498,1.832
80.9498,1.855
80.9498,1.752
80.9498,1.703
80.9498,1.659
80.9498,1.618
80.9508,1.555
80.9508,1.481
80.9508,1.502
80.9508,1.516
80.9508,1.553
80.9508,1.606
80.9518,1.659
80.9518,1.694
80.9518,1.832
80.9518,1.865
80.9518,1.831
80.9518,1.768
80.9518,1.728
80.9528,1.635
80.9528,1.583
80.9528,1.514
80.9528,1.497
80.9528,1.537
80.9528,1.545
80.9538,1.637
80.9538,1.731
80.9538,1.792
81.5451,1.866
81.5491,1.876
81.5501,1.816
81.5501,1.779
81.5511,1.723
81.5511,1.685
81.5521,1.632
81.5521,1.557
81.5531,1.578
81.5531,1.588
81.5531,1.63
81.5541,1.678
81.5551,1.768
81.5551,1.835
81.5561,1.896
81.5561,1.932
81.5561,1.916
81.5571,1.85
81.5571,1.758
81.5571,1.713
81.5581,1.664
81.5591,1.585
81.5601,1.563
81.5601,1.591
81.5611,1.636
81.5611,1.685
81.5621,1.736
81.5621,1.775
81.5621,1.84
81.5631,1.9
81.5631,1.925
81.5631,1.862
81.5631,1.815
81.5641,1.759
81.5641,1.715
81.5641,1.664
81.5651,1.563
81.5651,1.586
81.5651,1.6
81.5651,1.637
81.5651,1.682
81.5661,1.73
81.5661,1.831
81.5661,1.892
81.5661,1.94
81.5661,1.937
81.5671,1.86
81.5671,1.763
81.5671,1.72
81.5671,1.675
81.5671,1.589
81.5671,1.561
81.5680,1.589
81.5680,1.627
81.5680,1.674
81.5680,1.72
81.5680,1.763
81.5690,1.824
81.5690,1.888
81.5690,1.922
81.5690,1.854
81.5690,1.811
81.5700,1.762
81.5700,1.717
81.5700,1.587
81.5700,1.549
81.5700,1.577
81.5710,1.59
81.5710,1.619
81.5710,1.664
81.5710,1.755
81.5710,1.811
81.5720,1.884
81.5720,1.941
81.5720,1.921
81.5720,1.855
81.5720,1.755
81.5720,1.713
81.5720,1.67
81.5730,1.582
81.5730,1.553
81.5730,1.576
81.5730,1.61
81.5730,1.654
81.5730,1.707
81.5730,1.747
81.5740,1.806
81.5740,1.864
81.5740,1.915
81.5740,1.864
81.5740,1.813
81.5740,1.754
81.5750,1.709
81.5750,1.672
81.5750,1.548
81.5750,1.566
81.5750,1.583
81.5750,1.606
81.5750,1.655
81.5760,1.705
81.5760,1.795
81.5760,1.872
81.5760,1.928
81.5760,1.919
81.5760,1.856
81.5760,1.81
81.5760,1.707
81.5770,1.667
81.5770,1.593
81.5770,1.544
81.5770,1.568
81.5770,1.591
81.5770,1.65
81.5770,1.699
81.5780,1.743
81.5780,1.794
81.5780,1.873
81.5780,1.909
81.5780,1.866
81.5780,1.813
81.5780,1.762
81.5790,1.711
81.5790,1.672
81.5790,1.597
81.5790,1.566
81.5790,1.591
81.5790,1.608
81.5790,1.647
81.5800,1.696
81.5800,1.734
81.5800,1.856
81.5800,1.91
81.5800,1.921
81.5800,1.865
81.5800,1.807
81.5810,1.757
81.5810,1.649
81.5810,1.582
81.5810,1.524
81.5810,1.542
81.5810,1.558
81.5820,1.585
81.5820,1.66
81.5820,1.704
81.5820,1.747
81.5820,1.817
81.5820,1.872
81.5820,1.879
81.5830,1.77
81.5830,1.72
81.5830,1.673
81.5830,1.633
81.5830,1.563
81.5830,1.5
81.5830,1.553
81.5840,1.559
81.5840,1.602
81.5840,1.656
81.5840,1.712
81.5840,1.751
81.5840,1.894
81.5840,1.904
81.5840,1.857
81.5850,1.797
81.5850,1.756
81.5850,1.716
81.5850,1.606
81.5850,1.548
81.5850,1.563
81.5850,1.59
81.5860,1.598
81.5860,1.65
81.5860,1.737
81.5860,1.778
81.5860,1.845
81.5860,1.912
81.5860,1.927
81.5870,1.887
81.5870,1.779
81.5870,1.732
81.5870,1.69
81.5870,1.622
81.5870,1.56
81.5870,1.57
81.5880,1.604
81.5880,1.645
81.5880,1.696
81.5880,1.746
81.5880,1.78
81.5880,1.853
81.5880,1.943
81.5890,1.908
81.5890,1.846
81.5920,1.799
81.5960,1.748
81.6010,1.705
81.6020,1.578
81.6040,1.573
81.6050,1.596
81.6050,1.612
81.6050,1.651
81.6050,1.748
81.6050,1.783
81.6050,1.861
81.6050,1.922
81.6059,1.945
81.6059,1.91
81.6059,1.797
81.6059,1.752
81.6059,1.71
81.6059,1.65
81.6059,1.586
81.6069,1.572
81.6069,1.608
81.6069,1.65
81.6069,1.698
81.6069,1.744
81.6069,1.786
81.6069,1.853
81.6079,1.971
81.6079,1.905
81.6079,1.848
81.6079,1.801
81.6079,1.75
81.6079,1.659
81.6079,1.592
81.6089,1.587
81.6089,1.611
81.6089,1.6
81.6089,1.622
81.6089,1.718
81.6089,1.752
81.6089,1.827
81.6089,1.88
81.6099,1.914
81.6099,1.85
81.6099,1.653
81.6099,1.546
81.6099,1.457
81.6099,1.335
81.6099,1.265
81.6109,1.253
81.6109,1.246
81.6109,1.246
81.6109,1.247
81.6109,1.249
81.6109,1.259
81.6119,1.342
81.6119,1.833
81.6119,1.938
81.6119,1.902
81.6119,1.816
81.6119,1.792
81.6119,1.807
81.6129,1.84
81.6129,1.885
81.6129,2.072
81.6129,2.171
81.6129,2.254
81.6129,2.282
81.6129,2.344
81.6139,2.386
81.6139,2.426
81.6139,2.462
81.6139,2.451
81.6139,2.267
81.6139,2.17
81.6149,2.1
81.6149,2.015
81.6149,1.907
81.6149,1.854
81.6149,1.82
81.6149,1.81
81.6149,1.822
81.6149,1.844
81.6159,1.856
81.6159,1.91
81.6159,2.009
81.6159,1.97
81.6159,1.893
81.6159,1.845
81.6159,1.794
81.6169,1.75
81.6169,1.63
81.6169,1.596
81.6169,1.624
81.6169,1.632
81.6169,1.647
81.6179,1.739
81.6179,1.768
81.6179,1.829
81.6179,1.885
81.6179,1.93
81.6179,1.916
81.6179,1.798
81.6179,1.748
81.6189,1.698
81.6189,1.652
81.6189,1.58
81.6189,1.549
81.6189,1.576
81.6189,1.607
81.6189,1.653
81.6199,1.705
81.6199,1.745
81.6199,1.865
81.6199,1.916
81.6199,1.899
81.6199,1.835
81.6209,1.787
81.6209,1.735
81.6209,1.64
81.6219,1.564
81.6219,1.534
81.6219,1.555
81.6219,1.571
81.6219,1.589
81.6219,1.689
81.6219,1.739
81.6229,1.792
81.6229,1.85
81.6229,1.91
81.6229,1.903
81.6229,1.793
81.6229,1.74
81.6229,1.688
81.6239,1.646
81.6239,1.578
81.6239,1.532
81.6239,1.579
81.6239,1.595
81.6239,1.649
81.6239,1.693
81.6249,1.73
81.6249,1.852
81.6249,1.915
81.6249,1.912
81.6249,1.852
81.6249,1.799
81.6249,1.747
81.6259,1.664
81.6259,1.592
81.6259,1.543
81.6259,1.58
81.6259,1.584
81.6259,1.6
81.6259,1.695
81.6259,1.742
81.6269,1.792
81.6269,1.86
81.6269,1.921
81.6269,1.918
81.6269,1.807
81.6269,1.758
81.6269,1.706
81.6279,1.678
81.6279,1.603
81.6279,1.544
81.6279,1.589
81.6279,1.606
81.6279,1.65
81.6289,1.708
81.6289,1.75
81.6289,1.867
81.6289,1.931
81.6289,1.937
81.6289,1.869
81.6289,1.819
81.6299,1.776
81.6299,1.684
81.6299,1.616
81.6299,1.554
81.6299,1.584
81.6299,1.601
81.6299,1.616
81.6309,1.706
81.6309,1.743
81.6309,1.792
81.6309,1.856
81.6309,1.925
81.6309,1.935
81.6309,1.813
81.6319,1.766
81.6319,1.716
81.6319,1.679
81.6319,1.598
81.6319,1.565
81.6319,1.576
81.6319,1.584
81.6329,1.623
81.6329,1.666
81.6329,1.708
81.6329,1.822
81.6329,1.883
81.6329,1.895
81.6329,1.836
81.6339,1.782
81.6339,1.737
81.6339,1.63
81.6339,1.563
81.6339,1.502
81.6339,1.52
81.6339,1.541
81.6339,1.589
81.6349,1.639
81.6349,1.679
81.6349,1.719
81.6349,1.79
81.6349,1.847
81.6349,1.831
81.6349,1.762
81.6359,1.71
81.6359,1.663
81.6359,1.619
81.6359,1.553
81.6359,1.495
81.6359,1.529
81.6359,1.528
81.6369,1.569
81.6369,1.617
81.6369,1.671
81.6369,1.779
81.6369,1.839
81.6379,1.87
81.6379,1.819
81.6379,1.746
81.6379,1.706
81.6389,1.613
81.6389,1.559
81.6389,1.501
81.6389,1.507
81.6389,1.515
81.6389,1.574
81.6389,1.623
81.6389,1.674
81.6399,1.715
81.6399,1.785
81.6399,1.847
81.6399,1.84
81.6399,1.773
81.6399,1.73
81.6409,1.69
81.6409,1.657
81.6409,1.586
81.6409,1.53
81.6409,1.57
81.6409,1.565
81.6409,1.604
81.6419,1.652
81.6419,1.702
81.6419,1.821
81.6419,1.885
81.6419,1.917
81.6419,1.882
81.6419,1.814
81.6429,1.728
81.6429,1.677
81.6429,1.621
81.6429,1.551
81.6429,1.552
81.6429,1.589
81.6429,1.631
81.6439,1.678
81.6439,1.733
81.6439,1.769
81.6439,1.843
81.6439,1.899
81.6439,1.909
81.6439,1.833
81.6449,1.789
81.6449,1.734
81.6449,1.695
81.6449,1.641
81.6449,1.566
81.6449,1.592
81.6449,1.603
81.6459,1.638
81.6459,1.684
81.6459,1.726
81.6459,1.838
81.6459,1.894
81.6459,1.936
81.6459,1.924
81.6469,1.839
81.6469,1.739
81.6469,1.692
81.6469,1.656
81.6469,1.569
81.6469,1.549
81.6469,1.589
81.6479,1.623
81.6479,1.673
81.6479,1.725
81.6479,1.765
81.6479,1.943
81.6479,1.908
82.4547,1.838
82.4547,1.8
82.4547,1.74
82.4547,1.688
82.4547,1.581
82.4547,1.547
82.4557,1.581
82.4557,1.595
82.4557,1.621
82.4557,1.718
82.4557,1.753
82.4557,1.816
82.4557,1.88
82.4557,1.944
82.4567,1.924
82.4567,1.791
82.4567,1.748
82.4567,1.701
82.4567,1.649
82.4567,1.574
82.4577,1.556
82.4577,1.592
82.4577,1.622
82.4577,1.666
82.4577,1.709
82.4577,1.749
82.4577,1.808
82.4577,1.925
82.4587,1.91
82.4587,1.835
82.4587,1.787
82.4587,1.74
82.4587,1.699
82.4587,1.562
82.4587,1.54
82.4597,1.568
82.4597,1.588
82.4597,1.605
82.4597,1.705
82.4597,1.745
82.4597,1.799
82.4597,1.863
82.4607,1.914
82.4607,1.906
82.4627,1.79
82.4666,1.739
82.4686,1.688
82.4736,1.641
82.4746,1.567
82.4767,1.536
82.4767,1.564
82.4776,1.598
82.4776,1.648
82.4776,1.696
82.4776,1.743
82.4776,1.8
82.4776,1.904
82.4776,1.913
82.4786,1.837
82.4786,1.786
82.4786,1.74
82.4786,1.644
82.4786,1.573
82.4786,1.526
82.4786,1.556
82.4796,1.582
82.4796,1.601
82.4796,1.691
82.4796,1.733
82.4796,1.787
82.4796,1.862
82.4796,1.918
82.4806,1.908
82.4806,1.8
82.4806,1.745
82.4806,1.696
82.4806,1.647
82.4806,1.572
82.4806,1.532
82.4816,1.568
82.4816,1.595
82.4816,1.635
82.4816,1.677
82.4816,1.717
82.4816,1.766
82.4816,1.894
82.4826,1.887
82.4826,1.823
82.4826,1.77
82.4826,1.722
82.4826,1.628
82.4826,1.541
82.4826,1.488
82.4836,1.512
82.4836,1.532
82.4836,1.545
82.4836,1.592
82.4836,1.683
82.4836,1.732
82.4836,1.809
82.4836,1.87
82.4846,1.856
82.4846,1.766
82.4846,1.72
82.4846,1.676
82.4846,1.634
82.4846,1.563
82.4846,1.508
82.4856,1.567
82.4856,1.58
82.4856,1.628
82.4856,1.68
82.4856,1.733
82.4866,1.77
82.4866,1.897
82.4866,1.908
82.4866,1.859
82.4866,1.803
82.4876,1.752
82.4876,1.703
82.4876,1.591
82.4876,1.535
82.4876,1.546
82.4886,1.578
82.4886,1.592
82.4886,1.64
82.4886,1.726
82.4886,1.779
82.4886,1.851
82.4886,1.921
82.4896,1.923
82.4896,1.876
82.4896,1.763
82.4896,1.715
82.4896,1.679
82.4896,1.602
82.4896,1.544
82.4906,1.564
82.4906,1.597
82.4906,1.636
82.4906,1.693
82.4906,1.746
82.4906,1.775
82.4916,1.854
82.4916,1.927
82.4916,1.878
82.4916,1.826
82.4916,1.777
82.4916,1.732
82.4916,1.689
82.4916,1.556
82.4926,1.567
82.4926,1.59
82.4926,1.614
82.4926,1.645
82.4926,1.689
82.4926,1.783
82.4936,1.848
82.4936,1.91
82.4936,1.927
82.4936,1.886
82.4936,1.826
82.4936,1.724
82.4936,1.684
82.4936,1.613
82.4946,1.552
82.4946,1.578
82.4946,1.598
82.4946,1.645
82.4946,1.69
82.4946,1.745
82.4946,1.794
82.4956,1.863
82.4956,1.929
82.4956,1.878
82.4956,1.803
82.4956,1.756
82.4956,1.706
82.4956,1.652
82.4966,1.593
82.4966,1.509
82.4966,1.511
82.4966,1.473
82.4966,1.458
82.4966,1.45
82.4966,1.445
82.4976,1.457
82.4976,1.472
82.4976,1.467
82.4976,1.402
82.4976,1.318
82.4976,1.261
82.4976,1.243
82.4976,1.244
82.4986,1.286
82.4986,1.482
82.4986,1.615
82.4986,1.628
82.4986,1.733
82.4986,1.871
82.4986,2.002
82.4996,2.117
82.4996,2.311
82.4996,2.48
82.4996,2.464
82.4996,2.375
82.4996,2.321
82.4996,2.265
82.5005,2.171
82.5005,2.072
82.5005,2.097
82.5005,2.074
82.5015,2.072
82.5015,2.088
82.5015,2.092
82.5015,2.139
82.5015,2.177
82.5015,2.185
82.5015,2.086
82.5025,1.993
82.5025,1.909
82.5025,1.769
82.5025,1.709
82.5025,1.627
82.5025,1.604
82.5025,1.617
82.5035,1.63
82.5035,1.711
82.5035,1.757
82.5035,1.807
82.5035,1.862
82.5045,1.923
82.5045,1.964
82.5045,1.844
82.5045,1.79
82.5056,1.73
82.5056,1.687
82.5056,1.623
82.5056,1.548
82.5056,1.562
82.5056,1.57
82.5056,1.605
82.5066,1.645
82.5066,1.702
82.5066,1.796
82.5066,1.857
82.5066,1.906
82.5066,1.877
82.5066,1.798
82.5076,1.758
82.5076,1.667
82.5076,1.617
82.5076,1.532
82.5076,1.513
82.5076,1.552
82.5076,1.556
82.5076,1.631
82.5086,1.68
82.5086,1.721
82.5086,1.787
82.5086,1.848
82.5086,1.868
82.5086,1.794
82.5086,1.76
82.5096,1.707
82.5096,1.66
82.5096,1.612
82.5096,1.504
82.5096,1.535
82.5096,1.557
82.5096,1.584
82.5106,1.63
82.5106,1.681
82.5106,1.774
82.5106,1.835
82.5106,1.89
82.5106,1.884
82.5106,1.81
82.5116,1.763
82.5116,1.662
82.5116,1.617
82.5116,1.539
82.5116,1.509
82.5116,1.538
82.5116,1.577
82.5126,1.625
82.5126,1.675
82.5126,1.719
82.5126,1.78
82.5126,1.841
82.5126,1.884
82.5126,1.82
82.5136,1.77
82.5136,1.72
82.5136,1.673
82.5136,1.631
82.5136,1.521
82.5136,1.544
82.5136,1.562
82.5145,1.584
82.5145,1.629
82.5145,1.685
82.5145,1.777
82.5145,1.836
82.5145,1.9
82.5145,1.893
82.5155,1.829
82.5155,1.784
82.5155,1.679
82.5155,1.636
82.5155,1.559
82.5155,1.52
82.5155,1.551
82.5165,1.581
82.5165,1.63
82.5165,1.682
82.5165,1.72
82.5165,1.768
82.5165,1.837
82.5175,1.876
82.5175,1.826
82.5175,1.771
82.5175,1.725
82.5175,1.676
82.5175,1.632
82.5175,1.519
82.5185,1.529
82.5185,1.549
82.5185,1.565
82.5185,1.611
82.5185,1.694
82.5185,1.741
82.5185,1.815
82.5185,1.865
82.5195,1.855
82.5195,1.799
82.5195,1.691
82.5195,1.636
82.5195,1.595
82.5195,1.521
82.5205,1.467
82.5205,1.482
82.5205,1.519
82.5205,1.56
82.5205,1.606
82.5205,1.648
82.5215,1.694
82.5215,1.767
82.5215,1.819
82.5215,1.765
82.5215,1.714
82.5215,1.664
82.5215,1.612
82.5225,1.494
82.5225,1.437
82.5225,1.455
82.5225,1.488
82.5225,1.496
82.5225,1.541
82.5225,1.638
82.5235,1.679
82.5235,1.757
82.5235,1.821
82.5235,1.821
82.5235,1.763
82.5235,1.66
82.5235,1.611
82.5245,1.568
82.5245,1.498
82.5245,1.444
82.5245,1.463
82.5245,1.493
82.5245,1.54
82.5245,1.589
82.5245,1.637
82.5255,1.687
82.5255,1.746
82.5255,1.827
82.5255,1.779
82.5255,1.726
82.5255,1.679
82.5255,1.63
82.5265,1.528
82.5265,1.469
82.5265,1.484
82.5265,1.523
82.5265,1.528
82.5265,1.574
82.5265,1.672
82.5275,1.72
82.5275,1.79
82.5275,1.851
82.5275,1.874
82.5275,1.826
82.5275,1.73
82.5275,1.681
82.5285,1.647
82.5285,1.575
82.5285,1.513
82.5285,1.55
82.5285,1.57
82.5285,1.612
82.5285,1.665
82.5295,1.709
82.5295,1.763
82.5295,1.908
82.5295,1.918
82.5295,1.874
82.5295,1.822
82.5295,1.761
82.5305,1.712
82.5305,1.606
82.5305,1.55
82.5305,1.574
82.5305,1.581
82.5305,1.588
82.5305,1.651
82.5315,1.752
82.5315,1.769
82.5315,1.839
82.5315,1.904
82.5315,1.932
82.5315,1.88
82.5315,1.766
82.5325,1.705
82.5325,1.674
82.5325,1.618
82.5325,1.552
82.5325,1.583
82.5325,1.58
82.5325,1.619
82.5335,1.676
82.5335,1.709
82.5335,1.763
82.5335,1.89
82.5335,1.928
82.5335,1.881
82.5335,1.827
82.5345,1.774
82.5345,1.721
82.5345,1.631
82.5345,1.542
82.5345,1.524
82.5345,1.571
82.5345,1.587
82.5345,1.618
82.5355,1.702
82.5355,1.745
82.5355,1.812
82.5355,1.881
82.5355,1.913
82.5355,1.817
82.5355,1.754
82.5365,1.716
82.5365,1.667
82.5365,1.612
82.5365,1.547
82.5365,1.556
82.5365,1.568
82.5375,1.603
82.5375,1.653
82.5375,1.701
82.5375,1.736
82.5375,1.871
82.5375,1.908
82.5375,1.875
82.5385,1.811
82.5385,1.767
82.5385,1.723
82.5385,1.609
82.5385,1.538
82.5385,1.522
82.5385,1.557
82.5385,1.572
82.5395,1.602
82.5395,1.687
82.5395,1.731
82.5395,1.8
82.5395,1.86
82.5395,1.896
82.5405,1.803
82.5405,1.757
82.5405,1.706
82.5405,1.667
82.5405,1.609
82.5405,1.527
82.5405,1.54
82.5415,1.557
82.5415,1.598
82.5415,1.642
82.5415,1.701
82.5415,1.735
82.5415,1.855
82.5415,1.9
82.5415,1.815
82.5425,1.768
82.5425,1.667
82.5425,1.62
82.5425,1.546
82.5425,1.519
82.5425,1.551
82.5425,1.592
82.5435,1.644
82.5435,1.689
82.5435,1.727
82.5435,1.776
82.5435,1.843
82.5435,1.881
82.5435,1.816
82.5445,1.766
82.5445,1.713
82.5445,1.678
82.5445,1.631
82.5445,1.526
82.5445,1.562
82.5445,1.568
82.5455,1.597
82.5455,1.643
82.5455,1.686
82.5455,1.788
82.5455,1.855
82.5455,1.914
82.5455,1.886
82.5465,1.822
82.5465,1.719
82.5465,1.667
82.5465,1.619
82.5465,1.532
82.5465,1.497
82.5465,1.539
82.5475,1.557
82.5475,1.604
82.5475,1.652
82.5475,1.685
82.5475,1.742
82.5475,1.8
82.5475,1.841
82.5475,1.771
82.5485,1.727
82.5485,1.678
82.5485,1.627
82.5485,1.583
82.5485,1.473
82.5494,1.5
82.5494,1.518
82.5494,1.548
82.5494,1.593
82.5494,1.653
82.5494,1.755
82.5494,1.814
82.5494,1.87
82.5504,1.873
82.5504,1.813
82.5504,1.726
82.5504,1.672
82.5504,1.628
82.5504,1.557
82.5514,1.52
82.5514,1.555
82.5514,1.584
82.5514,1.63
82.5514,1.675
82.5514,1.725
82.5514,1.78
82.5524,1.843
82.5524,1.901
82.5524,1.842
82.5524,1.798
82.5524,1.747
82.5524,1.689
82.5524,1.645
82.5524,1.532
82.5534,1.55
82.5534,1.571
82.5534,1.588
82.5534,1.634
82.5534,1.732
82.5544,1.777
82.5544,1.85
82.5544,1.913
82.5544,1.913
82.5544,1.851
82.5544,1.753
82.5544,1.702
82.5554,1.669
82.5554,1.581
82.5554,1.536
82.5554,1.562
82.5554,1.599
82.5554,1.64
82.5554,1.689
82.5564,1.734
82.5564,1.782
82.5564,1.849
82.5564,1.918
82.5564,1.865
82.5564,1.81
82.5564,1.762
82.5564,1.716
82.5574,1.67
82.5574,1.549
82.5574,1.568
82.5574,1.58
82.5574,1.593
82.5584,1.645
82.5584,1.695
82.5584,1.774
82.5594,1.859
82.5594,1.915
82.5594,1.918
82.5594,1.881
82.5594,1.818
82.5594,1.72
82.5604,1.691
82.5604,1.615
82.5604,1.548
82.5604,1.569
82.5604,1.58
82.5614,1.618
82.5614,1.668
82.5614,1.716
82.5614,1.761
82.5614,1.836
82.5614,1.889
82.5614,1.81
82.5614,1.697
82.5624,1.597
82.5624,1.498
82.5624,1.412
82.5624,1.328
82.5624,1.274
82.5624,1.266
82.5624,1.249
82.5634,1.256
82.5634,1.259
82.5634,1.279
82.5634,1.715
82.5634,1.967
82.5634,2.05
82.5634,1.931
82.5644,1.86
82.5644,1.794
82.5644,1.907
82.5644,1.967
82.5654,2.105
82.5654,2.214
82.5654,2.199
82.5654,2.172
82.5664,2.228
82.5664,2.271
82.5664,2.307
82.5674,2.38
82.5674,2.427
82.5674,2.426
82.5674,2.263
82.5674,2.183
82.5674,2.087
82.5674,2.007
82.5684,1.922
82.5684,1.813
82.5684,1.772
83.3643,1.747
83.3653,1.757
83.3653,1.772
83.3663,1.792
83.3663,1.818
83.3673,1.913
83.3673,1.955
83.3683,1.909
83.3683,1.841
83.3683,1.796
83.3693,1.754
83.3693,1.631
83.3703,1.554
83.3713,1.565
83.3723,1.578
83.3733,1.576
83.3733,1.613
83.3743,1.699
83.3743,1.732
83.3753,1.809
83.3753,1.855
83.3763,1.883
83.3763,1.863
83.3773,1.74
83.3773,1.691
83.3783,1.638
83.3783,1.581
83.3783,1.515
83.3793,1.506
83.3793,1.556
83.3793,1.589
83.3803,1.627
83.3803,1.68
83.3803,1.713
83.3813,1.785
83.3813,1.876
83.3813,1.849
83.3813,1.787
83.3823,1.736
83.3823,1.677
83.3823,1.631
83.3823,1.498
83.3833,1.496
83.3833,1.522
83.3833,1.534
83.3842,1.565
83.3842,1.661
83.3842,1.701
83.3842,1.767
83.3842,1.825
