65.1863,2.0931
65.1873,1.6596
65.1878,1.4284
65.1883,1.269
65.1893,1.2499
65.1893,1.2488
65.1903,1.2486
65.1913,1.2509
65.1923,1.2876
65.1923,1.7217
65.1933,1.9583
65.1943,2.1449
65.1943,2.2446
65.2038,2.1094
65.2178,1.9184
65.2207,1.2762
65.2217,1.2505
65.2228,1.2488
65.2237,1.2486
65.2237,1.2501
65.2237,1.2812
65.2247,1.4704
65.2247,1.6952
65.2257,2.1458
65.2257,2.2632
65.2267,2.2274
65.2267,1.9448
65.2277,1.7089
65.2277,1.4738
65.2287,1.2865
65.2287,1.2488
65.2287,1.2486
65.2298,1.2484
65.2307,1.2503
65.2307,1.4712
65.2307,1.7082
65.2357,1.9388
65.2357,2.1282
65.2368,2.2401
65.2368,2.1393
65.2381,1.9636
65.2420,1.7239
65.2427,1.2945
65.2427,1.2514
65.2437,1.2486
65.2491,1.2484
65.2497,1.2495
65.2497,1.2713
65.2507,1.4425
65.2507,1.9184
65.2551,2.1205
65.2561,2.2392
65.2561,2.2476
65.2571,1.9718
65.2627,1.7402
65.2627,1.4939
65.2637,1.2923
65.2637,1.2486
65.2647,1.2488
65.2689,1.2486
65.2699,1.2494
65.2701,1.4307
65.2716,1.6667
65.2719,1.9021
65.2759,2.1094
65.2759,2.2495
65.2769,2.1462
65.2769,1.978
65.2830,1.7451
65.2830,1.3022
65.2840,1.2516
65.2840,1.2488
65.2850,1.2486
65.2891,1.249
65.2900,1.2627
65.2900,1.4057
65.2910,1.8944
65.2961,2.1138
65.2961,2.2433
65.2971,2.2651
65.2971,1.9964
65.2981,1.7659
65.3075,1.5132
65.3214,1.3047
65.3224,1.2488
65.3244,1.249
65.3253,1.2484
65.3253,1.249
65.3263,1.3911
65.3263,1.6294
65.3273,1.8773
65.3273,2.0956
65.3283,2.2774
65.3283,2.17
65.3283,2.0069
65.3293,1.528
65.3293,1.3255
65.3303,1.2529
65.3303,1.249
65.3313,1.2482
65.3313,1.249
65.3323,1.26
65.3323,1.3962
65.3333,1.9002
65.3333,2.1239
65.3374,2.2624
65.3380,2.3011
65.3384,2.0526
65.3394,1.8242
65.3437,1.575
65.3437,1.2555
65.3447,1.2488
65.3447,1.2484
65.3457,1.2486
65.3500,1.2612
65.3506,1.4112
65.3506,1.6574
65.3516,1.9114
65.3573,2.2846
65.3573,2.3328
65.3581,2.2371
65.3581,2.0888
65.3591,1.6191
65.3642,1.3804
65.3642,1.2578
65.3653,1.2494
65.3653,1.2488
65.3663,1.2497
65.3702,1.2651
65.3713,1.6654
65.3722,1.9142
65.3722,2.1393
65.3779,2.3088
65.3779,2.2534
65.3790,2.1111
65.3790,1.8736
65.3800,1.6199
65.3839,1.2584
65.3850,1.2494
65.3859,1.2486
65.3859,1.2486
65.3912,1.2574
65.3919,1.383
65.3919,1.6259
65.3930,2.1001
65.3930,2.2804
65.3979,2.3328
65.3980,2.2369
65.3989,1.8668
65.3989,1.6105
65.4046,1.3697
65.4049,1.2587
65.4069,1.2486
65.4069,1.2484
65.4079,1.249
65.4109,1.2544
65.4358,1.593
65.4404,1.8482
65.4408,2.0787
65.4408,2.257
65.4418,2.2362
65.4418,2.0899
65.4428,1.8647
65.4428,1.3755
65.4428,1.2584
65.4438,1.249
65.4438,1.2484
65.4448,1.2486
65.4448,1.2529
65.4461,1.3305
65.4461,1.5597
65.4468,2.0455
65.4468,2.2163
65.4479,2.2773
65.4479,2.2084
65.4488,1.8632
65.4488,1.6118
65.4498,1.3746
65.4498,1.2572
65.4498,1.2486
65.4508,1.2484
65.4508,1.2484
65.4518,1.3169
65.4518,1.5494
65.4528,1.7976
65.4528,2.0267
65.4538,2.2851
65.4585,2.2309
65.4585,2.0913
65.4595,1.8812
65.4595,1.3945
65.4605,1.2604
65.4655,1.2494
65.4655,1.2486
65.4665,1.2486
65.4665,1.2516
65.4730,1.3112
65.4730,1.539
65.4740,2.0367
65.4740,2.2218
65.4750,2.2969
65.4788,2.11
65.4794,1.9047
65.4794,1.6532
65.4804,1.4095
65.4860,1.2499
65.4870,1.2492
65.4870,1.249
65.4880,1.2486
65.4893,1.3024
65.4924,1.5308
65.4934,1.7702
65.4934,2.0222
65.4944,2.3166
65.4994,2.2741
65.4994,2.1413
65.5005,1.9276
65.5005,1.434
65.5015,1.2698
65.5055,1.2495
65.5055,1.2486
65.5065,1.2484
65.5065,1.2509
65.5075,1.2959
65.5124,1.7476
65.5134,1.9986
65.5134,2.197
65.5134,2.2956
65.5194,2.1213
65.5205,1.9187
65.5214,1.6667
65.5214,1.4239
65.5225,1.2495
65.5304,1.2482
65.5454,1.248
65.5454,1.2484
65.5463,1.2782
65.5493,1.4834
65.5493,1.7256
65.5504,1.9692
65.5504,2.284
65.5504,2.2508
65.5514,2.1231
65.5514,1.9277
65.5524,1.4322
65.5524,1.2675
65.5534,1.2494
65.5534,1.2484
65.5534,1.2484
65.5546,1.2497
65.5553,1.2737
65.5553,1.4575
65.5563,1.9446
65.5563,2.1528
65.5575,2.2679
65.5575,2.2482
65.5599,1.9489
65.5603,1.7011
65.5603,1.4492
65.5613,1.2495
65.5675,1.2482
65.5675,1.248
65.5685,1.2484
65.5685,1.2685
65.5695,1.4445
65.5735,1.69
65.5745,1.9448
65.5745,2.2767
65.5745,2.2701
65.5806,2.1436
65.5806,1.9643
65.5816,1.4609
65.5816,1.2765
65.5826,1.2499
65.5868,1.2488
65.5878,1.2484
65.5886,1.2492
65.5896,1.2662
65.5939,1.4297
65.5946,1.9392
65.5946,2.1498
65.5957,2.2737
65.5957,2.2726
65.6003,1.9759
65.6003,1.7348
65.6013,1.4804
65.6013,1.2867
65.6024,1.2486
65.6073,1.2488
65.6073,1.2482
65.6083,1.2636
65.6083,1.4202
65.6144,1.6602
65.6144,1.9146
65.6155,2.2681
65.6155,2.2825
65.6164,2.1561
65.6204,1.9898
65.6216,1.4937
65.6234,1.2966
65.6234,1.251
65.6274,1.2484
65.6274,1.2484
65.6284,1.249
65.6284,1.261
65.6294,1.4007
65.6364,1.9007
65.6414,2.1145
65.6544,2.2441
65.6544,2.2698
65.6584,1.9982
65.6593,1.7612
65.6593,1.5105
65.6593,1.2996
65.6603,1.2486
65.6603,1.2486
65.6613,1.2486
65.6613,1.249
65.6623,1.3904
65.6623,1.6305
65.6633,1.885
65.6633,2.1044
65.6633,2.2878
65.6643,2.1884
65.6643,2.0269
65.6653,1.5494
65.6653,1.3339
65.6663,1.2533
65.6663,1.2488
65.6676,1.2486
65.6684,1.2488
65.6684,1.2561
65.6694,1.3617
65.6745,1.8407
65.6754,2.0714
65.6754,2.2386
65.6764,2.2767
65.6764,2.0207
65.6818,1.7892
65.6818,1.5276
65.6828,1.3187
65.6828,1.249
65.6878,1.2488
65.6887,1.2482
65.6897,1.2486
65.6907,1.3566
65.6907,1.6019
65.6945,1.8529
65.6955,2.0774
65.6955,2.2947
65.6955,2.1908
65.6967,2.0359
65.7017,1.5509
65.7026,1.3307
65.7036,1.2527
65.7046,1.2484
65.7087,1.248
65.7087,1.2486
65.7097,1.2542
65.7097,1.3439
65.7107,1.8424
65.7148,2.0736
65.7159,2.2358
65.7159,2.2923
65.7168,2.0599
65.7221,1.8355
65.7231,1.5737
65.7235,1.3405
65.7241,1.2486
65.7241,1.2484
65.7283,1.2484
65.7294,1.2486
65.7294,1.3281
65.7294,1.5801
65.7355,1.8248
65.7355,2.0496
65.7365,2.2968
65.7365,2.2071
65.7375,2.0684
65.7416,1.8466
65.7428,1.3545
65.7480,1.255
65.7619,1.2486
65.7646,1.2486
65.7646,1.2484
65.7656,1.2518
65.7656,1.3169
65.7666,1.5507
65.7666,2.0391
65.7676,2.2161
65.7676,2.2872
65.7686,2.209
65.7686,1.8424
65.7686,1.5964
65.7696,1.3643
65.7696,1.2488
65.7706,1.2486
65.7706,1.2484
65.7719,1.2484
65.7726,1.299
65.7726,1.5248
65.7726,1.7807
65.7755,2.0108
65.7755,2.2559
65.7766,2.2024
65.7766,2.0631
65.7826,1.849
65.7834,1.3604
65.7834,1.2552
65.7834,1.249
65.7845,1.2484
65.7891,1.2484
65.7894,1.2505
65.7904,1.2942
65.7904,1.4997
65.7904,2.0001
65.7954,2.1908
65.7964,2.2686
65.7964,2.2154
65.7964,1.8769
65.8027,1.6245
65.8038,1.3829
65.8038,1.2599
65.8048,1.2488
65.8048,1.2484
65.8091,1.2484
65.8101,1.2503
65.8101,1.5032
65.8111,1.7511
65.8166,1.9892
65.8166,2.2949
65.8176,2.2478
65.8176,2.113
65.8186,1.9097
65.8223,1.4136
65.8231,1.2634
65.8231,1.2492
65.8241,1.2482
65.8294,1.2484
65.8294,1.2503
65.8304,1.2882
65.8304,1.4922
65.8314,1.9956
65.8359,2.1985
65.8368,2.3039
65.8368,2.2581
65.8377,1.9156
65.8377,1.6724
65.8428,1.4402
65.8428,1.2705
65.8438,1.248
65.8438,1.2482
65.8503,1.2484
65.8512,1.2501
65.8512,1.4873
65.8582,1.7393
65.8712,1.9799
65.8732,2.1674
65.8742,2.2563
65.8752,2.1304
65.8752,1.9369
65.8752,1.4404
65.8761,1.2705
65.8761,1.2497
65.8771,1.2482
65.8771,1.2484
65.8781,1.2499
65.8781,1.2788
65.8791,1.4665
65.8791,1.9538
65.8801,2.1674
65.8801,2.2851
65.8801,2.2645
65.8811,1.9632
65.8811,1.72
65.8832,1.4655
65.8841,1.2792
65.8841,1.2486
65.8851,1.2486
65.8851,1.2484
65.8901,1.2497
65.8901,1.4489
65.8912,1.7084
65.8912,1.9634
65.8975,2.1698
65.8975,2.2894
65.8986,2.1634
65.8994,1.9862
65.8994,1.7327
65.9036,1.2906
65.9044,1.2509
65.9061,1.2486
65.9064,1.2488
65.9110,1.2495
65.9110,1.272
65.9120,1.4624
65.9120,1.9722
65.9130,2.1779
65.9170,2.2954
65.9180,2.287
65.9180,1.9971
65.9190,1.75
65.9258,1.4924
65.9258,1.2893
65.9268,1.2484
65.9268,1.2486
65.9278,1.2642
65.9324,1.4327
65.9324,1.6771
65.9334,1.9337
65.9334,2.2724
65.9344,2.2977
65.9394,2.1873
65.9394,2.0187
65.9404,1.5227
65.9404,1.309
65.9465,1.2516
65.9465,1.2486
65.9475,1.2484
65.9475,1.2495
65.9485,1.2685
65.9528,1.69
65.9538,1.9463
65.9538,2.1574
65.9543,2.2889
65.9597,2.2133
65.9653,2.0442
65.9783,1.807
65.9813,1.5587
65.9822,1.2559
65.9822,1.2494
65.9832,1.2492
65.9832,1.2488
65.9842,1.279
65.9842,1.4792
65.9852,1.7191
65.9852,2.1863
65.9862,2.3457
65.9862,2.3823
65.9862,2.2617
65.9872,1.8631
65.9882,1.615
65.9882,1.384
65.9892,1.2597
65.9902,1.2495
65.9902,1.2488
65.9912,1.2505
65.9912,1.2771
65.9940,1.7226
65.9949,2.0001
65.9949,2.2188
65.9949,2.4164
65.9959,2.3018
66.0010,2.1323
66.0010,1.8906
66.0010,1.3977
66.0020,1.2617
66.0075,1.2497
66.0075,1.2488
66.0084,1.2505
66.0084,1.2784
66.0093,1.4655
66.0138,1.7157
66.0148,2.1964
66.0148,2.3562
66.0148,2.3879
66.0209,2.1481
66.0219,1.9216
66.0219,1.6592
66.0230,1.4224
66.0230,1.2497
66.0271,1.2484
66.0282,1.2488
66.0282,1.2503
66.0282,1.4624
66.0292,1.7151
66.0341,1.9611
66.0341,2.1811
66.0351,2.4106
66.0351,2.3209
66.0414,2.1713
66.0424,1.9442
66.0424,1.4562
66.0434,1.2705
66.0434,1.2507
66.0476,1.2494
66.0486,1.2505
66.0486,1.2756
66.0496,1.4631
66.0546,1.7162
66.0549,2.2178
66.0549,2.3993
66.0559,2.462
66.0559,2.1874
66.0611,1.9589
66.0621,1.7009
66.0621,1.4663
66.0621,1.2518
66.0681,1.2497
66.0681,1.2494
66.0692,1.2505
66.0741,1.4505
66.0880,1.7086
66.0899,1.9486
66.0909,2.1901
66.0909,2.4372
66.0920,2.3613
66.0920,2.2204
66.0930,1.7483
66.0930,1.5075
66.0940,1.2925
66.0940,1.2518
66.0949,1.249
66.0949,1.2503
66.0949,1.2692
66.0960,1.4363
66.0960,1.9577
66.0970,2.1828
66.0970,2.3466
66.0980,2.4106
66.0980,2.227
66.1022,2.0112
66.1022,1.7534
66.1032,1.5124
66.1032,1.2529
66.1042,1.2494
66.1084,1.2492
66.1094,1.2499
66.1094,1.42
66.1094,1.6761
66.1155,1.9212
66.1155,2.1591
66.1166,2.4254
66.1166,2.3706
66.1175,2.2413
66.1215,1.7618
66.1222,1.5165
66.1232,1.2966
66.1242,1.252
66.1242,1.2494
66.1282,1.2494
66.1292,1.2587
66.1302,1.3787
66.1302,1.8835
66.1357,2.1308
66.1357,2.3221
66.1368,2.4104
66.1368,2.2244
66.1378,2.0153
66.1423,1.7614
66.1433,1.5214
66.1433,1.252
66.1443,1.2494
66.1494,1.249
66.1494,1.2494
66.1504,1.3684
66.1504,1.6189
66.1513,1.8659
66.1555,2.1166
66.1555,2.4366
66.1566,2.3892
66.1576,2.2405
66.1628,1.7455
66.1629,1.4909
66.1639,1.288
66.1639,1.2509
66.1649,1.2484
66.1689,1.2484
66.1689,1.2512
66.1699,1.3058
66.1699,1.7669
66.1709,2.0031
66.1759,2.1983
66.1759,2.3014
66.1769,2.1282
66.1769,1.9326
66.1839,1.6754
66.1978,1.432
66.2009,1.2494
66.2009,1.248
66.2018,1.248
66.2026,1.2482
66.2028,1.275
66.2028,1.4687
66.2038,1.7177
66.2045,1.9716
66.2049,2.2816
66.2059,2.2576
66.2059,2.1411
66.2059,1.6977
66.2068,1.4582
66.2079,1.276
66.2079,1.2499
66.2079,1.2484
66.2098,1.2486
66.2098,1.2501
66.2109,1.2756
66.2109,1.7041
66.2118,1.9607
66.2164,2.1704
66.2164,2.2934
66.2174,2.1526
66.2174,1.9692
66.2184,1.7211
66.2234,1.4723
66.2234,1.2509
66.2244,1.2486
66.2244,1.2488
66.2305,1.2484
66.2313,1.2722
66.2313,1.458
66.2323,1.6973
66.2323,2.1604
66.2368,2.3009
66.2378,2.2902
66.2388,2.1593
66.2388,1.7387
66.2440,1.4871
66.2440,1.2882
66.2450,1.2503
66.2450,1.2488
66.2460,1.2484
66.2503,1.2494
66.2510,1.2674
66.2510,1.6842
66.2520,1.9377
66.2573,2.1445
66.2581,2.2733
66.2581,2.1629
66.2581,1.9804
66.2591,1.7378
66.2638,1.3019
66.2638,1.251
66.2648,1.2484
66.2648,1.2484
66.2658,1.2488
66.2710,1.2602
66.2710,1.41
66.2718,1.6549
66.2718,2.1261
66.2779,2.2662
66.2779,2.2791
66.2790,2.1604
66.2790,1.7545
66.2799,1.5089
66.2842,1.302
66.2852,1.2488
66.2852,1.2488
66.2862,1.2484
66.2928,1.2488
66.3058,1.3802
66.3088,1.6249
66.3098,1.8726
66.3098,2.0954
66.3108,2.2812
66.3108,2.1672
66.3118,2.0024
66.3118,1.7607
66.3128,1.3109
66.3128,1.252
66.3138,1.249
66.3138,1.2484
66.3138,1.2488
66.3148,1.2595
66.3148,1.396
66.3158,1.906
66.3158,2.1246
66.3168,2.2769
66.3178,2.3121
66.3188,2.0481
66.3188,1.813
66.3188,1.5563
66.3255,1.3354
66.3255,1.2486
66.3265,1.248
66.3265,1.2482
66.3275,1.2565
66.3319,1.3838
66.3330,1.6313
66.3330,1.8901
66.3330,2.2838
66.3386,2.3238
66.3395,2.2195
66.3395,2.0652
66.3405,1.5812
66.3405,1.3506
66.3448,1.2544
66.3458,1.2486
66.3458,1.2482
66.3468,1.2492
66.3522,1.2569
66.3522,1.3695
66.3531,1.8812
66.3540,2.1016
66.3543,2.2696
66.3588,2.2338
66.3588,2.0823
66.3598,1.8514
66.3598,1.5914
66.3608,1.2557
66.3658,1.2492
66.3658,1.2488
66.3658,1.2486
66.3668,1.2552
66.3730,1.3635
66.3730,1.599
66.3741,1.8522
66.3741,2.2589
66.3750,2.3258
66.3793,2.2377
66.3804,1.8677
66.3804,1.6137
66.3804,1.3664
66.3865,1.2561
66.3865,1.2486
66.3876,1.2484
66.3876,1.2488
66.3885,1.254
66.3927,1.57
66.3937,1.8173
66.3937,2.0492
66.3937,2.2302
66.3991,2.2163
66.4179,2.0734
66.4259,1.8524
66.4269,1.5964
66.4269,1.2567
66.4269,1.2492
66.4279,1.2486
66.4279,1.2486
66.4289,1.252
66.4289,1.3232
66.4299,1.5482
66.4299,2.0447
66.4308,2.2236
66.4318,2.2924
66.4318,2.2261
66.4318,1.8835
66.4328,1.6238
66.4336,1.3827
66.4338,1.2582
66.4338,1.2484
66.4348,1.2484
66.4348,1.2484
66.4358,1.3056
66.4358,1.5409
66.4368,1.8004
66.4368,2.0376
66.4378,2.2911
66.4388,2.2463
66.4399,2.1096
66.4409,1.8931
66.4409,1.3962
66.4419,1.2602
66.4472,1.2492
66.4472,1.2484
66.4481,1.2486
66.4481,1.2514
66.4491,1.3161
66.4533,1.5437
66.4541,2.0297
66.4552,2.2233
66.4556,2.3084
66.4562,2.2641
66.4601,1.9208
66.4611,1.6681
66.4611,1.4256
66.4611,1.2501
66.4677,1.2492
66.4684,1.2488
66.4684,1.2486
66.4694,1.3009
66.4694,1.5235
66.4736,1.7712
66.4746,2.0127
66.4746,2.3266
66.4756,2.2819
66.4812,2.1434
66.4812,1.9407
66.4822,1.4556
66.4822,1.2754
66.4832,1.2507
66.4874,1.2492
66.4884,1.2486
66.4884,1.2509
66.4894,1.2927
66.4946,1.7571
66.4946,2.0082
66.4957,2.2141
66.4957,2.3211
66.4967,2.1586
66.5009,1.9628
66.5009,1.7076
66.5019,1.4642
66.5019,1.2505
66.5029,1.2488
66.5078,1.2486
66.5078,1.2501
66.5089,1.2861
66.5089,1.4999
66.5273,1.7438
66.5303,2.1949
66.5303,2.3089
66.5313,2.2808
66.5313,2.1479
66.5323,1.7067
66.5323,1.4565
66.5333,1.2792
66.5333,1.2505
66.5343,1.2484
66.5343,1.2482
66.5353,1.2495
66.5353,1.2749
66.5353,1.7159
66.5363,1.9677
66.5363,2.1711
66.5373,2.2829
66.5373,2.1629
66.5421,1.9739
66.5421,1.7202
66.5431,1.2818
66.5431,1.2497
66.5441,1.248
66.5483,1.248
66.5492,1.2495
66.5492,1.2722
66.5502,1.4459
66.5502,1.6964
66.5562,2.1554
66.5562,2.2703
66.5573,2.2591
66.5573,1.9754
66.5627,1.7305
66.5632,1.4835
66.5632,1.2848
66.5643,1.248
66.5643,1.248
66.5689,1.2484
66.5699,1.2494
66.5699,1.4385
66.5710,1.6889
66.5762,1.945
66.5769,2.1623
66.5769,2.299
66.5779,2.1805
66.5779,2.0087
66.5824,1.5104
66.5824,1.3043
66.5834,1.2507
66.5834,1.2484
66.5896,1.2484
66.5896,1.2494
66.5906,1.2687
66.5906,1.4391
66.5916,1.9437
66.5958,2.1672
66.5958,2.3026
66.5969,2.3208
66.5969,2.0329
66.5979,1.7882
66.6028,1.5299
66.6028,1.2522
66.6038,1.2486
66.6042,1.2488
66.6101,1.2484
66.6110,1.2653
66.6110,1.4414
66.6120,1.6913
66.6120,1.945
66.6163,2.3238
66.6174,2.3397
66.6174,2.2109
66.6183,2.0464
66.6253,1.5584
66.6432,1.3433
66.6468,1.2535
66.6472,1.2486
66.6483,1.2486
66.6483,1.2494
66.6493,1.263
66.6493,1.6707
66.6503,1.9294
66.6503,2.1471
66.6503,2.2859
66.6513,2.2141
66.6518,2.0553
66.6523,1.8214
66.6523,1.5672
66.6532,1.254
66.6532,1.2486
66.6542,1.2484
66.6544,1.2484
66.6552,1.2578
66.6562,1.392
66.6572,1.6399
66.6572,1.8936
66.6592,2.2698
66.6592,2.215
66.6602,1.8218
66.6602,1.5687
66.6612,1.3399
66.6653,1.2544
66.6665,1.249
66.6665,1.2486
66.6673,1.249
66.6723,1.2559
66.6734,1.6169
66.6734,1.8647
66.6743,2.0853
66.6743,2.3131
66.6786,2.224
66.6796,2.0691
66.6796,1.8507
66.6806,1.3547
66.6858,1.2552
66.6858,1.2492
66.6869,1.249
66.6876,1.249
66.6879,1.2555
66.6923,1.3628
66.6923,1.5949
66.6933,2.0858
66.6933,2.2604
66.6943,2.317
66.6993,2.2343
66.6993,1.8818
66.7003,1.6229
66.7003,1.3808
66.7065,1.2495
66.7065,1.2494
66.7076,1.2486
66.7085,1.2488
66.7095,1.3555
66.7127,1.6015
66.7135,1.8552
66.7135,2.0851
66.7145,2.3281
66.7201,2.245
66.7209,2.0991
66.7211,1.8779
66.7211,1.3896
66.7221,1.2591
66.7262,1.2492
66.7272,1.248
66.7272,1.2486
66.7282,1.2539
66.7333,1.348
66.7471,1.8422
66.7501,2.0866
66.7512,2.2684
66.7512,2.3374
66.7522,2.1359
66.7522,1.9169
66.7532,1.6534
66.7532,1.4085
66.7541,1.2492
66.7544,1.248
66.7551,1.2482
66.7551,1.2488
66.7561,1.3446
66.7561,1.5876
66.7571,1.8391
66.7571,2.2643
66.7581,2.3448
66.7581,2.2791
66.7602,2.1432
66.7611,1.6746
66.7611,1.4325
66.7621,1.2653
66.7673,1.2495
66.7683,1.2484
66.7683,1.2488
66.7693,1.2531
66.7693,1.3319
66.7730,1.8353
66.7740,2.0877
66.7740,2.2838
66.7750,2.3873
66.7805,2.2054
66.7805,1.9992
66.7815,1.7464
66.7815,1.4856
66.7825,1.2497
66.7871,1.2488
66.7881,1.2486
66.7881,1.2484
66.7891,1.2972
66.7891,1.5149
66.7941,1.771
66.7941,2.2137
66.7951,2.3048
66.7951,2.2323
66.8012,2.0909
66.8012,1.6337
66.8023,1.3799
66.8023,1.2569
66.8032,1.2488
66.8085,1.2488
66.8085,1.2482
66.8095,1.249
66.8095,1.263
66.8147,1.672
66.8147,1.9154
66.8157,2.1057
66.8157,2.1852
66.8167,2.0251
66.8208,1.8227
66.8219,1.5606
66.8219,1.3268
66.8229,1.2486
66.8280,1.2482
66.8280,1.2484
66.8290,1.2486
66.8290,1.2531
66.8300,1.335
66.8342,1.5582
66.8342,1.7976
66.8353,2.0974
66.8353,2.0759
66.8363,1.9441
66.8562,1.4963
66.8592,1.2891
66.8592,1.2503
66.8601,1.2486
66.8601,1.2486
66.8601,1.2486
66.8611,1.2484
66.8611,1.2499
66.8621,1.4845
66.8621,1.7296
66.8631,1.9362
66.8631,2.0481
66.8641,1.9004
66.8641,1.7071
66.8651,1.4449
66.8651,1.2698
66.8651,1.2486
66.8661,1.2486
66.8681,1.2488
66.8681,1.2486
66.8692,1.2488
66.8692,1.26
66.8751,1.3836
66.8751,1.6247
66.8760,1.9617
66.8760,1.96
66.8771,1.8332
66.8815,1.3995
66.8815,1.2602
66.8825,1.2492
66.8825,1.2484
66.8835,1.249
66.8885,1.2486
66.8895,1.2486
66.8905,1.2488
66.8905,1.3386
66.8957,1.5765
66.8957,1.7824
66.8967,1.9105
66.8967,1.8134
66.8977,1.6315
66.9019,1.3881
66.9027,1.2587
66.9027,1.2486
66.9036,1.2488
66.9091,1.2492
66.9091,1.2488
66.9101,1.2482
66.9101,1.2522
66.9111,1.3197
66.9157,1.5449
66.9157,1.8934
66.9166,1.9088
66.9166,1.7909
66.9224,1.6253
66.9228,1.2584
66.9228,1.249
66.9237,1.2486
66.9237,1.2488
66.9284,1.2488
66.9293,1.2486
66.9293,1.2482
66.9303,1.2507
66.9303,1.5049
66.9352,1.7254
66.9362,1.8794
66.9362,1.789
66.9372,1.6236
66.9428,1.3827
66.9434,1.2578
66.9434,1.2484
66.9444,1.2488
66.9444,1.2486
66.9637,1.2488
66.9667,1.2484
66.9667,1.2501
66.9677,1.2861
66.9677,1.4869
66.9687,1.8576
66.9687,1.8953
66.9697,1.7905
66.9697,1.6236
66.9710,1.2584
66.9717,1.2488
66.9717,1.2482
66.9727,1.2486
66.9727,1.2488
66.9737,1.2486
66.9737,1.2484
66.9747,1.2495
66.9747,1.452
66.9757,1.6692
66.9757,1.828
66.9767,1.7732
66.9767,1.6274
66.9777,1.3932
66.9827,1.2578
66.9837,1.2482
66.9837,1.2484
66.9837,1.2484
66.9896,1.2488
66.9906,1.2486
66.9906,1.2492
66.9916,1.272
66.9916,1.4415
66.9965,1.8415
66.9975,1.9024
66.9975,1.7933
66.9975,1.4192
67.0036,1.2634
67.0047,1.249
67.0047,1.2482
67.0057,1.249
67.0057,1.249
67.0097,1.2486
67.0107,1.2482
67.0107,1.267
67.0107,1.4492
67.0171,1.6772
67.0171,1.8557
67.0181,1.8239
67.0181,1.6767
67.0191,1.4513
67.0233,1.273
67.0233,1.2484
67.0244,1.2486
67.0244,1.2492
67.0253,1.2484
67.0303,1.2484
67.0303,1.2495
67.0313,1.278
67.0313,1.7052
67.0375,1.8934
67.0386,1.9594
67.0386,1.8831
67.0386,1.534
67.0395,1.3082
67.0439,1.2512
67.0449,1.2484
67.0449,1.2488
67.0449,1.2488
67.0511,1.2486
67.0511,1.2484
67.0521,1.2779
67.0521,1.4787
67.0531,1.7121
67.0724,1.8957
67.0753,1.906
67.0753,1.7717
67.0763,1.5565
67.0763,1.2527
67.0773,1.2484
67.0777,1.2482
67.0783,1.249
67.0783,1.2486
67.0793,1.2484
67.0793,1.2503
67.0793,1.2884
67.0803,1.7387
67.0803,1.9242
67.0813,1.9947
67.0813,1.942
67.0823,1.6022
67.0823,1.3506
67.0852,1.254
67.0852,1.2484
67.0862,1.2486
67.0862,1.2486
67.0872,1.2484
67.0913,1.2501
67.0922,1.288
67.0922,1.5006
67.0932,1.735
67.0985,1.9982
67.0985,1.9499
67.0996,1.8209
67.0996,1.6125
67.1006,1.2572
67.1047,1.2486
67.1057,1.2484
67.1067,1.2486
67.1067,1.2486
67.1118,1.2484
67.1118,1.2499
67.1128,1.2867
67.1128,1.7234
67.1138,1.9139
67.1181,2.0027
67.1181,1.8181
67.1191,1.626
67.1191,1.3868
67.1201,1.2599
67.1250,1.2484
67.1250,1.2488
67.1260,1.2488
67.1260,1.2486
67.1323,1.2494
67.1323,1.2749
67.1334,1.4614
67.1334,1.7127
67.1343,2.0166
67.1387,1.9827
67.1396,1.8574
67.1396,1.4065
67.1396,1.2621
67.1457,1.2492
67.1457,1.2482
67.1468,1.2486
67.1468,1.2482
67.1478,1.2484
67.1520,1.2495
67.1528,1.4813
67.1528,1.7284
67.1539,1.9197
67.1593,2.0194
67.1593,1.8826
67.1603,1.6896
67.1603,1.435
67.1613,1.2702
67.1654,1.2482
67.1663,1.2484
67.1663,1.2486
67.1673,1.2482
67.1723,1.2505
67.1862,1.3049
67.1902,1.5235
67.1902,1.9842
67.1912,2.1066
67.1912,2.1078
67.1912,1.9977
67.1923,1.5827
67.1923,1.3463
67.1932,1.2555
67.1932,1.2488
67.1942,1.2484
67.1942,1.2484
67.1952,1.2484
67.1952,1.2574
67.1952,1.6471
67.1962,1.9049
67.1962,2.1104
67.1972,2.2366
67.1995,2.134
67.2002,1.9658
67.2002,1.7258
67.2012,1.3004
67.2066,1.2516
67.2066,1.2486
67.2077,1.2492
67.2077,1.2495
67.2087,1.2747
67.2129,1.4654
67.2137,1.7106
67.2137,2.1964
67.2148,2.3314
67.2148,2.3423
67.2198,2.0663
67.2207,1.8374
67.2208,1.5863
67.2225,1.3602
67.2273,1.2499
67.2273,1.2495
67.2283,1.2488
67.2283,1.2516
67.2293,1.5415
67.2335,1.7877
67.2343,2.0384
67.2343,2.263
67.2354,2.4261
67.2406,2.3134
67.2406,2.1413
67.2416,1.9056
67.2416,1.4271
67.2426,1.2687
67.2469,1.2512
67.2478,1.2497
67.2478,1.2554
67.2488,1.3352
67.2541,1.5775
67.2550,2.0869
67.2550,2.3078
67.2550,2.4605
67.2561,2.4908
67.2602,2.2296
67.2613,2.0007
67.2613,1.7357
67.2613,1.5119
67.2623,1.2559
67.2672,1.2527
67.2672,1.2516
67.2682,1.3769
67.2682,1.6384
67.2747,1.8889
67.2755,2.1333
67.2755,2.5128
67.2805,2.5538
67.2942,2.4406
67.2972,2.2816
67.2972,1.7991
67.2982,1.5799
67.2982,1.3551
67.2992,1.2621
67.2992,1.254
67.3002,1.2724
67.3002,1.4003
67.3012,1.6379
67.3012,2.1499
67.3022,2.365
67.3022,2.533
67.3022,2.4676
67.3032,2.314
67.3032,2.0804
67.3042,1.8166
67.3052,1.3517
67.3052,1.2608
67.3079,1.2524
67.3079,1.2522
67.3090,1.3712
67.3090,1.6232
67.3100,1.8833
67.3149,2.1336
67.3149,2.5287
67.3160,2.5855
67.3160,2.473
67.3224,2.0988
67.3224,1.8458
67.3233,1.5983
67.3233,1.3572
67.3243,1.2535
67.3286,1.2525
67.3296,1.2627
67.3296,1.3604
67.3296,1.8578
67.3357,2.1072
67.3357,2.3288
67.3367,2.5011
67.3367,2.4719
67.3377,2.3283
67.3418,2.1048
67.3427,1.6142
67.3427,1.3874
67.3437,1.2644
67.3492,1.2542
67.3492,1.26
67.3502,1.347
67.3502,1.59
67.3512,1.8387
67.3553,2.3234
67.3562,2.5015
67.3562,2.5698
67.3573,2.4726
67.3573,2.1123
67.3623,1.8591
67.3623,1.6191
67.3633,1.2642
67.3633,1.254
67.3699,1.2531
67.3707,1.2604
67.3707,1.5769
67.3717,1.8297
67.3717,2.0764
67.3760,2.305
67.3768,2.5623
67.3768,2.4891
67.3778,2.3523
67.3883,2.1265
67.4023,1.633
67.4052,1.3866
67.4062,1.2525
67.4062,1.2578
67.4072,1.3259
67.4072,1.5527
67.4082,2.0673
67.4082,2.3003
67.4092,2.4751
67.4092,2.5032
67.4102,2.374
67.4102,2.1552
67.4102,1.8912
67.4112,1.411
67.4112,1.2702
67.4122,1.2539
67.4122,1.2524
67.4132,1.3214
67.4132,1.5469
67.4132,1.7972
67.4142,2.0543
67.4152,2.4747
67.4187,2.5626
67.4187,2.5083
67.4198,2.38
67.4198,1.9159
67.4210,1.6664
67.4250,1.4213
67.4300,1.2542
67.4300,1.2527
67.4310,1.2557
67.4323,1.3007
67.4330,1.7695
67.4330,2.0271
67.4330,2.2675
67.4340,2.4541
67.4385,2.5154
67.4395,2.3793
67.4395,2.1809
67.4405,1.9216
67.4457,1.4357
67.4457,1.2771
67.4467,1.2552
67.4467,1.2546
67.4477,1.2966
67.4521,1.501
67.4521,1.7562
67.4531,2.2484
67.4531,2.4484
67.4541,2.5516
67.4591,2.5205
67.4591,2.1893
67.4601,1.942
67.4601,1.6864
67.4663,1.453
67.4663,1.2554
67.4674,1.2531
67.4674,1.2544
67.4684,1.4809
67.4727,1.7417
67.4736,1.9831
67.4746,2.2276
67.4746,2.555
67.4797,2.5313
67.4797,2.398
67.4806,2.1938
67.4806,1.7067
67.4817,1.4678
67.4859,1.2842
67.4870,1.2554
67.4874,1.2548
67.4874,1.2882
67.4932,1.4738
67.4932,1.9694
67.4942,2.2216
67.4942,2.4209
67.4952,2.5424
67.5131,2.3898
67.5141,2.2015
67.5162,1.9465
67.5171,1.696
67.5171,1.2848
67.5181,1.2537
67.5181,1.251
67.5191,1.2522
67.5191,1.4389
67.5191,1.6842
67.5201,1.9302
67.5211,2.1873
67.5211,2.5308
67.5222,2.5225
67.5232,2.3993
67.5232,1.9767
67.5241,1.7251
67.5241,1.4922
67.5272,1.2919
67.5272,1.2514
67.5281,1.2522
67.5281,1.27
67.5291,1.4174
67.5334,1.9202
67.5342,2.173
67.5342,2.389
67.5352,2.5178
67.5403,2.4141
67.5412,2.2345
67.5412,1.9894
67.5412,1.7376
67.5422,1.302
67.5469,1.2542
67.5469,1.2507
67.5479,1.2524
67.5479,1.4194
67.5489,1.6729
67.5541,1.9161
67.5548,2.1634
67.5548,2.5208
67.5558,2.5341
67.5610,2.4177
67.5610,2.0159
67.5620,1.7689
67.5620,1.5188
67.5630,1.3071
67.5672,1.2533
67.5682,1.2529
67.5682,1.2659
67.5692,1.3812
67.5746,1.8751
67.5759,2.1306
67.5759,2.3442
67.5766,2.486
67.5766,2.4078
67.5808,2.2454
67.5818,2.0057
67.5818,1.75
67.5818,1.3034
67.5877,1.2542
67.5877,1.2516
67.5886,1.2512
67.5886,1.3716
67.5896,1.6223
67.5941,1.8636
67.5941,2.1094
67.5951,2.4912
67.5951,2.5268
67.5961,2.4169
67.6011,2.2527
67.6011,1.7579
67.6021,1.5192
67.6021,1.3047
67.6103,1.2518
67.6243,1.2512
67.6273,1.2584
67.6283,1.3484
67.6293,1.8362
67.6293,2.0858
67.6303,2.3061
67.6303,2.4715
67.6313,2.4119
67.6313,2.2623
67.6323,2.0275
67.6323,1.7789
67.6333,1.3182
67.6333,1.255
67.6343,1.2518
67.6343,1.251
67.6353,1.3414
67.6353,1.5831
67.6363,1.8271
67.6373,2.3035
67.6384,2.4725
67.6384,2.516
67.6393,2.4226
67.6413,2.0554
67.6423,1.8059
67.6423,1.566
67.6433,1.3257
67.6433,1.2518
67.6482,1.2512
67.6492,1.257
67.6492,1.333
67.6502,1.8177
67.6550,2.0748
67.6560,2.29
67.6570,2.4511
67.6570,2.4235
67.6570,2.2878
67.6617,2.0646
67.6628,1.8091
67.6628,1.3452
67.6638,1.257
67.6689,1.2514
67.6689,1.255
67.6700,1.3116
67.6700,1.5347
67.6709,1.7856
67.6754,2.2668
67.6754,2.4462
67.6765,2.5131
67.6775,2.4327
67.6827,2.0704
67.6827,1.8205
67.6837,1.5769
67.6837,1.3388
67.6847,1.2522
67.6887,1.2512
67.6897,1.2537
67.6897,1.2968
67.6906,1.7663
67.6906,2.0228
67.6956,2.2523
67.6956,2.4342
67.6966,2.4387
67.6966,2.2998
67.7029,2.0877
67.7039,1.5934
67.7039,1.3553
67.7049,1.2582
67.7049,1.2514
67.7092,1.2535
67.7102,1.2964
67.7102,1.5036
67.7112,1.7573
67.7174,2.2478
67.7224,2.4411
67.7354,2.5212
67.7384,2.453
67.7394,2.0984
67.7394,1.8407
67.7404,1.5951
67.7404,1.2593
67.7414,1.2507
67.7414,1.2495
67.7423,1.2525
67.7423,1.4762
67.7423,1.7378
67.7433,1.9853
67.7433,2.2195
67.7443,2.4875
67.7443,2.456
67.7453,2.3187
67.7453,2.107
67.7463,1.6259
67.7463,1.384
67.7463,1.2606
67.7476,1.2494
67.7507,1.2518
67.7507,1.2749
67.7517,1.4453
67.7517,1.9469
67.7527,2.1938
67.7570,2.3838
67.7570,2.4785
67.7580,2.3151
67.7590,2.1143
67.7639,1.855
67.7643,1.369
67.7643,1.2608
67.7653,1.2503
67.7653,1.2499
67.7708,1.2711
67.7713,1.4419
67.7725,1.6964
67.7733,1.9411
67.7776,2.3943
67.7776,2.4959
67.7786,2.4633
67.7786,2.3284
67.7796,1.8767
67.7838,1.6275
67.7846,1.3814
67.7846,1.2512
67.7856,1.2507
67.7856,1.2514
67.7906,1.2689
67.7916,1.6771
67.7916,1.9349
67.7916,2.1693
67.7983,2.3714
67.7983,2.4696
67.7993,2.3376
67.7993,2.1423
67.8003,1.8964
67.8045,1.4091
67.8045,1.2668
67.8055,1.2514
67.8055,1.2509
67.8118,1.2653
67.8118,1.4117
67.8126,1.6538
67.8126,2.1451
67.8136,2.3534
67.8180,2.4783
67.8190,2.4653
67.8190,2.1561
67.8190,1.9141
67.8249,1.6669
67.8344,1.4198
67.8434,1.252
67.8474,1.2505
67.8474,1.2503
67.8484,1.3804
67.8484,1.639
67.8494,1.8822
67.8494,2.1267
67.8504,2.4509
67.8504,2.453
67.8504,2.3296
67.8514,2.1443
67.8514,1.6574
67.8524,1.4207
67.8524,1.2659
67.8534,1.2497
67.8534,1.2499
67.8548,1.2578
67.8554,1.3592
67.8564,1.8559
67.8564,2.1072
67.8574,2.3125
67.8593,2.4353
67.8593,2.3305
67.8603,2.1563
67.8603,1.9122
67.8613,1.6647
67.8656,1.2735
67.8656,1.2512
67.8666,1.2501
67.8666,1.2497
67.8717,1.3463
67.8726,1.5987
67.8736,1.8415
67.8736,2.0886
67.8746,2.4376
67.8789,2.4516
67.8799,2.3382
67.8799,1.9292
67.8799,1.6829
67.8809,1.4404
67.8858,1.2726
67.8858,1.2514
67.8869,1.2503
67.8878,1.2557
67.8932,1.3416
67.8940,1.8355
67.8940,2.092
67.8950,2.3091
67.8950,2.4605
67.8992,2.3641
67.9003,2.2077
67.9003,1.9639
67.9013,1.4783
67.9067,1.2839
67.9067,1.2512
67.9077,1.2499
67.9077,1.255
67.9087,1.3334
67.9129,1.5724
67.9139,1.8192
67.9139,2.2923
67.9139,2.4393
67.9200,2.4625
67.9200,2.3532
67.9211,1.9583
67.9211,1.7078
67.9221,1.4719
67.9265,1.2509
67.9265,1.2495
67.9275,1.2495
67.9275,1.2535
67.9285,1.5435
67.9335,1.7918
67.9335,2.0369
67.9345,2.2576
67.9522,2.4659
67.9551,2.3633
67.9561,2.209
67.9561,1.9741
67.9572,1.492
67.9572,1.2855
67.9582,1.2509
67.9582,1.2494
67.9592,1.2525
67.9592,1.3009
67.9592,1.5194
67.9601,2.0219
67.9601,2.2474
67.9611,2.4154
67.9611,2.467
67.9621,2.2227
67.9621,1.9808
67.9621,1.7207
67.9632,1.4858
67.9677,1.2522
67.9677,1.2494
67.9686,1.2494
67.9686,1.2908
67.9696,1.5047
67.9738,1.7547
67.9746,2.0039
67.9746,2.3911
67.9756,2.461
67.9756,2.3673
67.9806,2.2118
67.9817,1.7367
67.9817,1.5036
67.9825,1.2938
67.9880,1.2527
67.9894,1.2497
67.9896,1.2527
67.9896,1.2893
67.9906,1.7384
67.9947,1.9761
67.9957,2.1948
67.9957,2.3703
67.9957,2.3594
68.0017,2.2257
68.0017,2.0044
68.0028,1.7515
68.0028,1.3032
68.0038,1.2525
68.0077,1.2501
68.0088,1.2494
68.0088,1.2754
68.0098,1.4575
68.0151,1.7091
68.0151,2.1957
68.0161,2.3853
68.0161,2.4462
68.0171,2.3854
68.0215,2.0307
68.0224,1.7716
68.0224,1.5231
68.0224,1.3026
68.0234,1.2497
68.0284,1.2492
68.0284,1.251
68.0294,1.2724
68.0294,1.6981
68.0357,1.954
68.0357,2.188
68.0368,2.4389
68.0368,2.3871
68.0377,2.2549
68.0420,2.0419
68.0430,1.5445
68.0480,1.3159
68.0611,1.2537
68.0641,1.2499
68.0650,1.2503
68.0650,1.2674
68.0650,1.4365
68.0660,1.6752
68.0660,2.1713
68.0670,2.3712
68.0670,2.4419
68.0680,2.2632
68.0680,2.0588
68.0690,1.8014
68.0690,1.5563
68.0690,1.2567
68.0700,1.2507
68.0709,1.2501
68.0719,1.2505
68.0721,1.4174
68.0729,1.6705
68.0729,1.9024
68.0759,2.1445
68.0759,2.443
68.0769,2.4019
68.0769,2.2686
68.0834,1.8023
68.0834,1.5679
68.0844,1.3328
68.0844,1.2554
68.0854,1.2499
68.0894,1.2501
68.0894,1.261
68.0905,1.3887
68.0905,1.8968
68.0967,2.1511
68.0977,2.3448
68.0977,2.44
68.0977,2.2849
68.0987,2.0877
68.1029,1.8344
68.1041,1.3484
68.1041,1.2585
68.1049,1.2509
68.1119,1.2497
68.1119,1.2582
68.1129,1.3778
68.1129,1.6315
68.1139,1.8694
68.1180,2.3397
68.1190,2.4239
68.1190,2.1156
68.1190,1.8756
68.1200,1.6403
68.1250,1.398
68.1250,1.251
68.1260,1.2494
68.1260,1.2492
68.1324,1.2535
68.1324,1.5698
68.1334,1.8201
68.1334,2.0654
68.1344,2.2705
68.1387,2.3753
68.1396,2.2401
68.1396,2.0453
68.1406,1.7873
68.1457,1.3191
68.1457,1.2531
68.1468,1.2486
68.1468,1.2484
68.1478,1.2507
68.1537,1.281
68.1699,1.4753
68.1729,1.9624
68.1739,2.1661
68.1739,2.287
68.1750,2.2743
68.1750,1.963
68.1760,1.7121
68.1760,1.4552
68.1770,1.2775
68.1770,1.2484
68.1770,1.2482
68.1780,1.248
68.1780,1.2488
68.1790,1.3885
68.1790,1.6247
68.1800,1.8685
68.1800,2.0718
68.1810,2.1925
68.1810,2.0659
68.1820,1.8947
68.1820,1.3844
68.1820,1.2614
68.1857,1.249
68.1867,1.248
68.1867,1.2482
68.1878,1.2482
68.1929,1.2514
68.1929,1.3155
68.1939,1.7689
68.1939,1.9793
68.1949,2.1033
68.1993,2.0999
68.2002,1.8068
68.2002,1.561
68.2002,1.3279
68.2054,1.2548
68.2062,1.2486
68.2072,1.2486
68.2072,1.2484
68.2082,1.2484
68.2124,1.2647
68.2134,1.4179
68.2135,1.6579
68.2144,1.8631
68.2144,2.0389
68.2194,1.9306
68.2194,1.762
68.2207,1.5179
68.2207,1.2518
68.2270,1.2486
68.2270,1.2486
68.2280,1.2486
68.2280,1.2484
68.2290,1.2486
68.2330,1.2546
68.2340,1.5897
68.2340,1.8122
68.2350,1.9577
68.2404,1.9819
68.2404,1.7116
68.2414,1.4742
68.2414,1.2745
68.2424,1.2503
68.2466,1.2484
68.2476,1.2484
68.2476,1.2486
68.2476,1.2484
68.2537,1.2514
68.2547,1.3088
68.2547,1.5398
68.2547,1.7554
68.2557,1.9536
68.2617,1.8584
68.2777,1.7001
68.2807,1.2769
68.2820,1.2501
68.2827,1.2482
68.2827,1.2486
68.2837,1.2486
68.2837,1.2486
68.2837,1.2484
68.2847,1.2509
68.2847,1.5222
68.2857,1.7446
68.2857,1.9024
68.2867,1.9484
68.2877,1.7241
68.2877,1.4924
68.2887,1.2822
68.2897,1.2482
68.2897,1.2486
68.2897,1.2488
68.2907,1.2488
68.2907,1.2484
68.2917,1.2503
68.2939,1.2919
68.2946,1.4912
68.2946,1.9032
68.2956,1.9767
68.3011,1.8856
68.3011,1.7429
68.3021,1.3026
68.3021,1.2512
68.3031,1.2486
68.3073,1.2486
68.3081,1.2486
68.3081,1.2484
68.3091,1.2482
68.3091,1.251
68.3140,1.5192
68.3150,1.7524
68.3150,1.933
68.3150,1.9187
68.3214,1.7811
68.3220,1.5612
68.3220,1.3212
68.3230,1.2486
68.3230,1.2484
68.3276,1.2488
68.3286,1.2486
68.3286,1.2482
68.3286,1.2514
68.3351,1.3073
68.3351,1.527
68.3361,1.9396
68.3361,2.0142
68.3371,1.9289
68.3413,1.5764
68.3421,1.3418
68.3421,1.254
68.3431,1.2484
68.3484,1.2486
68.3484,1.2486
68.3493,1.2484
68.3493,1.2484
68.3503,1.303
68.3548,1.528
68.3557,1.7534
68.3557,1.9311
68.3557,1.9373
68.3567,1.7993
68.3617,1.5874
68.3617,1.3482
68.3627,1.2484
68.3627,1.2484
68.3689,1.2484
68.3689,1.2486
68.3699,1.2484
68.3699,1.2503
68.3709,1.2921
68.3772,1.4967
68.3908,1.9221
68.3932,2.0061
68.3942,1.9568
68.3942,1.6259
68.3952,1.3767
68.3956,1.2572
68.3962,1.2488
68.3962,1.2484
68.3972,1.2486
68.3972,1.2486
68.3982,1.2484
68.3982,1.2839
68.3982,1.491
68.3992,1.7219
68.3992,1.9142
68.4002,1.9771
68.4002,1.8492
68.4021,1.6472
68.4021,1.2608
68.4031,1.2492
68.4041,1.2484
68.4043,1.2486
68.4092,1.2486
68.4092,1.2484
68.4092,1.2499
68.4102,1.2895
68.4163,1.7327
68.4174,1.9364
68.4174,2.032
68.4174,2.0042
68.4185,1.6789
68.4228,1.4361
68.4228,1.2664
68.4238,1.2495
68.4238,1.2488
68.4293,1.2488
68.4341,1.2484
68.4351,1.2484
68.4357,1.2839
68.4361,1.4798
68.4361,1.7131
68.4371,1.9141
68.4381,2.0204
68.4381,1.8936
68.4428,1.6981
68.4428,1.4464
68.4439,1.2501
68.4439,1.2484
68.4449,1.2486
68.4492,1.2486
68.4492,1.2484
68.4503,1.2497
68.4503,1.281
68.4513,1.462
68.4562,1.9191
68.4562,2.0367
68.4572,2.0221
68.4572,1.7161
68.4635,1.4719
68.4635,1.2752
68.4646,1.2503
68.4646,1.2484
68.4656,1.2486
68.4697,1.2484
68.4707,1.2484
68.4707,1.2773
68.4717,1.4699
68.4768,1.7207
68.4768,1.9313
68.4778,2.0541
68.4778,1.9358
68.4788,1.7382
68.4838,1.4845
68.4971,1.2509
68.4997,1.2484
68.5008,1.2482
68.5008,1.2482
68.5017,1.248
68.5017,1.2494
68.5027,1.276
68.5032,1.4462
68.5037,1.9045
68.5047,2.0331
68.5057,2.0335
68.5057,1.9262
68.5068,1.5092
68.5068,1.2936
68.5077,1.251
68.5077,1.2479
68.5087,1.248
68.5105,1.2484
68.5115,1.2484
68.5115,1.249
68.5124,1.4402
68.5124,1.6921
68.5175,1.9047
68.5175,2.0519
68.5185,1.9444
68.5185,1.7783
68.5236,1.5351
68.5236,1.2524
68.5246,1.2482
68.5246,1.2486
68.5256,1.2482
68.5303,1.2482
68.5303,1.2492
68.5313,1.2717
68.5313,1.4335
68.5373,1.8985
68.5383,2.0453
68.5383,2.0716
68.5383,1.9602
68.5393,1.5585
68.5437,1.3187
68.5437,1.2524
68.5437,1.2484
68.5447,1.2484
68.5447,1.2484
68.5507,1.2482
68.5507,1.249
68.5507,1.41
68.5517,1.6594
68.5575,1.8839
68.5575,2.0421
68.5586,1.9754
68.5586,1.8076
68.5596,1.5777
68.5638,1.254
68.5648,1.2486
68.5648,1.2484
68.5658,1.2486
68.5706,1.2484
68.5706,1.249
68.5717,1.2617
68.5717,1.3937
68.5727,1.8657
68.5777,2.0359
68.5777,2.0759
68.5788,1.9677
68.5788,1.5897
68.5842,1.345
68.5851,1.2546
68.5851,1.2484
68.5860,1.2486
68.5860,1.2486
68.5940,1.2482
68.6076,1.2486
68.6099,1.3829
68.6109,1.6442
68.6109,1.8595
68.6120,2.0234
68.6120,1.9806
68.6130,1.8362
68.6130,1.6073
68.6140,1.3525
68.6140,1.2486
68.6140,1.2484
68.6150,1.2488
68.6150,1.2486
68.6160,1.2486
68.6160,1.2587
68.6169,1.3814
68.6169,1.6319
68.6179,2.0371
68.6179,2.0898
68.6189,2.0041
68.6189,1.642
68.6199,1.3937
68.6241,1.2608
68.6249,1.249
68.6249,1.2486
68.6259,1.2482
68.6317,1.248
68.6317,1.2486
68.6327,1.3924
68.6327,1.6501
68.6337,1.8779
68.6379,2.0511
68.6399,2.0491
68.6399,1.9126
68.6409,1.6896
68.6409,1.4329
68.6449,1.2495
68.6459,1.2484
68.6459,1.2484
68.6469,1.2486
68.6519,1.2486
68.6519,1.2597
68.6530,1.3964
68.6539,1.639
68.6549,2.0571
68.6580,2.137
68.6589,2.0654
68.6589,1.9304
68.6599,1.4624
68.6654,1.278
68.6661,1.2501
68.6661,1.2484
68.6671,1.2488
68.6671,1.2482
68.6714,1.2486
68.6721,1.2576
68.6731,1.6202
68.6731,1.8593
68.6789,2.0431
68.6789,2.1273
68.6799,1.933
68.6799,1.7183
68.6809,1.4579
68.6849,1.2503
68.6849,1.2484
68.6859,1.2484
68.6859,1.248
68.6869,1.2484
68.6919,1.2559
68.6929,1.3649
68.6929,1.6067
68.6939,2.0335
68.7042,2.1314
68.7171,2.0821
68.7208,1.9461
68.7211,1.48
68.7221,1.284
68.7221,1.2499
68.7221,1.2482
68.7231,1.2482
68.7231,1.2482
68.7241,1.2486
68.7241,1.2542
68.7251,1.5893
68.7251,1.8282
68.7261,2.0232
68.7261,2.1199
68.7271,1.9574
68.7271,1.7551
68.7271,1.4929
68.7281,1.2908
68.7281,1.2484
68.7291,1.2479
68.7291,1.2484
68.7301,1.2482
68.7320,1.2537
68.7320,1.3493
68.7331,1.584
68.7331,2.0333
68.7341,2.1327
68.7390,2.1076
68.7400,1.9767
68.7400,1.5321
68.7410,1.3159
68.7464,1.252
68.7464,1.2484
68.7474,1.2484
68.7474,1.2484
68.7484,1.2486
68.7526,1.2546
68.7536,1.5962
68.7546,1.8482
68.7546,2.0425
68.7597,2.1526
68.7597,2.0177
68.7608,1.8286
68.7608,1.5724
68.7618,1.3358
68.7660,1.2484
68.7670,1.2484
68.7670,1.2484
68.7670,1.2482
68.7731,1.2535
68.7731,1.3442
68.7741,1.5779
68.7741,1.8272
68.7751,2.1565
68.7792,2.1513
68.7800,2.0206
68.7800,1.8287
68.7810,1.3474
68.7810,1.2554
68.7860,1.2488
68.7860,1.2486
68.7872,1.2484
68.7872,1.2484
68.7939,1.2527
68.7943,1.5546
68.7943,1.8136
68.7953,2.0211
68.7953,2.1374
68.7995,2.0196
68.8003,1.8486
68.8003,1.5992
68.8013,1.356
68.8069,1.2488
68.8069,1.2482
68.8079,1.2486
68.8079,1.2482
68.8109,1.2518
68.8199,1.326
68.8289,1.5494
68.8323,1.8031
68.8329,2.1496
68.8329,2.1462
68.8339,2.0292
68.8339,1.8578
68.8349,1.3714
68.8349,1.2585
68.8359,1.2486
68.8359,1.2484
68.8369,1.2482
68.8369,1.2484
68.8379,1.252
68.8388,1.3187
68.8398,1.7995
68.8398,2.0183
68.8409,2.1556
68.8421,2.1683
68.8429,1.8902
68.8429,1.6435
68.8438,1.249
68.8438,1.2484
68.8489,1.2486
68.8489,1.2484
68.8499,1.2509
68.8499,1.3079
68.8550,1.527
68.8561,1.7841
68.8570,2.1351
68.8570,2.1618
68.8580,2.0553
68.8618,1.663
68.8618,1.4129
68.8628,1.2651
68.8628,1.249
68.8690,1.2484
68.8690,1.2484
68.8700,1.2484
68.8711,1.2507
68.8711,1.5285
68.8752,1.7813
68.8763,1.9958
68.8763,2.1436
68.8763,2.0845
68.8772,1.9384
68.8822,1.7071
68.8822,1.4517
68.8832,1.2501
68.8832,1.2486
68.8895,1.2486
68.8895,1.2484
68.8905,1.251
68.8905,1.3105
68.8915,1.5364
68.8957,1.7912
68.8965,2.1657
68.8965,2.2092
68.8975,2.1154
68.9028,1.7337
68.9038,1.4802
68.9039,1.2887
68.9047,1.2503
68.9047,1.2486
68.9092,1.2486
68.9098,1.2484
68.9098,1.2514
68.9109,1.5329
68.9164,1.7851
68.9164,2.0031
68.9175,2.1672
68.9175,2.1346
68.9185,1.9984
68.9244,1.7693
68.9365,1.5053
68.9404,1.2514
68.9404,1.2486
68.9414,1.2484
68.9414,1.2486
68.9424,1.2503
68.9424,1.3002
68.9424,1.5135
68.9434,1.7582
68.9434,2.1571
68.9444,2.2004
68.9444,2.1205
68.9454,1.7581
68.9454,1.5104
68.9464,1.3011
68.9464,1.251
68.9474,1.2484
68.9499,1.2484
68.9499,1.2482
68.9510,1.2501
68.9510,1.4787
68.9520,1.7344
68.9561,1.9624
68.9570,2.1385
68.9570,2.1385
68.9580,2.0048
68.9632,1.7809
68.9632,1.5184
68.9643,1.2516
68.9643,1.2484
68.9653,1.2486
68.9697,1.2484
68.9706,1.2497
68.9722,1.2882
68.9725,1.4935
68.9725,1.9692
68.9765,2.1488
68.9775,2.2306
68.9775,2.1503
68.9785,1.7909
68.9846,1.5317
68.9846,1.3135
68.9857,1.2525
68.9857,1.2488
68.9867,1.2486
68.9899,1.248
68.9909,1.2495
68.9909,1.47
68.9919,1.7215
68.9977,1.9658
68.9977,2.1522
68.9987,2.1651
68.9997,2.0286
68.9997,1.8248
69.0038,1.3305
69.0049,1.254
69.0049,1.2486
69.0059,1.2486
69.0109,1.248
69.0109,1.2495
69.0120,1.2782
69.0120,1.4588
69.0130,1.9416
69.0173,2.1349
69.0182,2.2178
69.0182,2.1634
69.0182,1.8246
69.0192,1.5666
69.0242,1.3305
69.0242,1.2542
69.0252,1.2486
69.0252,1.2486
69.0322,1.2484
69.0452,1.2494
69.0488,1.453
69.0491,1.7123
69.0491,1.9444
69.0501,2.2304
69.0501,2.1949
69.0511,2.0596
69.0511,1.8501
69.0521,1.3785
69.0521,1.2599
69.0521,1.2492
69.0531,1.2482
69.0541,1.2484
69.0551,1.2497
69.0551,1.2809
69.0561,1.4762
69.0561,1.9525
69.0583,2.1406
69.0591,2.2328
69.0591,2.0836
69.0601,1.9045
69.0601,1.6516
69.0648,1.4074
69.0648,1.249
69.0658,1.2479
69.0658,1.2479
69.0668,1.2484
69.0718,1.2696
69.0727,1.4524
69.0727,1.6891
69.0738,1.9307
69.0791,2.2411
69.0791,2.2274
69.0801,2.1162
69.0801,1.6907
69.0811,1.4489
69.0853,1.2745
69.0864,1.2494
69.0864,1.248
69.0873,1.2484
69.0924,1.2494
69.0934,1.2709
69.0934,1.6829
69.0934,1.9307
69.0944,2.1288
69.0986,2.248
69.0996,2.1282
69.0996,1.9491
69.0996,1.6994
69.1058,1.279
69.1058,1.2497
69.1068,1.2484
69.1068,1.2482
69.1078,1.249
69.1121,1.2649
69.1121,1.4301
69.1131,1.6667
69.1131,2.1128
69.1141,2.2405
69.1191,2.2456
69.1191,2.1265
69.1201,1.7046
69.1205,1.4644
69.1264,1.2795
69.1273,1.2501
69.1273,1.2484
69.1283,1.2484
69.1283,1.2494
69.1325,1.2629
69.1334,1.6551
69.1334,1.903
69.1343,2.1076
69.1405,2.2568
69.1553,2.1492
69.1563,1.9795
69.1583,1.7376
69.1593,1.2966
69.1593,1.2518
69.1603,1.2488
69.1603,1.2486
69.1613,1.249
69.1613,1.2582
69.1623,1.3829
69.1623,1.6094
69.1623,2.0618
69.1633,2.2109
69.1633,2.227
69.1643,2.1143
69.1643,1.7138
69.1653,1.4618
69.1653,1.2827
69.1663,1.2507
69.1663,1.2484
69.1673,1.2484
69.1673,1.2488
69.1737,1.2563
69.1737,1.6009
69.1748,1.8454
69.1748,2.0566
69.1757,2.2553
69.1803,2.1443
69.1803,1.9735
69.1814,1.7326
69.1814,1.2985
69.1874,1.2514
69.1884,1.2486
69.1895,1.2488
69.1895,1.2486
69.1904,1.2559
69.1926,1.3647
69.1937,1.5816
69.1937,2.0258
69.1947,2.1678
69.2000,2.1942
69.2009,2.0918
69.2009,1.7138
69.2009,1.4535
69.2019,1.2782
69.2067,1.2501
69.2067,1.2486
69.2077,1.2484
69.2077,1.2484
69.2087,1.2539
69.2137,1.5525
69.2137,1.8021
69.2137,2.0256
69.2148,2.188
69.2204,2.1417
69.2214,1.9883
69.2214,1.7627
69.2214,1.5115
69.2224,1.251
69.2275,1.2486
69.2275,1.2486
69.2275,1.2484
69.2285,1.2522
69.2341,1.3319
69.2341,1.5604
69.2351,1.8008
69.2351,2.1931
69.2361,2.2439
69.2404,2.1556
69.2411,1.7894
69.2411,1.5255
69.2421,1.308
69.2494,1.2522
69.2653,1.2484
69.2683,1.2484
69.2693,1.2484
69.2703,1.2516
69.2713,1.5207
69.2723,1.7727
69.2723,1.9952
69.2733,2.1674
69.2733,2.1496
69.2743,2.0084
69.2743,1.7879
69.2753,1.539
69.2753,1.2548
69.2753,1.2484
69.2763,1.2488
69.2763,1.2482
69.2773,1.2516
69.2773,1.3163
69.2783,1.5394
69.2783,1.7965
69.2793,2.1951
69.2793,2.2559
69.2813,2.1734
69.2813,1.8012
69.2823,1.551
69.2823,1.3257
69.2833,1.2531
69.2872,1.2486
69.2882,1.2484
69.2892,1.2484
69.2892,1.2507
69.2947,1.4946
69.2947,1.7547
69.2957,1.9872
69.2957,2.1531
69.2967,2.1666
69.3008,2.0221
69.3019,1.8098
69.3019,1.5719
69.3019,1.2559
69.3029,1.2488
69.3078,1.2482
69.3078,1.2484
69.3088,1.2507
69.3088,1.3009
69.3152,1.5081
69.3161,1.7573
69.3161,2.1563
69.3171,2.2294
69.3171,2.1816
69.3214,2.0532
69.3223,1.5964
69.3223,1.3656
69.3233,1.2565
69.3284,1.2484
69.3284,1.2484
69.3294,1.2484
69.3294,1.2503
69.3304,1.4937
69.3349,1.7376
69.3359,1.9652
69.3359,2.1537
69.3359,2.2077
69.3418,2.074
69.3418,1.8627
69.3429,1.6139
69.3429,1.2599
69.3439,1.249
69.3480,1.2488
69.3489,1.2484
69.3489,1.2494
69.3500,1.2749
69.3500,1.4498
69.3551,1.6832
69.3551,2.1117
69.3560,2.1978
69.3560,2.1698
69.3657,2.0305
69.3739,1.5914
69.3769,1.3641
69.3779,1.2582
69.3779,1.2486
69.3789,1.2486
69.3789,1.2484
69.3798,1.2494
69.3798,1.4483
69.3808,1.6915
69.3808,1.9133
69.3818,2.0935
69.3818,2.1745
69.3828,2.0427
69.3828,1.8454
69.3828,1.6146
69.3838,1.2634
69.3838,1.2492
69.3892,1.2484
69.3892,1.2482
69.3901,1.249
69.3901,1.2642
69.3911,1.414
69.3954,1.6529
69.3954,2.0941
69.3964,2.2193
69.3964,2.2038
69.3974,2.0843
69.4024,1.6229
69.4024,1.3819
69.4035,1.2606
69.4035,1.249
69.4098,1.248
69.4098,1.2484
69.4108,1.249
69.4108,1.2632
69.4118,1.6722
69.4159,1.9056
69.4168,2.1138
69.4178,2.2004
69.4178,2.0828
69.4229,1.9041
69.4229,1.6701
69.4238,1.2717
69.4238,1.2494
69.4248,1.248
69.4292,1.2482
69.4298,1.249
69.4298,1.2604
69.4309,1.3999
69.4365,1.6444
69.4415,2.0943
69.4415,2.2304
69.4424,2.2358
69.4424,2.1014
69.4424,1.6772
69.4434,1.4275
69.4434,1.2687
69.4444,1.2494
69.4444,1.248
69.4494,1.248
69.4494,1.2488
69.4504,1.2582
69.4504,1.6191
69.4569,1.8636
69.4577,2.0712
69.4577,2.2105
69.4587,2.1207
69.4587,1.9502
69.4629,1.6952
69.4640,1.2799
69.4640,1.2495
69.4650,1.2484
69.4702,1.2482
69.4841,1.2488
69.4872,1.2585
69.4879,1.3958
69.4879,1.6152
69.4889,2.05
69.4895,2.1938
69.4899,2.2122
69.4899,2.0905
69.4909,1.6971
69.4909,1.4528
69.4919,1.272
69.4919,1.2501
69.4919,1.2484
69.4929,1.248
69.4929,1.2486
69.4939,1.2546
69.4939,1.5912
69.4949,1.8436
69.4969,2.0472
69.4969,2.1942
69.4969,2.1147
69.4980,1.9546
69.5038,1.7221
69.5048,1.4708
69.5058,1.251
69.5058,1.2484
69.5068,1.2486
69.5104,1.2484
69.5114,1.2565
69.5114,1.368
69.5114,1.5992
69.5175,2.0463
69.5175,2.194
69.5185,2.2246
69.5185,2.1179
69.5195,1.7581
69.5235,1.5169
69.5243,1.3069
69.5243,1.251
69.5254,1.2486
69.5308,1.2482
69.5308,1.249
69.5318,1.2552
69.5318,1.6084
69.5328,1.8578
69.5369,2.0562
69.5379,2.2073
69.5379,2.1721
69.5379,2.0138
69.5389,1.7815
69.5439,1.5199
69.5439,1.2522
69.5449,1.2486
69.5449,1.2484
69.5512,1.2482
69.5512,1.2542
69.5522,1.3504
69.5522,1.5816
69.5532,1.8372
69.5576,2.2158
69.5586,2.2534
69.5586,2.164
69.5586,1.7982
69.5662,1.5477
69.5667,1.3199
69.5677,1.2525
69.5677,1.2484
69.5677,1.2482
69.5725,1.2529
69.5735,1.5443
69.5735,1.7909
69.5735,2.0149
69.5798,2.245
69.5932,2.182
69.5962,2.0387
69.5971,1.8017
69.5971,1.3315
69.5971,1.2539
69.5981,1.249
69.5981,1.2482
69.5991,1.2484
69.5991,1.2518
69.6001,1.3135
69.6001,1.5304
69.6011,2.0059
69.6011,2.1764
69.6011,2.2384
69.6021,2.0431
69.6021,1.8257
69.6031,1.5657
69.6031,1.3339
69.6065,1.2488
69.6075,1.2484
69.6075,1.2484
69.6085,1.2484
69.6137,1.2989
69.6137,1.518
69.6147,1.7534
69.6147,1.9789
69.6157,2.2413
69.6204,2.1683
69.6215,2.0215
69.6225,1.8062
69.6234,1.3386
69.6271,1.2554
69.6271,1.2492
69.6281,1.2486
69.6281,1.2484
69.6291,1.2509
69.6333,1.3022
69.6341,1.7515
69.6341,1.9879
69.6351,2.1683
69.6351,2.2504
69.6401,2.0714
69.6411,1.8659
69.6411,1.6028
69.6421,1.3647
69.6471,1.2492
69.6481,1.249
69.6491,1.2486
69.6501,1.2484
69.6501,1.2957
69.6540,1.5068
69.6550,1.7611
69.6560,2.1773
69.6570,2.2587
69.6610,2.1946
69.6613,2.0648
69.6620,1.6028
69.6620,1.3645
69.6630,1.257
69.6671,1.249
69.6671,1.2488
69.6680,1.2484
69.6680,1.2499
69.6743,1.2805
69.6750,1.7149
69.6760,1.9493
69.6770,2.1492
69.6770,2.2096
69.6800,2.0821
69.6810,1.8829
69.6820,1.6266
69.6820,1.2623
69.6830,1.2494
69.6999,1.2486
69.7119,1.2486
69.7129,1.2495
69.7129,1.2747
69.7139,1.4597
69.7139,1.6945
69.7149,2.1218
69.7149,2.2324
69.7149,2.209
69.7159,2.0853
69.7159,1.6426
69.7169,1.4052
69.7169,1.2632
69.7179,1.2495
69.7179,1.2488
69.7189,1.2482
69.7189,1.2494
69.7199,1.2734
69.7199,1.6836
69.7209,1.9302
69.7212,2.1229
69.7219,2.2377
69.7219,2.1016
69.7229,1.9144
69.7229,1.6637
69.7238,1.2696
69.7238,1.2495
69.7278,1.2486
69.7278,1.2486
69.7288,1.2492
69.7288,1.267
69.7298,1.4404
69.7348,1.6778
69.7358,2.1188
69.7358,2.2456
69.7358,2.2379
69.7420,2.1175
69.7428,1.6877
69.7428,1.4397
69.7428,1.2734
69.7438,1.2503
69.7478,1.2488
69.7488,1.2484
69.7488,1.2492
69.7498,1.2653
69.7554,1.6703
69.7558,1.9236
69.7558,2.1304
69.7568,2.2491
69.7568,2.1308
69.7618,1.9437
69.7618,1.6997
69.7628,1.4543
69.7628,1.2501
69.7687,1.2484
69.7687,1.2486
69.7697,1.249
69.7697,1.2614
69.7707,1.4115
69.7748,1.6486
69.7748,2.0991
69.7757,2.2441
69.7757,2.2444
69.7757,2.119
69.7817,1.7069
69.7817,1.4599
69.7827,1.2816
69.7827,1.2503
69.7887,1.2488
69.7897,1.2482
69.7897,1.2488
69.7897,1.2589
69.7897,1.6283
69.7967,1.8781
69.8056,2.0864
69.8076,2.2182
69.8076,2.137
69.8076,1.9712
69.8087,1.7305
69.8087,1.4768
69.8087,1.2505
69.8097,1.248
69.8097,1.2482
69.8097,1.2488
69.8097,1.2563
69.8097,1.374
69.8156,1.611
69.8156,2.0806
69.8166,2.2298
69.8166,2.2534
69.8166,2.1477
69.8216,1.7594
69.8226,1.5029
69.8226,1.3009
69.8236,1.2509
69.8246,1.248
69.8286,1.2484
69.8296,1.2486
69.8296,1.2563
69.8296,1.6161
69.8365,1.8578
69.8365,2.0712
69.8365,2.2197
69.8379,2.1533
69.8379,2.0007
69.8429,1.7665
69.8429,1.5132
69.8429,1.2518
69.8429,1.2486
69.8496,1.2484
69.8500,1.2486
69.8500,1.2542
69.8510,1.3562
69.8510,1.5977
69.8556,2.0793
69.8566,2.2409
69.8566,2.284
69.8576,2.1655
69.8631,1.7896
69.8636,1.5347
69.8636,1.3137
69.8646,1.252
69.8646,1.2484
69.8698,1.2484
69.8707,1.2486
69.8707,1.2559
69.8707,1.6163
69.8717,1.864
69.8767,2.0798
69.8767,2.2463
69.8777,2.2146
69.8777,2.0695
69.8838,1.8477
69.8848,1.3718
69.8848,1.2578
69.8858,1.2494
69.8858,1.249
69.8899,1.2492
69.8909,1.2602
69.8909,1.4022
69.8919,1.6531
69.8973,2.1308
69.8980,2.3095
69.8980,2.3736
69.8991,2.2949
69.8991,1.9294
69.9071,1.6786
69.9200,1.4339
69.9230,1.2499
69.9230,1.2488
69.9242,1.2488
69.9242,1.2503
69.9250,1.4369
69.9250,1.6906
69.9260,1.933
69.9260,2.1612
69.9270,2.4154
69.9270,2.3502
69.9270,2.2109
69.9280,1.9943
69.9280,1.5055
69.9290,1.2968
69.9290,1.2527
69.9300,1.2499
69.9311,1.251
69.9320,1.276
69.9320,1.449
69.9331,1.9476
69.9331,2.1878
69.9380,2.3704
69.9380,2.4396
69.9390,2.2336
69.9390,2.0314
69.9443,1.7768
69.9453,1.54
69.9453,1.255
69.9463,1.2505
69.9463,1.2499
69.9512,1.2758
69.9523,1.4644
69.9523,1.7187
69.9533,1.9585
69.9585,2.3787
69.9585,2.4749
69.9596,2.4117
69.9596,2.275
69.9605,1.8196
69.9649,1.5827
69.9649,1.3482
69.9659,1.2567
69.9659,1.2509
69.9669,1.2527
69.9719,1.2807
69.9719,1.7192
69.9729,1.9694
69.9729,2.2056
69.9792,2.3988
69.9792,2.4293
69.9802,2.3086
69.9802,2.1186
69.9812,1.8653
69.9854,1.392
69.9864,1.2662
69.9864,1.2527
69.9874,1.2514
69.9925,1.288
69.9925,1.489
69.9935,1.7442
69.9935,2.2388
69.9945,2.4291
69.9989,2.5248
69.9989,2.4869
69.9999,2.1612
69.9999,1.9009
70.0058,1.6602
70.0058,1.4241
70.0069,1.2554
70.0069,1.2531
70.0079,1.2559
70.0142,1.3028
70.0271,1.7792
70.0301,2.0249
70.0311,2.2557
70.0311,2.566
70.0321,2.5388
70.0321,2.4121
70.0331,2.2128
70.0331,1.7207
70.0341,1.4882
70.0341,1.2994
70.0351,1.2585
70.0351,1.2587
70.0351,1.3191
70.0361,1.5291
70.0371,1.7959
70.0379,2.2868
70.0381,2.4792
70.0401,2.5623
70.0401,2.5565
70.0411,2.2623
70.0411,2.0086
70.0421,1.759
70.0459,1.3266
70.0510,1.2623
70.0510,1.2585
70.0520,1.2617
70.0531,1.5441
70.0541,1.8062
70.0554,2.0509
70.0561,2.2863
70.0561,2.57
70.0599,2.5707
70.0599,2.4903
70.0609,2.3168
70.0609,1.8248
70.0619,1.5915
70.0669,1.3812
70.0669,1.2634
70.0678,1.2704
70.0678,1.3557
70.0740,1.5711
70.0740,2.089
70.0749,2.3389
70.0749,2.5416
70.0759,2.5763
70.0809,2.5559
70.0809,2.3806
70.0820,2.137
70.0820,1.8781
70.0872,1.4213
70.0872,1.2874
70.0882,1.2724
70.0882,1.3784
70.0892,1.596
70.0943,1.8477
70.0943,2.0911
70.0953,2.5476
70.0953,2.5926
70.1010,2.6054
70.1010,2.5786
70.1020,2.1631
70.1020,1.9081
70.1030,1.681
70.1073,1.4535
70.1080,1.2771
70.1080,1.282
70.1090,1.368
70.1090,1.8347
70.1140,2.0809
70.1150,2.3269
70.1150,2.5281
70.1150,2.5994
70.1244,2.5683
70.1382,2.4066
70.1412,2.1644
70.1422,1.6849
70.1422,1.4519
70.1422,1.2981
70.1432,1.2739
70.1432,1.3534
70.1442,1.5514
70.1442,1.8017
70.1452,2.2954
70.1452,2.5073
70.1462,2.5765
70.1462,2.5908
70.1462,2.4094
70.1472,2.1771
70.1472,1.9204
70.1482,1.6864
70.1482,1.3013
70.1492,1.2687
70.1492,1.2692
70.1492,1.3285
70.1502,1.7837
70.1546,2.0282
70.1546,2.2692
70.1557,2.4755
70.1557,2.5833
70.1567,2.5593
70.1616,2.4049
70.1616,1.9277
70.1627,1.6907
70.1627,1.4517
70.1689,1.2921
70.1698,1.2666
70.1703,1.3165
70.1708,1.489
70.1720,1.7333
70.1750,2.236
70.1758,2.4573
70.1758,2.5769
70.1768,2.5692
70.1824,2.4241
70.1824,2.1826
70.1835,1.9264
70.1835,1.4547
70.1845,1.2936
70.1890,1.2704
70.1890,1.2679
70.1900,1.4888
70.1900,1.7393
70.1961,1.9716
70.1961,2.2186
70.1971,2.5844
70.1971,2.6035
70.1971,2.5752
70.2024,2.2311
70.2024,1.9806
70.2037,1.7391
70.2037,1.4982
70.2044,1.2822
70.2094,1.2762
70.2094,1.333
70.2104,1.5038
70.2104,2.011
70.2166,2.2632
70.2176,2.4865
70.2176,2.6003
70.2176,2.6078
70.2186,2.516
70.2227,2.2977
70.2236,2.0491
70.2236,1.5801
70.2246,1.3847
70.2298,1.3161
70.2298,1.3815
70.2358,1.5533
70.2497,1.7907
70.2540,2.0421
70.2547,2.531
70.2557,2.6315
70.2557,2.6603
70.2567,2.608
70.2567,2.3459
70.2577,2.0986
70.2577,1.8595
70.2587,1.6154
70.2587,1.318
70.2597,1.2996
70.2597,1.3739
70.2610,1.542
70.2617,2.0397
70.2617,2.2819
70.2628,2.5141
70.2637,2.6168
70.2637,2.6346
70.2637,2.5645
70.2647,2.3515
70.2647,1.8638
70.2657,1.6255
70.2657,1.4177
70.2667,1.3155
70.2705,1.3617
70.2720,1.5233
70.2725,1.7631
70.2725,2.0209
70.2768,2.5051
70.2768,2.615
70.2780,2.6489
70.2789,2.6189
70.2789,2.3446
70.2837,2.095
70.2837,1.8419
70.2847,1.5921
70.2847,1.3015
70.2908,1.2812
70.2908,1.3345
70.2917,1.4837
70.2917,1.9771
70.2929,2.2242
70.2987,2.453
70.2996,2.6517
70.2996,2.63
70.2996,2.3543
70.3006,1.8664
70.3056,1.6099
70.3066,1.4072
70.3066,1.2852
70.3076,1.3356
70.3128,1.476
70.3138,1.699
70.3138,2.1976
70.3138,2.4381
70.3148,2.5928
70.3191,2.642
70.3201,2.5694
70.3203,2.3734
70.3211,2.1153
70.3262,1.8792
70.3262,1.4196
70.3272,1.2957
70.3272,1.2782
70.3282,1.465
70.3328,1.6969
70.3338,1.9407
70.3338,2.1878
70.3338,2.5902
70.3398,2.6583
70.3398,2.6386
70.3409,2.5756
70.3409,2.14
70.3428,1.9021
70.3519,1.6735
70.3608,1.4616
70.3638,1.2897
70.3648,1.3349
70.3648,1.4599
70.3648,1.9542
70.3658,2.2084
70.3658,2.4494
70.3668,2.6054
70.3668,2.6354
70.3678,2.588
70.3678,2.4124
70.3678,2.1573
70.3688,1.6684
70.3688,1.4457
70.3698,1.3067
70.3698,1.288
70.3712,1.4601
70.3739,1.6757
70.3739,1.9199
70.3750,2.4106
70.3750,2.582
70.3759,2.6326
70.3803,2.6523
70.3810,2.4209
70.3820,2.1685
70.3820,1.9133
70.3872,1.6746
70.3886,1.3178
70.3892,1.291
70.3892,1.3131
70.3902,1.6414
70.3939,1.8977
70.3949,2.1419
70.3949,2.3821
70.3949,2.6406
70.3959,2.6461
70.4009,2.5908
70.4009,2.4198
70.4018,1.9249
70.4018,1.6851
70.4079,1.4646
70.4079,1.3133
70.4089,1.2934
70.4089,1.3965
70.4099,1.6028
70.4142,1.8599
70.4152,2.3581
70.4152,2.5634
70.4152,2.62
70.4215,2.6247
70.4215,2.4301
70.4226,2.1824
70.4226,1.9229
70.4236,1.4663
70.4275,1.3114
70.4284,1.2795
70.4284,1.2863
70.4294,1.5953
70.4347,1.8514
70.4347,2.0901
70.4357,2.3344
70.4357,2.6174
70.4370,2.6517
70.4410,2.5833
70.4459,2.4353
70.4459,1.9354
70.4469,1.7151
70.4469,1.4839
70.4479,1.3135
70.4479,1.2846
70.4489,1.3677
70.4489,1.5644
70.4551,1.8207
70.4688,2.3243
70.4718,2.5407
70.4728,2.6088
70.4728,2.5865
70.4728,2.4516
70.4738,2.2223
70.4738,1.9564
70.4748,1.4931
70.4748,1.3255
70.4758,1.2839
70.4758,1.2874
70.4768,1.5533
70.4768,1.8156
70.4768,2.0521
70.4778,2.3037
70.4778,2.6015
70.4788,2.6382
70.4822,2.588
70.4830,2.4486
70.4830,1.9677
70.4830,1.7262
70.4840,1.4897
70.4879,1.3182
70.4889,1.2756
70.4889,1.3463
70.4899,1.5355
70.4899,2.0365
70.4949,2.2893
70.4959,2.5017
70.4959,2.5872
70.4969,2.5908
70.5024,2.4591
70.5032,2.221
70.5043,1.963
70.5053,1.4976
70.5053,1.3232
70.5087,1.2743
70.5097,1.2735
70.5097,1.5072
70.5097,1.7554
70.5159,1.9996
70.5168,2.2514
70.5168,2.575
70.5168,2.591
70.5178,2.5851
70.5223,2.2343
70.5223,1.9881
70.5233,1.7498
70.5243,1.5047
70.5293,1.2749
70.5296,1.2704
70.5306,1.3223
70.5306,1.4907
70.5306,1.9849
70.5358,2.2356
70.5358,2.4548
70.5369,2.578
70.5378,2.5795
70.5378,2.4574
70.5427,2.2343
70.5427,1.9776
70.5437,1.5085
70.5437,1.324
70.5499,1.2711
70.5499,1.2668
70.5509,1.4669
70.5509,1.711
70.5519,1.9598
70.5562,2.2118
70.5569,2.5799
70.5569,2.603
70.5580,2.5904
70.5639,2.2503
70.5759,2.0018
70.5789,1.7633
70.5819,1.5162
70.5823,1.2764
70.5829,1.2696
70.5829,1.3043
70.5839,1.4511
70.5839,1.9491
70.5849,2.1961
70.5849,2.4226
70.5859,2.5748
70.5859,2.5898
70.5869,2.4803
70.5879,2.2679
70.5879,2.0097
70.5879,1.5252
70.5889,1.3349
70.5889,1.2704
70.5900,1.2899
70.5909,1.4367
70.5909,1.6696
70.5909,1.9214
70.5975,2.4087
70.5975,2.5737
70.5985,2.5833
70.5985,2.5842
70.5995,2.2756
70.6033,2.0219
70.6053,1.7759
70.6053,1.5359
70.6063,1.2717
70.6108,1.2649
70.6114,1.2895
70.6114,1.6557
70.6125,1.9152
70.6125,2.1582
70.6167,2.3871
70.6177,2.5831
70.6177,2.5808
70.6187,2.4893
70.6241,2.2825
70.6241,1.7899
70.6251,1.551
70.6251,1.3418
70.6261,1.2629
70.6307,1.281
70.6307,1.396
70.6317,1.6157
70.6317,2.1385
70.6327,2.3804
70.6377,2.5531
70.6377,2.585
70.6387,2.4989
70.6387,2.2979
70.6448,2.0395
70.6448,1.7911
70.6459,1.3538
70.6459,1.2675
70.6469,1.2615
70.6512,1.3722
70.6521,1.6017
70.6521,1.8554
70.6531,2.1044
70.6581,2.5401
70.6591,2.5816
70.6591,2.5906
70.6601,2.4959
70.6601,2.0489
70.6645,1.8042
70.6651,1.5629
70.6661,1.2675
70.6661,1.2632
70.6721,1.2732
70.6940,1.3619
70.6970,1.843
70.6980,2.0956
70.6980,2.3305
70.6990,2.5236
70.6990,2.579
70.7001,2.5004
70.7001,2.3086
70.7010,2.0549
70.7010,1.5735
70.7020,1.3523
70.7020,1.267
70.7030,1.2666
70.7040,1.3474
70.7044,1.5623
70.7060,1.825
70.7060,2.3099
70.7070,2.5139
70.7070,2.5743
70.7080,2.5812
70.7080,2.317
70.7090,2.0821
70.7090,1.8295
70.7100,1.5906
70.7100,1.2737
70.7110,1.266
70.7110,1.2687
70.7120,1.5409
70.7130,1.8072
70.7130,2.0453
70.7139,2.2911
70.7189,2.5713
70.7199,2.5923
70.7209,2.5218
70.7219,2.3404
70.7219,1.8368
70.7249,1.6084
70.7259,1.3808
70.7259,1.2734
70.7269,1.2638
70.7269,1.3229
70.7329,1.5209
70.7329,2.026
70.7339,2.2774
70.7339,2.4826
70.7399,2.5716
70.7399,2.5103
70.7409,2.3359
70.7409,2.0913
70.7419,1.8424
70.7459,1.381
70.7469,1.2711
70.7469,1.263
70.7479,1.2629
70.7529,1.506
70.7538,1.7605
70.7538,1.9969
70.7548,2.4618
70.7548,2.5718
70.7598,2.5833
70.7598,2.515
70.7609,2.1164
70.7609,1.8749
70.7669,1.6339
70.7669,1.4022
70.7679,1.2657
70.7679,1.2642
70.7689,1.306
70.7733,1.4798
70.7733,1.9799
70.7744,2.233
70.7744,2.4383
70.7754,2.5746
70.7966,2.5118
70.7993,2.3448
70.7993,2.1068
70.8003,1.6283
70.8009,1.3992
70.8013,1.2698
70.8013,1.2585
70.8023,1.287
70.8023,1.4584
70.8033,1.7116
70.8043,1.9546
70.8043,2.4254
70.8043,2.5677
70.8053,2.5853
70.8053,2.353
70.8063,2.1233
70.8073,1.8653
70.8073,1.6364
70.8073,1.2715
70.8083,1.2578
70.8093,1.2574
70.8093,1.2837
70.8146,1.6928
70.8146,1.9484
70.8156,2.1918
70.8156,2.4113
70.8166,2.5846
70.8207,2.522
70.8212,2.3665
70.8226,1.8936
70.8233,1.6577
70.8233,1.4149
70.8278,1.2769
70.8283,1.2589
70.8283,1.2899
70.8293,1.4389
70.8354,1.684
70.8354,2.1899
70.8364,2.4091
70.8374,2.5694
70.8374,2.5448
70.8416,2.3974
70.8426,2.1646
70.8426,1.9045
70.8426,1.4269
70.8488,1.2788
70.8488,1.2563
70.8498,1.2561
70.8498,1.4243
70.8508,1.6701
70.8549,1.9163
70.8549,2.1696
70.8559,2.5625
70.8559,2.5791
70.8619,2.5373
70.8619,2.1651
70.8629,1.9103
70.8629,1.6652
70.8639,1.4213
70.8682,1.2555
70.8693,1.255
70.8693,1.2692
70.8702,1.3767
70.8702,1.882
70.8752,2.1318
70.8752,2.3461
70.8762,2.5238
70.8762,2.5246
70.8828,2.3888
70.8835,2.1698
70.8835,1.6778
70.8845,1.4399
70.8845,1.2812
70.9045,1.2548
70.9075,1.2644
70.9085,1.3699
70.9095,1.6122
70.9095,1.8612
70.9095,2.3363
70.9105,2.5229
70.9105,2.5842
70.9116,2.5208
70.9116,2.1758
70.9125,1.9171
70.9125,1.6756
70.9135,1.2794
70.9135,1.2548
70.9135,1.2539
70.9145,1.264
70.9145,1.5839
70.9155,1.8426
70.9155,2.0821
70.9165,2.3103
70.9165,2.6052
70.9175,2.5416
70.9175,2.4031
70.9229,2.1976
70.9235,1.7027
70.9235,1.4597
70.9245,1.2885
70.9304,1.2548
70.9304,1.2636
70.9314,1.354
70.9314,1.5741
70.9324,2.0748
70.9369,2.3138
70.9386,2.5068
70.9389,2.5968
70.9399,2.4175
70.9432,2.2114
70.9442,1.9568
70.9442,1.7191
70.9442,1.3
70.9452,1.2593
70.9496,1.2561
70.9505,1.3341
70.9505,1.5705
70.9515,1.8209
70.9571,2.071
70.9571,2.4914
70.9580,2.5793
70.9580,2.5461
70.9590,2.4168
70.9635,1.9754
70.9641,1.7354
70.9641,1.491
70.9651,1.3011
70.9651,1.2561
70.9704,1.26
70.9711,1.3229
70.9711,1.7986
70.9711,2.0419
70.9779,2.2789
70.9779,2.4741
70.9789,2.5416
70.9789,2.4276
70.9799,2.236
70.9839,1.978
70.9850,1.4974
70.9850,1.3035
70.9860,1.2576
70.9913,1.255
70.9913,1.309
70.9923,1.5154
70.9923,1.765
70.9933,2.0151
70.9976,2.4468
70.9976,2.5516
70.9986,2.5364
70.9986,2.233
71.0045,1.9906
71.0178,1.7378
71.0213,1.4907
71.0213,1.2578
71.0223,1.2542
71.0223,1.2561
71.0233,1.2934
71.0233,1.7444
71.0243,1.9823
71.0243,2.2214
71.0243,2.4248
71.0253,2.5424
71.0253,2.4252
71.0263,2.2394
71.0263,1.7485
71.0273,1.5085
71.0273,1.3058
71.0273,1.2569
71.0283,1.2552
71.0333,1.4644
71.0343,1.963
71.0343,2.2144
71.0353,2.4181
71.0404,2.5405
71.0410,2.4301
71.0410,2.2568
71.0420,2.0091
71.0420,1.7652
71.0465,1.3229
71.0473,1.2584
71.0473,1.2544
71.0483,1.254
71.0536,1.4447
71.0545,1.6979
71.0555,1.9422
71.0555,2.3973
71.0565,2.528
71.0597,2.5415
71.0607,2.4351
71.0607,2.026
71.0607,1.7729
71.0617,1.5334
71.0667,1.3212
71.0677,1.2539
71.0677,1.2544
71.0677,1.276
71.0749,1.4303
71.0749,1.9351
71.0759,2.1912
71.0759,2.3886
71.0759,2.5503
71.0803,2.4415
71.0813,2.2705
71.0813,2.0312
71.0823,1.545
71.0879,1.3281
71.0879,1.2585
71.0888,1.2535
71.0888,1.275
71.0898,1.4346
71.0941,1.6774
71.0941,1.9159
71.0951,2.3854
71.0951,2.5244
71.1013,2.5572
71.1013,2.4546
71.1023,2.0654
71.1023,1.8062
71.1033,1.5655
71.1070,1.2602
71.1118,1.2539
71.1268,1.254
71.1298,1.2724
71.1298,1.6703
71.1308,1.9187
71.1308,2.1657
71.1318,2.3849
71.1318,2.5698
71.1328,2.4764
71.1328,2.3193
71.1328,2.0824
71.1338,1.5927
71.1338,1.353
71.1348,1.2608
71.1348,1.2535
71.1358,1.2683
71.1358,1.3868
71.1370,1.6266
71.1378,2.1288
71.1378,2.3493
71.1378,2.4996
71.1388,2.5473
71.1416,2.3022
71.1416,2.0749
71.1426,1.8211
71.1426,1.5816
71.1488,1.2617
71.1488,1.2542
71.1498,1.2529
71.1498,1.2619
71.1508,1.6099
71.1548,1.8651
71.1558,2.1019
71.1558,2.3239
71.1558,2.5548
71.1568,2.4668
71.1617,2.3247
71.1617,1.8364
71.1627,1.594
71.1627,1.3615
71.1690,1.2617
71.1702,1.2527
71.1702,1.2597
71.1711,1.3527
71.1711,1.5865
71.1750,2.0839
71.1760,2.3114
71.1760,2.4775
71.1770,2.5413
71.1826,2.3279
71.1826,2.1053
71.1836,1.8469
71.1836,1.6112
71.1846,1.2662
71.1888,1.2542
71.1898,1.2529
71.1898,1.2591
71.1898,1.5735
71.1959,1.816
71.1959,2.0523
71.1970,2.2795
71.1970,2.5416
71.1980,2.465
71.2020,2.3215
71.2020,2.0984
71.2030,1.6234
71.2035,1.381
71.2040,1.2647
71.2090,1.2529
71.2090,1.2576
71.2100,1.3274
71.2100,1.5537
71.2182,2.0449
71.2352,2.2746
71.2382,2.4554
71.2392,2.536
71.2392,2.3344
71.2392,2.1237
71.2402,1.8655
71.2412,1.6242
71.2412,1.269
71.2412,1.254
71.2422,1.2524
71.2422,1.2565
71.2432,1.5293
71.2432,1.7811
71.2442,2.0247
71.2442,2.2596
71.2452,2.5415
71.2452,2.4741
71.2452,2.3448
71.2461,1.8737
71.2461,1.6418
71.2471,1.4009
71.2471,1.2674
71.2496,1.252
71.2496,1.2552
71.2506,1.297
71.2506,1.498
71.2516,1.9879
71.2566,2.2338
71.2566,2.4192
71.2576,2.509
71.2576,2.3416
71.2639,2.1447
71.2639,1.8891
71.2649,1.642
71.2649,1.2717
71.2659,1.2531
71.2702,1.2514
71.2709,1.2885
71.2719,1.4858
71.2729,1.7344
71.2771,1.9742
71.2771,2.4021
71.2782,2.4991
71.2782,2.4738
71.2792,2.3457
71.2834,1.8959
71.2842,1.654
71.2842,1.4091
71.2853,1.2698
71.2905,1.2518
71.2915,1.2531
71.2915,1.2829
71.2925,1.4622
71.2925,1.9574
71.2969,2.2008
71.2969,2.3939
71.2979,2.489
71.2979,2.3485
71.2989,2.1514
71.3039,1.9007
71.3039,1.4181
71.3049,1.2713
71.3049,1.252
71.3111,1.2512
71.3111,1.273
71.3120,1.4444
71.3120,1.6969
71.3130,1.9446
71.3174,2.3856
71.3183,2.4903
71.3183,2.4734
71.3193,2.3543
71.3244,1.9268
71.3244,1.6789
71.3295,1.4404
71.3444,1.2764
71.3474,1.252
71.3484,1.2525
71.3484,1.273
71.3494,1.4312
71.3494,1.9212
71.3494,2.1599
71.3504,2.3686
71.3512,2.4785
71.3514,2.3688
71.3514,2.1843
71.3524,1.9336
71.3524,1.4575
71.3537,1.2833
71.3537,1.2533
71.3544,1.2518
71.3544,1.269
71.3554,1.416
71.3554,1.6619
71.3564,2.1535
71.3585,2.3633
71.3594,2.4785
71.3594,2.4815
71.3604,2.1912
71.3604,1.9581
71.3651,1.6992
71.3661,1.4654
71.3661,1.2539
71.3661,1.2512
71.3714,1.2518
71.3722,1.2644
71.3722,1.6534
71.3732,1.9052
71.3732,2.1481
71.3784,2.4792
71.3784,2.4831
71.3794,2.3669
71.3794,2.2004
71.3856,1.7029
71.3856,1.4667
71.3868,1.2784
71.3877,1.2527
71.3877,1.2507
71.3920,1.2595
71.3920,1.3718
71.3930,1.6189
71.3930,2.1211
71.3940,2.3296
71.3989,2.4708
71.3989,2.3763
71.3999,2.2176
71.3999,1.9804
71.4054,1.7284
71.4064,1.2953
71.4064,1.2539
71.4074,1.251
71.4074,1.2509
71.4125,1.3585
71.4135,1.6022
71.4135,1.8479
71.4135,2.1021
71.4195,2.4698
71.4195,2.4818
71.4205,2.3746
71.4205,1.9836
71.4215,1.7324
71.4258,1.5038
71.4265,1.2966
71.4265,1.2516
71.4276,1.2509
71.4329,1.2576
71.4329,1.3431
71.4339,1.8428
71.4339,2.0939
71.4349,2.3046
71.4529,2.4595
71.4608,2.3868
71.4610,2.2356
71.4618,2.0009
71.4618,1.5062
71.4628,1.3022
71.4628,1.2539
71.4628,1.2509
71.4638,1.2559
71.4638,1.3281
71.4648,1.5672
71.4648,1.8205
71.4658,2.2883
71.4658,2.4636
71.4669,2.5077
71.4669,2.3928
71.4678,2.0177
71.4678,1.7609
71.4688,1.5229
71.4688,1.2548
71.4698,1.2516
71.4703,1.2505
71.4708,1.2554
71.4731,1.5527
71.4738,1.8042
71.4738,2.059
71.4748,2.2823
71.4803,2.5021
71.4803,2.3969
71.4813,2.2491
71.4813,2.0281
71.4823,1.5338
71.4866,1.3095
71.4876,1.2548
71.4886,1.2509
71.4886,1.255
71.4896,1.3129
71.4936,1.5291
71.4946,2.0352
71.4946,2.2653
71.4946,2.4327
71.5010,2.5032
71.5018,2.2519
71.5018,2.0314
71.5028,1.774
71.5028,1.5387
71.5070,1.2557
71.5081,1.2509
71.5081,1.2501
71.5091,1.2915
71.5145,1.5119
71.5145,1.7639
71.5156,2.0129
71.5156,2.4199
71.5166,2.4989
71.5208,2.4156
71.5217,2.2733
71.5217,1.8008
71.5227,1.558
71.5278,1.3225
71.5287,1.2561
71.5288,1.2503
71.5297,1.2525
71.5297,1.2897
71.5342,1.494
71.5342,1.9928
71.5352,2.2257
71.5352,2.4091
71.5362,2.4081
71.5412,2.2684
71.5412,2.0549
71.5422,1.8098
71.5422,1.3429
71.5532,1.2576
71.5631,1.2509
71.5651,1.2503
71.5661,1.2831
71.5661,1.4828
71.5672,1.7322
71.5672,1.981
71.5681,2.4055
71.5681,2.4946
71.5692,2.4273
71.5692,2.074
71.5702,1.8293
71.5702,1.5846
71.5711,1.3523
71.5711,1.2512
71.5722,1.2505
71.5722,1.2522
71.5732,1.2801
71.5756,1.7151
71.5756,1.957
71.5766,2.2015
71.5766,2.3898
71.5776,2.4349
71.5818,2.3059
71.5818,2.1001
71.5828,1.5966
71.5828,1.3598
71.5838,1.2597
71.5888,1.251
71.5898,1.2514
71.5898,1.2711
71.5909,1.4395
71.5961,1.6962
71.5961,2.1771
71.5971,2.3793
71.5971,2.479
71.5981,2.4342
71.6024,2.0984
71.6035,1.8488
71.6035,1.6017
71.6044,1.2608
71.6094,1.2509
71.6094,1.2501
71.6105,1.2514
71.6105,1.4252
71.6115,1.6823
71.6158,1.9272
71.6168,2.1653
71.6168,2.453
71.6178,2.4359
71.6230,2.3084
71.6230,2.1139
71.6240,1.6182
71.6240,1.374
71.6250,1.2625
71.6293,1.2499
71.6293,1.251
71.6303,1.2666
71.6303,1.416
71.6313,1.894
71.6363,2.1342
71.6363,2.3363
71.6373,2.4445
71.6373,2.2956
71.6435,2.1136
71.6435,1.8662
71.6445,1.6251
71.6445,1.2606
71.6455,1.2499
71.6498,1.2492
71.6509,1.2503
71.6509,1.3757
71.6509,1.6289
71.6578,1.8841
71.6764,2.3211
71.6801,2.4402
71.6808,2.4286
71.6808,2.3172
71.6818,1.8953
71.6818,1.6542
71.6828,1.4106
71.6828,1.2649
71.6838,1.2509
71.6838,1.2509
71.6838,1.2612
71.6848,1.3547
71.6848,1.8377
71.6858,2.0868
71.6858,2.2984
71.6869,2.4254
71.6878,2.2968
71.6888,2.1074
71.6888,1.8582
71.6898,1.369
71.6898,1.2578
71.6909,1.2494
71.6909,1.2492
71.6917,1.2522
71.6917,1.3049
71.6927,1.5203
71.6927,2.0035
71.6975,2.2028
71.6985,2.3303
71.6985,2.3378
71.6985,2.0429
71.7045,1.7997
71.7055,1.5443
71.7055,1.3223
71.7064,1.2488
71.7064,1.2488
71.7106,1.2484
71.7114,1.2497
71.7114,1.4453
71.7125,1.6887
71.7177,1.9232
71.7177,2.2594
71.7188,2.2733
71.7188,2.1441
71.7198,1.9658
71.7243,1.4687
71.7243,1.2859
71.7253,1.2501
71.7253,1.2484
71.7263,1.2486
71.7313,1.2484
71.7313,1.2539
71.7323,1.3444
71.7323,1.8218
71.7385,2.0367
71.7396,2.1828
71.7396,2.2094
71.7396,1.9291
71.7406,1.6917
71.7448,1.4256
71.7459,1.2494
71.7459,1.2484
71.7459,1.2484
71.7520,1.2484
71.7520,1.2507
71.7530,1.3041
71.7534,1.5094
71.7540,1.756
71.7599,2.131
71.7599,2.1533
71.7609,1.6671
71.7609,1.4159
71.7669,1.2674
71.7809,1.2495
71.7839,1.2486
71.7849,1.2484
71.7849,1.2482
71.7859,1.2497
71.7859,1.4764
71.7859,1.7241
71.7875,1.9381
71.7879,2.0952
71.7879,2.038
71.7889,1.8805
71.7889,1.6416
71.7898,1.2615
71.7898,1.2492
71.7909,1.2482
71.7909,1.2486
71.7909,1.2482
71.7919,1.2492
71.7939,1.2696
71.7950,1.4335
71.7950,1.9009
71.7958,2.0673
71.8011,2.1186
71.8011,2.0209
71.8021,1.6534
71.8021,1.4082
71.8031,1.2657
71.8073,1.2492
71.8081,1.2486
71.8081,1.2484
71.8091,1.2484
71.8145,1.2488
71.8145,1.4294
71.8154,1.6804
71.8154,1.9032
71.8163,2.1353
71.8206,2.059
71.8210,1.9156
71.8210,1.6894
71.8220,1.2734
71.8220,1.2497
71.8280,1.2482
71.8280,1.2484
71.8280,1.2484
71.8290,1.2492
71.8350,1.269
71.8350,1.4312
71.8361,1.9109
71.8361,2.0944
71.8371,2.1548
71.8410,2.0757
71.8420,1.7275
71.8420,1.4693
71.8430,1.281
71.8486,1.2484
71.8486,1.2486
71.8496,1.2484
71.8496,1.2484
71.8506,1.2675
71.8549,1.4346
71.8549,1.6774
71.8559,1.903
71.8569,2.1586
71.8617,2.0875
71.8617,1.9442
71.8627,1.7301
71.8627,1.2887
71.8637,1.2505
71.8680,1.2484
71.8680,1.2484
71.8690,1.2482
71.8690,1.2488
71.8700,1.2645
71.8900,1.4149
71.8930,1.9015
71.8942,2.089
71.8949,2.1732
71.8949,1.9647
71.8959,1.7515
71.8959,1.4929
71.8959,1.2891
71.8969,1.2484
71.8969,1.2484
71.8979,1.2486
71.8979,1.2482
71.8989,1.2582
71.8989,1.3885
71.8999,1.6275
71.8999,1.8668
71.8999,2.1503
71.9009,2.0969
71.9020,1.9636
71.9020,1.7635
71.9030,1.3015
71.9030,1.2514
71.9090,1.2486
71.9090,1.2486
71.9100,1.2484
71.9100,1.2486
71.9110,1.2574
71.9150,1.3744
71.9150,1.8578
71.9161,2.0556
71.9161,2.1582
71.9170,2.0997
71.9220,1.7678
71.9231,1.5233
71.9231,1.303
71.9241,1.2522
71.9295,1.2482
71.9295,1.2484
71.9306,1.2482
71.9306,1.2486
71.9315,1.3667
71.9356,1.6037
71.9367,1.8436
71.9376,2.0417
71.9376,2.113
71.9428,1.9832
71.9436,1.7946
71.9436,1.3253
71.9446,1.2539
71.9446,1.2484
71.9489,1.2486
71.9499,1.2482
71.9499,1.2484
71.9509,1.2565
71.9560,1.3731
71.9560,1.8589
71.9571,2.0603
71.9571,2.1698
71.9580,2.1501
71.9625,1.8351
71.9625,1.5865
71.9635,1.3497
71.9635,1.2554
71.9645,1.2484
71.9695,1.2486
71.9695,1.2482
71.9705,1.2486
71.9705,1.3694
71.9765,1.6065
71.9773,1.8486
71.9773,2.056
71.9783,2.1679
71.9783,2.0404
71.9869,1.8586
72.0008,1.6103
72.0041,1.2593
72.0041,1.249
72.0048,1.2484
72.0048,1.2486
72.0058,1.2484
72.0058,1.2542
72.0068,1.3559
72.0068,1.5833
72.0078,2.0387
72.0078,2.1629
72.0088,2.1588
72.0088,1.8559
72.0098,1.615
72.0098,1.3695
72.0098,1.2578
72.0108,1.2482
72.0108,1.2486
72.0118,1.2482
72.0118,1.2484
72.0128,1.324
72.0128,1.5533
72.0168,1.8016
72.0168,2.0005
72.0168,2.1554
72.0178,2.0521
72.0239,1.8917
72.0248,1.6536
72.0248,1.2651
72.0248,1.249
72.0258,1.2484
72.0300,1.2486
72.0310,1.2486
72.0310,1.2548
72.0320,1.3594
72.0369,1.599
72.0377,2.0826
72.0387,2.2315
72.0387,2.2489
72.0397,2.1471
72.0432,1.7446
72.0432,1.4939
72.0442,1.2949
72.0442,1.2486
72.0507,1.2486
72.0507,1.2484
72.0517,1.2492
72.0517,1.444
72.0527,1.7022
72.0568,1.9521
72.0577,2.1574
72.0577,2.3391
72.0587,2.2383
72.0587,2.0798
72.0637,1.8467
72.0637,1.3909
72.0647,1.2612
72.0647,1.2497
72.0710,1.249
72.0710,1.2512
72.0720,1.2934
72.0720,1.5132
72.0730,1.7641
72.0775,2.2424
72.0785,2.3898
72.0785,2.4179
72.0795,2.1773
72.0846,1.9424
72.0846,1.6889
72.0857,1.4498
72.0857,1.252
72.0866,1.2501
72.0959,1.2497
72.1091,1.2539
72.1119,1.5497
72.1128,1.8021
72.1128,2.0489
72.1138,2.4072
72.1138,2.4438
72.1148,2.3545
72.1148,2.2128
72.1148,1.7341
72.1158,1.507
72.1158,1.2962
72.1168,1.2537
72.1168,1.2501
72.1178,1.2554
72.1178,1.3307
72.1188,1.5623
72.1188,2.0639
72.1198,2.287
72.1207,2.4316
72.1208,2.3939
72.1219,2.2608
72.1219,2.0228
72.1247,1.7663
72.1258,1.315
72.1258,1.255
72.1268,1.2509
72.1321,1.2501
72.1321,1.3135
72.1331,1.5402
72.1331,1.7862
72.1341,2.0314
72.1383,2.4175
72.1383,2.473
72.1391,2.4012
72.1401,2.0312
72.1456,1.7716
72.1456,1.5317
72.1466,1.311
72.1466,1.2509
72.1476,1.2497
72.1518,1.2525
72.1527,1.2934
72.1534,1.7596
72.1537,2.0087
72.1537,2.2276
72.1587,2.3978
72.1587,2.3974
72.1597,2.2544
72.1597,2.0417
72.1660,1.5392
72.1670,1.3244
72.1670,1.2555
72.1680,1.2509
72.1680,1.2522
72.1723,1.2897
72.1733,1.488
72.1733,1.7357
72.1733,2.2084
72.1797,2.3995
72.1797,2.4642
72.1807,2.4006
72.1807,2.0553
72.1817,1.7959
72.1858,1.5546
72.1867,1.3311
72.1867,1.2509
72.1877,1.2501
72.1929,1.2525
72.1929,1.4774
72.1940,1.7331
72.1940,1.9782
72.1950,2.2103
72.2032,2.456
72.2171,2.4093
72.2191,2.2866
72.2202,2.0766
72.2212,1.5885
72.2212,1.3551
72.2221,1.2587
72.2221,1.2512
72.2231,1.2524
72.2231,1.282
72.2231,1.4723
72.2241,1.7228
72.2241,2.2002
72.2251,2.3776
72.2251,2.4597
72.2261,2.2921
72.2261,2.0928
72.2261,1.8451
72.2271,1.602
72.2271,1.2617
72.2281,1.2514
72.2281,1.2507
72.2291,1.2514
72.2334,1.4432
72.2341,1.7012
72.2341,1.9416
72.2351,2.1848
72.2406,2.465
72.2406,2.4265
72.2417,2.2917
72.2417,1.8332
72.2427,1.5962
72.2469,1.3555
72.2469,1.2595
72.2479,1.2505
72.2479,1.2509
72.2489,1.2662
72.2539,1.4114
72.2539,1.9096
72.2549,2.1524
72.2549,2.3466
72.2611,2.4138
72.2611,2.293
72.2622,2.0939
72.2622,1.843
72.2632,1.3658
72.2676,1.26
72.2686,1.2509
72.2686,1.2503
72.2686,1.2614
72.2746,1.3969
72.2746,1.6525
72.2756,1.8992
72.2756,2.3292
72.2766,2.4355
72.2809,2.4184
72.2819,2.2947
72.2819,1.8638
72.2819,1.6165
72.2880,1.3881
72.2880,1.2509
72.2889,1.2505
72.2889,1.2505
72.2899,1.2604
72.2943,1.6292
72.2953,1.8741
72.2953,2.116
72.2963,2.3133
72.2963,2.4113
72.3013,2.2947
72.3013,2.1076
72.3023,1.6174
72.3023,1.3896
72.3125,1.2629
72.3255,1.251
72.3293,1.2497
72.3295,1.258
72.3295,1.3714
72.3305,1.6159
72.3305,2.1087
72.3315,2.3131
72.3315,2.4243
72.3325,2.4246
72.3325,2.1385
72.3335,1.8917
72.3335,1.6285
72.3345,1.398
72.3345,1.2509
72.3355,1.2497
72.3355,1.2495
72.3355,1.3508
72.3365,1.5996
72.3385,1.8447
72.3385,2.0873
72.3395,2.4216
72.3395,2.4331
72.3418,2.3172
72.3425,2.1456
72.3425,1.6414
72.3435,1.4076
72.3435,1.266
72.3484,1.2505
72.3495,1.2497
72.3495,1.2552
72.3495,1.3401
72.3558,1.5764
72.3567,2.0787
72.3567,2.2932
72.3577,2.4106
72.3577,2.3277
72.3626,2.1618
72.3636,1.9212
72.3636,1.6607
72.3636,1.2728
72.3698,1.2514
72.3708,1.2499
72.3708,1.2497
72.3718,1.3274
72.3718,1.569
72.3759,1.8055
72.3769,2.0579
72.3769,2.4123
72.3769,2.4333
72.3830,2.3337
72.3830,1.9412
72.3840,1.6831
72.3840,1.447
72.3850,1.2745
72.3895,1.2499
72.3895,1.2495
72.3905,1.2539
72.3905,1.3079
72.3915,1.7911
72.3965,2.0399
72.3965,2.2559
72.3975,2.4273
72.3975,2.3404
72.4027,2.1758
72.4038,1.9375
72.4038,1.4498
72.4048,1.2728
72.4048,1.2509
72.4099,1.2494
72.4109,1.2524
72.4109,1.2981
72.4109,1.5175
72.4172,1.7727
72.4345,2.2469
72.4375,2.3896
72.4385,2.4293
72.4385,2.1858
72.4394,1.9589
72.4394,1.7029
72.4404,1.4654
72.4404,1.2516
72.4404,1.2497
72.4414,1.2495
72.4414,1.2522
72.4424,1.5008
72.4424,1.7489
72.4434,2.0048
72.4434,2.2218
72.4434,2.4274
72.4444,2.3365
72.4444,2.1873
72.4454,1.7102
72.4454,1.4811
72.4464,1.2837
72.4464,1.2518
72.4514,1.2495
72.4514,1.2518
72.4524,1.2837
72.4524,1.4783
72.4534,1.9761
72.4576,2.1927
72.4584,2.3509
72.4624,2.4074
72.4634,2.1996
72.4644,1.9761
72.4644,1.7127
72.4654,1.2812
72.4654,1.2516
72.4664,1.2495
72.4707,1.2494
72.4717,1.2726
72.4717,1.4644
72.4728,1.7104
72.4779,1.954
72.4782,2.3568
72.4792,2.4214
72.4792,2.3478
72.4802,2.2032
72.4854,1.7339
72.4867,1.4961
72.4875,1.288
72.4875,1.2495
72.4885,1.2492
72.4929,1.2696
72.4934,1.693
72.4934,1.9411
72.4944,2.1683
72.5004,2.3433
72.5004,2.3539
72.5014,2.2159
72.5014,1.9951
72.5024,1.5092
72.5065,1.2994
72.5074,1.2529
72.5074,1.2497
72.5085,1.2507
72.5138,1.2698
72.5138,1.4318
72.5148,1.6821
72.5148,2.1689
72.5158,2.3468
72.5198,2.413
72.5208,2.359
72.5208,2.0162
72.5218,1.7691
72.5273,1.5355
72.5418,1.3116
72.5447,1.2497
72.5457,1.2495
72.5457,1.2503
72.5457,1.2644
72.5467,1.6731
72.5477,1.9148
72.5477,2.1503
72.5487,2.4147
72.5487,2.3828
72.5487,2.2478
72.5497,2.0477
72.5497,1.548
72.5507,1.3204
72.5507,1.2542
72.5517,1.2497
72.5517,1.2501
72.5517,1.2629
72.5537,1.3947
72.5550,1.6487
72.5557,2.1316
72.5557,2.3176
72.5611,2.4003
72.5611,2.2422
72.5621,2.0447
72.5621,1.7956
72.5631,1.5509
72.5674,1.2544
72.5681,1.2495
72.5681,1.2494
72.5691,1.2495
72.5746,1.3767
72.5746,1.63
72.5756,1.8704
72.5756,2.1117
72.5766,2.3856
72.5809,2.3644
72.5809,2.245
72.5820,1.7948
72.5820,1.5497
72.5829,1.3268
72.5879,1.255
72.5889,1.2494
72.5889,1.2492
72.5889,1.2561
72.5950,1.3568
72.5950,1.8505
72.5961,2.0956
72.5961,2.2834
72.5971,2.386
72.6016,2.2534
72.6023,2.0624
72.6023,1.816
72.6033,1.5599
72.6084,1.2565
72.6084,1.2497
72.6095,1.2494
72.6095,1.2494
72.6105,1.3429
72.6147,1.5842
72.6156,1.8256
72.6156,2.2656
72.6166,2.3796
72.6220,2.3759
72.6220,2.2527
72.6228,1.8162
72.6228,1.5747
72.6238,1.335
72.6280,1.2555
72.6280,1.2497
72.6290,1.2494
72.6290,1.254
72.6300,1.3313
72.6520,1.8169
72.6560,2.0635
72.6571,2.2688
72.6580,2.3809
72.6580,2.2679
72.6590,2.0905
72.6600,1.8361
72.6600,1.578
72.6600,1.257
72.6610,1.2495
72.6620,1.2492
72.6620,1.249
72.6629,1.3214
72.6629,1.5582
72.6640,1.801
72.6649,2.2536
72.6659,2.3731
72.6670,2.3815
72.6670,2.2679
72.6679,1.8649
72.6689,1.6122
72.6701,1.3763
72.6709,1.2597
72.6719,1.2494
72.6729,1.2492
72.6739,1.2529
72.6739,1.3178
72.6749,1.7939
72.6749,2.0434
72.6759,2.2514
72.6769,2.3723
72.6779,2.2913
72.6829,2.1179
72.6839,1.8683
72.6839,1.6146
72.6849,1.2617
72.6899,1.2501
72.6909,1.2492
72.6909,1.249
72.6919,1.2989
72.6919,1.524
72.6959,1.7779
72.6959,2.2358
72.6969,2.3667
72.6969,2.3905
72.7031,2.2893
72.7041,1.8932
72.7041,1.6493
72.7051,1.4224
72.7061,1.2683
72.7090,1.2497
72.7101,1.2495
72.7101,1.2533
72.7110,1.315
72.7160,1.8023
72.7170,2.0431
72.7170,2.2309
72.7180,2.3785
72.7190,2.2733
72.7225,2.0958
72.7230,1.8522
72.7241,1.3742
72.7250,1.2569
72.7260,1.2492
72.7300,1.2486
72.7300,1.2494
72.7310,1.2619
72.7310,1.4065
72.7370,1.6497
72.7380,2.1027
72.7390,2.2384
72.7390,2.281
72.7482,2.1814
72.7669,1.7734
72.7669,1.5175
72.7679,1.3064
72.7689,1.2486
72.7739,1.2484
72.7739,1.2484
72.7749,1.2486
72.7759,1.3178
72.7771,1.5458
72.7779,1.783
72.7789,1.9876
72.7799,2.17
72.7810,2.0843
72.7819,1.9234
72.7828,1.6831
72.7838,1.2704
72.7848,1.2492
72.7848,1.2482
72.7868,1.2484
72.7881,1.248
72.7888,1.2492
72.7904,1.2674
72.7908,1.6652
72.7918,1.879
72.7928,2.0264
72.7938,2.0809
72.7938,1.8561
72.7948,1.6371
72.7948,1.3744
72.7948,1.2585
72.7958,1.2484
72.7958,1.2482
72.7968,1.2486
72.7968,1.2484
72.7978,1.2544
72.7978,1.3478
72.7988,1.579
72.7998,1.8021
72.8008,2.0256
72.8008,1.9508
72.8018,1.8074
72.8038,1.575
72.8049,1.2529
72.8058,1.2486
72.8068,1.2486
72.8108,1.2488
72.8118,1.2484
72.8118,1.2484
72.8128,1.2509
72.8138,1.2947
72.8168,1.7256
72.8179,1.8925
72.8198,1.9523
72.8199,1.7369
72.8207,1.5259
72.8247,1.3009
72.8257,1.251
72.8257,1.2484
72.8267,1.249
72.8307,1.2488
72.8317,1.2484
72.8327,1.249
72.8337,1.2649
72.8347,1.4132
72.8377,1.6399
72.8377,1.8854
72.8387,1.8289
72.8387,1.6896
72.8447,1.4633
72.8447,1.2495
72.8457,1.2486
72.8457,1.2486
72.8467,1.249
72.8537,1.2488
72.8626,1.2484
72.8646,1.2484
72.8646,1.2546
72.8656,1.5555
72.8656,1.7369
72.8656,1.801
72.8666,1.7641
72.8666,1.4239
72.8666,1.264
72.8666,1.2488
72.8676,1.2484
72.8676,1.249
72.8676,1.249
72.8706,1.2488
72.8716,1.2484
72.8716,1.2505
72.8716,1.3019
72.8786,1.5008
72.8786,1.7507
72.8786,1.7232
72.8796,1.5972
72.8796,1.393
72.8846,1.2486
72.8846,1.2484
72.8856,1.2486
72.8856,1.249
72.8916,1.249
72.8916,1.2486
72.8926,1.2482
72.8926,1.2501
72.8933,1.4618
72.8980,1.6472
72.8985,1.7266
72.8985,1.6782
72.8985,1.3515
72.9045,1.2548
72.9055,1.2484
72.9055,1.2486
72.9055,1.2492
72.9065,1.2494
72.9115,1.2492
72.9115,1.2486
72.9115,1.2488
72.9125,1.2653
72.9125,1.4127
72.9185,1.6154
72.9185,1.6817
72.9185,1.558
72.9195,1.359
72.9255,1.255
72.9255,1.2486
72.9255,1.2488
72.9265,1.2494
72.9265,1.249
72.9315,1.2488
72.9315,1.2484
72.9324,1.2486
72.9324,1.3825
72.9388,1.5861
72.9388,1.6937
72.9394,1.6806
72.9394,1.3686
72.9394,1.2576
72.9444,1.2486
72.9454,1.249
72.9454,1.2492
72.9464,1.2492
72.9514,1.249
72.9524,1.2488
72.9524,1.2484
72.9534,1.2567
72.9534,1.3664
72.9584,1.5595
72.9584,1.7046
72.9584,1.5869
72.9615,1.4033
72.9693,1.2619
72.9714,1.2486
72.9723,1.2486
72.9723,1.249
72.9727,1.249
72.9727,1.2486
72.9733,1.2482
72.9733,1.2486
72.9733,1.2606
72.9733,1.6015
72.9789,1.7241
72.9793,1.7213
72.9793,1.6069
72.9793,1.2758
72.9853,1.2494
72.9863,1.2484
72.9865,1.2488
72.9865,1.2492
72.9873,1.249
72.9923,1.2488
72.9923,1.2488
72.9923,1.26
72.9933,1.405
72.9993,1.6095
72.9993,1.7521
73.0003,1.6457
73.0003,1.4822
73.0003,1.288
73.0053,1.2484
73.0062,1.2486
73.0062,1.2488
73.0062,1.249
73.0072,1.2488
73.0122,1.2484
73.0132,1.2488
73.0134,1.2632
73.0134,1.6202
73.0198,1.7517
73.0204,1.7689
73.0212,1.6613
73.0212,1.2962
73.0222,1.2505
73.0262,1.2484
73.0262,1.2484
73.0272,1.2492
73.0272,1.249
73.0332,1.2488
73.0332,1.2486
73.0342,1.2578
73.0342,1.3967
73.0352,1.6095
73.0394,1.7597
73.0402,1.6756
73.0402,1.5184
73.0412,1.3092
73.0461,1.2512
73.0461,1.2486
73.0471,1.249
73.0471,1.2492
73.0481,1.2488
73.0521,1.2482
73.0533,1.2488
73.0533,1.2591
73.0541,1.6109
73.0541,1.7657
73.0601,1.8025
73.0601,1.696
73.0611,1.3311
73.0611,1.2524
73.0671,1.2486
73.0671,1.2486
73.0681,1.249
73.0681,1.2492
73.0681,1.2486
73.0761,1.2484
73.0840,1.2576
73.0860,1.3937
73.0865,1.6067
73.0870,1.7573
73.0870,1.7207
73.0880,1.5702
73.0880,1.3446
73.0890,1.2537
73.0890,1.2482
73.0890,1.2486
73.0890,1.2488
73.0900,1.249
73.0930,1.2484
73.0930,1.2486
73.0940,1.2606
73.0940,1.4005
73.0940,1.7624
73.1001,1.8049
73.1001,1.7213
73.1001,1.5728
73.1010,1.2561
73.1010,1.2486
73.1070,1.2484
73.1070,1.2488
73.1070,1.2486
73.1080,1.2486
73.1140,1.2484
73.1140,1.2495
73.1150,1.4618
73.1150,1.6849
73.1150,1.8471
73.1210,1.9219
73.1210,1.7397
73.1210,1.5274
73.1219,1.3037
73.1269,1.2484
73.1269,1.2486
73.1279,1.2486
73.1279,1.2486
73.1279,1.2486
73.1329,1.255
73.1339,1.3632
73.1339,1.6058
73.1339,2.02
73.1399,2.1051
73.1409,2.0477
73.1409,1.9131
73.1409,1.4646
73.1419,1.288
73.1469,1.2503
73.1469,1.2486
73.1479,1.2482
73.1479,1.2482
73.1489,1.2495
73.1539,1.2818
73.1549,1.7327
73.1549,1.9711
73.1558,2.1543
73.1608,2.23
73.1618,2.0543
73.1618,1.8426
73.1618,1.5938
73.1618,1.3688
73.1668,1.2492
73.1678,1.2484
73.1678,1.2484
73.1678,1.2486
73.1738,1.3264
73.1748,1.5651
73.1748,1.813
73.1748,2.0571
73.1758,2.326
73.1818,2.2834
73.1943,2.1513
73.1967,1.6949
73.1967,1.4655
73.1967,1.2795
73.1977,1.2512
73.1977,1.249
73.1977,1.2495
73.1987,1.2589
73.1987,1.3842
73.1987,1.8786
73.1997,2.119
73.1997,2.3076
73.1997,2.3976
73.2007,2.2394
73.2017,2.0316
73.2017,1.7753
73.2017,1.534
73.2077,1.2548
73.2087,1.2497
73.2087,1.2494
73.2098,1.2503
73.2098,1.4164
73.2157,1.6598
73.2167,1.9101
73.2167,2.4381
73.2177,2.4213
73.2228,2.299
73.2237,1.8621
73.2237,1.6212
73.2237,1.3872
73.2237,1.2522
73.2297,1.251
73.2297,1.2525
73.2297,1.2807
73.2297,1.6966
73.2366,1.9469
73.2371,2.191
73.2376,2.3854
73.2376,2.4672
73.2376,2.3487
73.2426,2.1588
73.2436,1.9129
73.2436,1.4335
73.2436,1.2756
73.2436,1.2537
73.2496,1.2516
73.2506,1.2887
73.2506,1.4841
73.2506,1.7352
73.2576,2.2281
73.2576,2.4256
73.2576,2.5383
73.2576,2.516
73.2586,2.2186
73.2636,1.9776
73.2636,1.7286
73.2646,1.4837
73.2646,1.2561
73.2709,1.254
73.2709,1.2559
73.2715,1.2957
73.2715,1.7459
73.2715,2.0016
73.2766,2.2461
73.2775,2.4451
73.2775,2.5366
73.2775,2.4233
73.2836,2.2443
73.2845,1.9945
73.2845,1.5336
73.2845,1.3214
73.2845,1.2587
73.2905,1.257
73.2995,1.3
73.3025,1.4969
73.3025,1.7466
73.3025,2.2341
73.3035,2.44
73.3035,2.5602
73.3035,2.5611
73.3045,2.2549
73.3045,2.0057
73.3054,1.7577
73.3054,1.518
73.3054,1.2585
73.3064,1.2554
73.3104,1.2565
73.3114,1.2876
73.3114,1.7288
73.3124,1.9692
73.3174,2.203
73.3184,2.4012
73.3184,2.5503
73.3194,2.4396
73.3194,2.2728
73.3244,1.78
73.3244,1.5465
73.3254,1.3266
73.3254,1.2595
73.3314,1.2554
73.3314,1.284
73.3324,1.4573
73.3324,1.7091
73.3334,2.2021
73.3379,2.4055
73.3384,2.5392
73.3384,2.5647
73.3394,2.2823
73.3394,2.0397
73.3453,1.7877
73.3453,1.3324
73.3453,1.2589
73.3463,1.2535
73.3524,1.2535
73.3524,1.419
73.3524,1.6733
73.3533,1.9152
73.3533,2.1663
73.3583,2.5364
73.3593,2.5578
73.3593,2.4381
73.3603,2.2788
73.3653,1.7879
73.3663,1.5533
73.3663,1.3244
73.3663,1.2537
73.3673,1.2529
73.3723,1.2674
73.3723,1.3915
73.3733,1.8998
73.3733,2.1582
73.3793,2.3729
73.3793,2.5221
73.3793,2.4344
73.3802,2.2861
73.3802,2.0534
73.3855,1.7931
73.3855,1.3373
73.3862,1.2574
73.3862,1.2531
73.3862,1.2645
73.3922,1.3872
73.3932,1.6294
73.3932,1.8717
73.3932,2.3513
73.4012,2.5098
73.4032,2.5525
73.4122,2.4436
73.4142,2.0626
73.4142,1.8036
73.4142,1.5722
73.4152,1.3437
73.4152,1.2535
73.4152,1.2522
73.4152,1.2627
73.4162,1.6155
73.4162,1.864
73.4162,2.1108
73.4162,2.3303
73.4191,2.5383
73.4202,2.4421
73.4202,2.3013
73.4202,2.0669
73.4268,1.5794
73.4271,1.3452
73.4271,1.258
73.4271,1.2518
73.4271,1.2591
73.4331,1.3461
73.4331,1.5801
73.4331,2.0881
73.4341,2.3112
73.4341,2.4728
73.4401,2.5295
73.4401,2.3035
73.4410,2.0871
73.4411,1.8329
73.4474,1.596
73.4474,1.2599
73.4474,1.2522
73.4481,1.252
73.4481,1.2574
73.4531,1.5717
73.4541,1.8237
73.4541,2.0637
73.4541,2.462
73.4600,2.5311
73.4610,2.4614
73.4610,2.314
73.4621,1.8344
73.4621,1.603
73.4670,1.3662
73.4710,1.2621
73.4710,1.2522
73.4710,1.2582
73.4744,1.3268
73.4744,1.8087
73.4750,2.0652
73.4750,2.2896
73.4750,2.4633
73.4800,2.4721
73.4810,2.3352
73.4810,2.1228
73.4810,1.8651
73.4810,1.3872
73.4880,1.2644
73.4880,1.2529
73.4880,1.2518
73.4880,1.3148
73.4949,1.533
73.4949,1.7896
73.4949,2.2799
73.4959,2.4702
73.4961,2.542
73.5013,2.4751
73.5013,2.1484
73.5019,1.8951
73.5019,1.6476
73.5079,1.4007
73.5079,1.2525
73.5089,1.2516
73.5089,1.255
73.5089,1.3024
73.5169,1.7701
73.5169,2.0258
73.5179,2.2579
73.5249,2.4447
73.5259,2.4773
73.5259,2.3425
73.5269,2.1333
73.5269,1.6427
73.5269,1.4087
73.5279,1.2689
73.5279,1.2527
73.5279,1.2542
73.5279,1.3005
73.5289,1.5124
73.5348,1.7573
73.5348,2.2371
73.5348,2.4342
73.5358,2.5332
73.5418,2.4811
73.5418,2.1483
73.5428,1.9052
73.5428,1.6643
73.5428,1.4217
73.5478,1.2535
73.5488,1.252
73.5488,1.255
73.5488,1.291
73.5548,1.7455
73.5558,1.9817
73.5558,2.2212
73.5558,2.4132
73.5568,2.4886
73.5618,2.3577
73.5618,2.1526
73.5618,1.6583
73.5628,1.4204
73.5687,1.2702
73.5687,1.2525
73.5697,1.2525
73.5697,1.2794
73.5697,1.461
73.5753,1.717
73.5757,2.1964
73.5757,2.3963
73.5757,2.507
73.5757,2.4871
73.5827,2.161
73.5827,1.9064
73.5827,1.6546
73.5837,1.4102
73.5887,1.2522
73.5897,1.2514
73.5897,1.2525
73.5897,1.2728
73.5907,1.7093
73.5957,1.9484
73.5957,2.1888
73.5967,2.4959
73.5967,2.4914
73.6030,2.3566
73.6030,2.1745
73.6037,1.6733
73.6037,1.425
73.6037,1.2704
73.6086,1.2522
73.6096,1.2516
73.6096,1.2651
73.6096,1.4129
73.6156,1.6684
73.6166,2.1586
73.6166,2.3654
73.6166,2.4831
73.6166,2.4779
73.6276,2.1754
73.6286,1.9341
73.6286,1.6844
73.6296,1.443
73.6296,1.2525
73.6296,1.2509
73.6296,1.2516
73.6306,1.264
73.6306,1.6619
73.6366,1.9066
73.6366,2.1494
73.6366,2.4893
73.6376,2.4955
73.6376,2.3845
73.6425,2.209
73.6435,1.693
73.6435,1.4607
73.6435,1.279
73.6495,1.2527
73.6506,1.2514
73.6506,1.2642
73.6506,1.3945
73.6506,1.6326
73.6565,2.1273
73.6565,2.3457
73.6565,2.4798
73.6575,2.4875
73.6635,2.2064
73.6635,1.9703
73.6635,1.7144
73.6645,1.2848
73.6645,1.2535
73.6697,1.2512
73.6697,1.2514
73.6705,1.3611
73.6705,1.6217
73.6705,1.8612
73.6765,2.1063
73.6765,2.4556
73.6775,2.4841
73.6775,2.3751
73.6834,2.2069
73.6844,1.7127
73.6844,1.474
73.6844,1.2837
73.6844,1.2525
73.6904,1.2507
73.6904,1.2578
73.6904,1.3484
73.6904,1.5876
73.6974,2.0894
73.6974,2.3074
73.6974,2.4556
73.6984,2.4796
73.6984,2.2184
73.7037,1.9814
73.7037,1.7234
73.7044,1.2904
73.7044,1.2529
73.7104,1.2503
73.7104,1.2505
73.7114,1.3369
73.7114,1.5837
73.7114,1.8287
73.7173,2.0734
73.7173,2.4438
73.7173,2.4953
73.7183,2.3914
73.7183,2.2345
73.7243,1.7521
73.7243,1.5117
73.7243,1.299
73.7243,1.2533
73.7333,1.2509
73.7413,1.2559
73.7420,1.3334
73.7433,1.572
73.7433,2.0736
73.7433,2.2889
73.7443,2.4481
73.7443,2.3896
73.7448,2.2486
73.7448,2.0264
73.7453,1.7633
73.7453,1.299
73.7453,1.2533
73.7453,1.2505
73.7513,1.2501
73.7513,1.306
73.7513,1.5319
73.7513,1.7836
73.7572,2.0297
73.7582,2.4259
73.7582,2.4846
73.7582,2.3847
73.7592,2.2437
73.7644,1.7624
73.7644,1.5304
73.7652,1.3129
73.7652,1.2552
73.7652,1.2505
73.7712,1.2535
73.7712,1.3037
73.7722,1.5165
73.7722,2.0222
73.7786,2.2566
73.7786,2.4274
73.7792,2.4953
73.7792,2.2836
73.7792,2.0676
73.7852,1.8053
73.7852,1.342
73.7852,1.2593
73.7852,1.2525
73.7912,1.2507
73.7921,1.2801
73.7921,1.4644
73.7921,1.6958
73.7931,1.9474
73.7981,2.3684
73.7981,2.4229
73.7981,2.3271
73.7991,2.1777
73.8053,1.6971
73.8053,1.4528
73.8053,1.2711
73.8061,1.2499
73.8061,1.2486
73.8111,1.2492
73.8121,1.2574
73.8121,1.3688
73.8121,1.8612
73.8121,2.086
73.8181,2.2561
73.8191,2.3333
73.8191,2.1169
73.8191,1.8966
73.8251,1.6426
73.8261,1.402
73.8261,1.2494
73.8261,1.2484
73.8261,1.2486
73.8320,1.251
73.8320,1.2992
73.8320,1.5141
73.8330,1.75
73.8390,2.167
73.8390,2.2576
73.8390,2.1927
73.8400,2.0519
73.8400,1.5959
73.8520,1.3482
73.8540,1.2539
73.8540,1.2488
73.8540,1.2484
73.8540,1.2484
73.8550,1.2494
73.8550,1.267
73.8550,1.6767
73.8550,1.9217
73.8583,2.0986
73.8590,2.1829
73.8590,1.9838
73.8590,1.7832
73.8590,1.5197
73.8659,1.3011
73.8659,1.2486
73.8659,1.2484
73.8659,1.2484
73.8729,1.2482
73.8729,1.255
73.8729,1.3521
73.8729,1.5767
73.8739,1.8092
73.8789,2.0965
73.8789,2.0558
73.8799,1.9336
73.8799,1.4755
73.8859,1.2784
73.8859,1.2499
73.8871,1.2486
73.8879,1.2484
73.8879,1.2486
73.8925,1.2482
73.8929,1.2503
73.8929,1.5042
73.8929,1.7416
73.8989,1.9373
73.8999,2.0376
73.8999,1.8636
73.8999,1.6703
73.9009,1.4198
73.9058,1.2625
73.9058,1.2482
73.9058,1.2484
73.9068,1.2486
73.9068,1.2484
73.9128,1.2494
73.9128,1.2754
73.9128,1.4496
73.9138,1.6891
73.9202,1.9979
73.9202,1.9829
73.9208,1.8458
73.9208,1.6649
73.9208,1.2679
73.9258,1.249
73.9268,1.2482
73.9268,1.2484
73.9268,1.2484
73.9334,1.2484
73.9338,1.2497
73.9338,1.2792
73.9338,1.7117
73.9348,1.9191
73.9407,2.0281
73.9417,2.0226
73.9417,1.7245
73.9417,1.4841
73.9477,1.2482
73.9487,1.248
73.9487,1.2484
73.9487,1.2484
73.9497,1.2494
73.9567,1.2814
73.9620,1.4695
73.9637,1.7099
73.9637,2.0607
73.9637,2.0569
73.9637,1.9379
73.9647,1.5074
73.9647,1.2968
73.9647,1.2505
73.9687,1.2482
73.9687,1.2486
73.9687,1.2486
73.9697,1.2484
73.9697,1.2495
73.9747,1.5021
73.9757,1.7498
73.9757,1.9551
73.9757,2.0873
73.9816,1.9936
73.9827,1.8269
73.9827,1.5897
73.9836,1.3465
73.9836,1.2484
73.9886,1.2484
73.9886,1.2484
73.9886,1.2482
73.9896,1.2527
73.9956,1.341
73.9956,1.5762
73.9956,2.0513
73.9966,2.1927
73.9966,2.2188
74.0016,2.0965
74.0026,1.7037
74.0030,1.4655
74.0030,1.2782
74.0036,1.2499
74.0086,1.2482
74.0096,1.2484
74.0096,1.2488
74.0096,1.2599
74.0165,1.6506
74.0165,1.9099
74.0165,2.1235
74.0165,2.2686
74.0175,2.2111
74.0227,2.0509
74.0227,1.8128
74.0235,1.3487
74.0235,1.2548
74.0295,1.2488
74.0295,1.2484
74.0295,1.2501
74.0305,1.2745
74.0305,1.4657
74.0363,1.7164
74.0365,2.191
74.0365,2.3575
74.0365,2.4048
74.0425,2.2998
74.0435,1.9345
74.0435,1.6731
74.0435,1.4258
74.0445,1.251
74.0495,1.2499
74.0495,1.2495
74.0495,1.2525
74.0505,1.5242
74.0505,1.7689
74.0564,2.0234
74.0564,2.2454
74.0564,2.4636
74.0574,2.3731
74.0644,2.2251
74.0714,1.9966
74.0734,1.5089
74.0734,1.3035
74.0734,1.2537
74.0744,1.2516
74.0744,1.2559
74.0744,1.3347
74.0754,1.5694
74.0764,1.8117
74.0774,2.2827
74.0774,2.4533
74.0774,2.4989
74.0774,2.4048
74.0834,2.0348
74.0834,1.7809
74.0834,1.5435
74.0834,1.2569
74.0903,1.2518
74.0903,1.2514
74.0903,1.2563
74.0903,1.5608
74.0913,1.8079
74.0963,2.0492
74.0973,2.2748
74.0973,2.5126
74.0973,2.4207
74.0973,2.2709
74.1036,2.0444
74.1043,1.5602
74.1043,1.3313
74.1043,1.2565
74.1110,1.2518
74.1113,1.2544
74.1113,1.311
74.1113,1.5276
74.1123,1.7779
74.1173,2.2611
74.1173,2.4391
74.1173,2.5055
74.1183,2.4243
74.1243,2.0643
74.1243,1.8014
74.1243,1.557
74.1253,1.2572
74.1253,1.2512
74.1302,1.2503
74.1312,1.2533
74.1312,1.5034
74.1312,1.7629
74.1372,2.0065
74.1382,2.2294
74.1382,2.498
74.1382,2.4308
74.1392,2.2878
74.1442,2.0697
74.1442,1.5709
74.1442,1.3367
74.1442,1.2563
74.1452,1.2505
74.1512,1.2529
74.1512,1.2876
74.1512,1.483
74.1512,1.7363
74.1582,2.2236
74.1582,2.3939
74.1582,2.4773
74.1592,2.2969
74.1592,2.0888
74.1642,1.8381
74.1651,1.5985
74.1651,1.26
74.1651,1.2507
74.1716,1.2501
74.1721,1.2531
74.1721,1.4839
74.1721,1.7408
74.1721,1.9917
74.1831,2.218
74.1841,2.5056
74.1851,2.4597
74.1851,2.3208
74.1851,2.1085
74.1851,1.6105
74.1851,1.3744
74.1863,1.2619
74.1863,1.2514
74.1911,1.2529
74.1911,1.2829
74.1911,1.4663
74.1921,1.7185
74.1921,2.2094
74.1981,2.4018
74.1981,2.4882
74.1991,2.3238
74.1991,2.1327
74.2051,1.8781
74.2051,1.6266
74.2060,1.2621
74.2060,1.2509
74.2060,1.2497
74.2120,1.2518
74.2120,1.4432
74.2120,1.6975
74.2120,1.9472
74.2190,2.1916
74.2190,2.4895
74.2196,2.4599
74.2200,2.3284
74.2200,2.1344
74.2250,1.6384
74.2250,1.3988
74.2250,1.2636
74.2260,1.2509
74.2320,1.251
74.2320,1.2687
74.2330,1.4237
74.2330,1.6787
74.2330,2.1698
74.2380,2.3699
74.2390,2.4794
74.2390,2.3249
74.2390,2.1379
74.2399,1.8912
74.2449,1.6495
74.2459,1.2675
74.2459,1.251
74.2459,1.2499
74.2529,1.251
74.2529,1.4151
74.2529,1.6688
74.2539,1.9
74.2539,2.1417
74.2589,2.47
74.2589,2.452
74.2599,2.3181
74.2599,1.8908
74.2659,1.6501
74.2659,1.4112
74.2669,1.2659
74.2669,1.2505
74.2669,1.2503
74.2729,1.2597
74.2729,1.378
74.2729,1.876
74.2729,2.1259
74.2798,2.3359
74.2798,2.465
74.2798,2.3346
74.2808,2.149
74.2808,1.9022
74.2878,1.4205
74.2948,1.2704
74.2958,1.2518
74.2968,1.251
74.2968,1.2572
74.2968,1.3579
74.2968,1.603
74.2978,1.8527
74.2978,2.3089
74.2998,2.4454
74.3008,2.4533
74.3008,2.3307
74.3008,1.9172
74.3008,1.663
74.3068,1.4258
74.3068,1.2514
74.3068,1.2505
74.3068,1.2499
74.3138,1.2559
74.3138,1.5882
74.3138,1.8349
74.3147,2.0751
74.3147,2.2825
74.3201,2.4466
74.3207,2.3359
74.3207,2.1674
74.3207,1.9311
74.3267,1.4365
74.3267,1.2717
74.3277,1.251
74.3277,1.2505
74.3277,1.255
74.3337,1.3382
74.3337,1.5769
74.3337,2.0678
74.3347,2.2769
74.3347,2.4184
74.3407,2.4531
74.3407,2.1775
74.3407,1.9439
74.3407,1.6879
74.3477,1.4524
74.3477,1.252
74.3477,1.2503
74.3487,1.2503
74.3487,1.255
74.3541,1.5602
74.3546,1.8109
74.3546,2.0571
74.3546,2.4126
74.3606,2.4612
74.3616,2.3573
74.3616,2.1949
74.3616,1.7057
74.3626,1.4708
74.3676,1.2801
74.3676,1.2524
74.3676,1.2501
74.3686,1.254
74.3746,1.3165
74.3746,1.548
74.3746,2.0494
74.3756,2.2684
74.3756,2.4132
74.3826,2.458
74.3856,2.2156
74.3895,1.9876
74.3915,1.7365
74.3915,1.306
74.3915,1.2548
74.3925,1.2512
74.3925,1.2501
74.3925,1.3101
74.3945,1.5439
74.3955,1.7918
74.3955,2.0384
74.3966,2.4046
74.3966,2.4651
74.4015,2.3736
74.4015,2.2182
74.4025,1.7446
74.4030,1.507
74.4085,1.2951
74.4085,1.2501
74.4085,1.2501
74.4095,1.2535
74.4095,1.2987
74.4145,1.7618
74.4155,2.0172
74.4155,2.2347
74.4155,2.3914
74.4215,2.38
74.4225,2.2311
74.4225,2.0016
74.4225,1.744
74.4225,1.2996
74.4285,1.2529
74.4285,1.2501
74.4285,1.2522
74.4294,1.2874
74.4294,1.4914
74.4354,1.7416
74.4354,2.2126
74.4364,2.3744
74.4364,2.437
74.4424,2.3648
74.4424,2.0048
74.4434,1.7536
74.4434,1.5141
74.4434,1.3058
74.4494,1.2501
74.4494,1.2497
74.4494,1.2518
74.4504,1.2805
74.4564,1.7326
74.4564,1.9733
74.4564,2.2011
74.4574,2.456
74.4574,2.3909
74.4624,2.2503
74.4624,2.0239
74.4634,1.5353
74.4634,1.3193
74.4697,1.2548
74.4697,1.2501
74.4703,1.2514
74.4743,1.2771
74.4743,1.458
74.4753,1.705
74.4763,2.1966
74.4763,2.3633
74.4763,2.4269
74.4763,2.2456
74.4833,2.0365
74.4833,1.7888
74.4833,1.5531
74.4833,1.2555
74.4903,1.2503
74.4903,1.2495
74.4903,1.251
74.4903,1.4552
74.4913,1.7089
74.5012,1.9583
74.5034,2.1863
74.5034,2.4451
74.5042,2.3954
74.5042,2.2653
74.5042,1.8053
74.5042,1.5687
74.5052,1.3397
74.5052,1.2569
74.5102,1.2497
74.5102,1.2516
74.5102,1.2732
74.5102,1.4365
74.5172,1.9302
74.5172,2.1644
74.5172,2.3607
74.5172,2.4548
74.5182,2.2788
74.5232,2.0746
74.5232,1.8231
74.5232,1.3482
74.5242,1.2576
74.5242,1.2503
74.5302,1.2499
74.5302,1.2649
74.5312,1.4149
74.5312,1.6682
74.5372,1.9064
74.5382,2.3528
74.5382,2.4657
74.5382,2.4214
74.5382,2.2789
74.5441,1.8327
74.5441,1.5955
74.5441,1.357
74.5441,1.2503
74.5511,1.2499
74.5511,1.2505
74.5511,1.2638
74.5521,1.6572
74.5521,1.8998
74.5575,2.1443
74.5581,2.3493
74.5581,2.4276
74.5581,2.2921
74.5641,2.1018
74.5641,1.8512
74.5651,1.3662
74.5651,1.2589
74.5651,1.2501
74.5711,1.2495
74.5711,1.2612
74.5711,1.3847
74.5711,1.6307
74.5721,2.1151
74.5780,2.3202
74.5780,2.4334
74.5780,2.4108
74.5790,2.1108
74.5850,1.867
74.5850,1.614
74.5860,1.3735
74.5862,1.2501
74.5862,1.2497
74.5916,1.2499
74.5920,1.2585
74.5920,1.6155
74.5920,1.8552
74.5980,2.1023
74.5990,2.4259
74.5990,2.4205
74.5990,2.3003
74.5990,2.1192
74.6070,1.627
74.6139,1.3915
74.6159,1.26
74.6159,1.2495
74.6159,1.2497
74.6169,1.2565
74.6169,1.3515
74.6169,1.5974
74.6169,2.0929
74.6179,2.2964
74.6179,2.4235
74.6189,2.428
74.6189,2.1254
74.6189,1.8837
74.6249,1.6296
74.6259,1.2615
74.6259,1.2497
74.6259,1.2486
74.6329,1.2494
74.6329,1.3283
74.6329,1.5769
74.6329,1.8154
74.6339,2.0674
74.6391,2.4042
74.6391,2.4147
74.6391,2.2992
74.6399,2.1273
74.6459,1.6334
74.6459,1.4076
74.6469,1.2612
74.6469,1.2486
74.6469,1.2492
74.6518,1.2537
74.6529,1.3142
74.6529,1.7997
74.6529,2.0519
74.6588,2.2566
74.6598,2.3961
74.6598,2.2983
74.6598,2.137
74.6608,1.8991
74.6658,1.6471
74.6658,1.2655
74.6658,1.2499
74.6668,1.2486
74.6668,1.2527
74.6748,1.3105
74.6748,1.7854
74.6748,2.2469
74.6758,2.3959
74.6820,2.4243
74.6820,2.161
74.6828,1.9332
74.6828,1.6746
74.6828,1.4344
74.6882,1.2503
74.6887,1.2488
74.6887,1.2492
74.6887,1.2531
74.6954,1.5349
74.6957,1.7798
74.6957,2.0279
74.6957,2.4061
74.6957,2.4443
74.7017,2.3408
74.7017,2.1858
74.7017,1.6986
74.7027,1.4667
74.7087,1.2773
74.7087,1.2509
74.7087,1.249
74.7097,1.2529
74.7097,1.3022
74.7151,1.518
74.7227,2.0146
74.7237,2.2354
74.7247,2.3965
74.7247,2.4567
74.7247,2.1963
74.7247,1.9761
74.7256,1.7211
74.7256,1.2839
74.7294,1.2516
74.7296,1.2501
74.7296,1.2494
74.7296,1.2854
74.7306,1.4984
74.7356,1.7369
74.7363,1.984
74.7366,2.3819
74.7366,2.4396
74.7426,2.3416
74.7426,2.1923
74.7426,1.7161
74.7436,1.4798
74.7436,1.2816
74.7486,1.2497
74.7496,1.249
74.7496,1.251
74.7496,1.282
74.7563,1.7344
74.7566,1.9789
74.7566,2.194
74.7566,2.3586
74.7566,2.338
74.7626,2.206
74.7626,1.9876
74.7626,1.735
74.7626,1.3043
74.7635,1.2533
74.7697,1.2503
74.7697,1.2505
74.7697,1.2675
74.7705,1.4346
74.7765,1.6941
74.7765,2.1775
74.7775,2.3444
74.7775,2.3965
74.7775,2.3193
74.7825,1.9469
74.7835,1.6924
74.7835,1.4693
74.7845,1.2837
74.7895,1.249
74.7905,1.2486
74.7905,1.2494
74.7905,1.2612
74.7915,1.6429
74.7965,1.8919
74.7965,2.1229
74.7965,2.2915
74.7975,2.2746
74.8034,2.1501
74.8034,1.9274
74.8044,1.4329
74.8044,1.2675
74.8044,1.2499
74.8098,1.2488
74.8098,1.2486
74.8104,1.2529
74.8104,1.3275
74.8104,1.5593
74.8164,2.0477
74.8174,2.2154
74.8174,2.284
74.8174,2.2248
74.8254,1.8696
74.8324,1.6065
74.8334,1.3729
74.8344,1.2593
74.8344,1.2486
74.8344,1.2482
74.8344,1.2482
74.8344,1.2501
74.8354,1.4845
74.8374,1.726
74.8374,1.9547
74.8374,2.1391
74.8374,2.1666
74.8384,2.0262
74.8433,1.8201
74.8433,1.5522
74.8443,1.2527
74.8443,1.2484
74.8503,1.248
74.8503,1.2479
74.8513,1.2488
74.8513,1.2617
74.8513,1.4119
74.8570,1.6643
74.8573,2.0869
74.8573,2.1743
74.8573,2.1239
74.8583,1.9823
74.8643,1.5304
74.8643,1.3105
74.8643,1.2522
74.8643,1.2482
74.8713,1.248
74.8713,1.2484
74.8713,1.2486
74.8713,1.3484
74.8713,1.5889
74.8772,1.8209
74.8772,2.0097
74.8772,2.0727
74.8782,1.9499
74.8842,1.7451
74.8842,1.4869
74.8852,1.2505
74.8852,1.2482
74.8852,1.248
74.8902,1.248
74.8912,1.2484
74.8912,1.2507
74.8912,1.2987
74.8972,1.5047
74.8982,1.9388
74.8982,2.0509
74.8982,2.0179
74.8992,1.8994
74.9042,1.4624
74.9042,1.2779
74.9042,1.2501
74.9052,1.2482
74.9052,1.248
74.9112,1.2482
74.9112,1.2484
74.9112,1.2497
74.9121,1.477
74.9181,1.7192
74.9181,1.9184
74.9191,2.0136
74.9195,1.8925
74.9195,1.7108
74.9241,1.4603
74.9251,1.2501
74.9251,1.248
74.9251,1.2482
74.9311,1.248
74.9321,1.2484
74.9321,1.2492
74.9321,1.2719
74.9321,1.4288
74.9451,1.8822
74.9461,2.0119
74.9471,2.0106
74.9471,1.8981
74.9471,1.4702
74.9471,1.2784
74.9481,1.2497
74.9481,1.248
74.9481,1.248
74.9510,1.2484
74.9510,1.2482
74.9510,1.249
74.9520,1.4235
74.9520,1.6774
74.9580,1.8936
74.9580,2.0228
74.9590,1.9232
74.9590,1.7401
74.9650,1.4798
74.9660,1.2809
74.9661,1.2482
74.9661,1.2482
74.9661,1.248
74.9720,1.2484
74.9720,1.2488
74.9720,1.2681
74.9720,1.4277
74.9790,1.8959
74.9790,2.0376
74.9790,2.0575
74.9800,1.9328
74.9800,1.5051
74.9850,1.2908
74.9850,1.2514
74.9860,1.2482
74.9861,1.248
74.9919,1.2484
74.9919,1.2484
74.9929,1.2488
74.9929,1.4151
74.9929,1.6658
74.9987,1.8839
74.9989,2.0329
74.9989,1.9414
74.9989,1.7792
74.9999,1.5368
75.0059,1.2539
75.0059,1.2484
75.0059,1.2484
75.0059,1.2486
75.0129,1.2484
75.0129,1.2488
75.0129,1.2644
75.0139,1.401
75.0139,1.8782
75.0194,2.0258
75.0199,2.0596
75.0199,1.9542
75.0199,1.558
75.0258,1.323
75.0258,1.2546
75.0268,1.2484
75.0268,1.2486
75.0268,1.2484
75.0318,1.248
75.0328,1.2627
75.0328,1.4054
75.0328,1.6506
75.0398,1.8608
75.0398,2.0774
75.0398,1.9654
75.0398,1.8081
75.0408,1.5779
75.0478,1.2557
75.0518,1.2486
75.0568,1.2484
75.0578,1.2488
75.0578,1.2484
75.0588,1.2484
75.0588,1.2608
75.0588,1.4033
75.0588,1.8961
75.0603,2.0603
75.0603,2.104
75.0608,1.8426
75.0608,1.608
75.0608,1.3559
75.0667,1.2565
75.0667,1.2484
75.0667,1.2484
75.0667,1.2486
75.0737,1.2482
75.0737,1.2606
75.0737,1.4065
75.0747,1.6489
75.0747,1.8792
75.0797,2.0952
75.0797,2.0217
75.0807,1.8781
75.0807,1.6611
75.0869,1.2629
75.0869,1.2488
75.0877,1.2484
75.0877,1.2484
75.0877,1.2482
75.0927,1.2484
75.0937,1.2595
75.0937,1.6418
75.0937,1.8614
75.0947,2.0423
75.1006,2.0986
75.1006,1.9019
75.1006,1.6896
75.1006,1.4288
75.1076,1.2677
75.1076,1.2484
75.1076,1.2484
75.1086,1.2484
75.1086,1.2482
75.1136,1.2589
75.1146,1.3997
75.1146,1.6529
75.1146,2.0577
75.1211,2.1306
75.1216,2.0361
75.1216,1.8897
75.1216,1.4318
75.1216,1.2722
75.1276,1.2497
75.1276,1.2482
75.1276,1.2486
75.1286,1.2482
75.1346,1.2488
75.1346,1.2612
75.1346,1.6433
75.1356,1.8756
75.1356,2.0577
75.1405,2.1252
75.1405,1.9255
75.1415,1.7181
75.1415,1.4582
75.1415,1.2501
75.1475,1.2484
75.1485,1.2486
75.1485,1.2486
75.1485,1.2486
75.1545,1.2593
75.1555,1.3877
75.1555,1.6197
75.1555,2.0477
75.1565,2.1374
75.1675,2.0813
75.1680,1.9444
75.1696,1.4849
75.1696,1.2795
75.1696,1.2495
75.1705,1.2484
75.1705,1.2484
75.1705,1.2484
75.1705,1.2484
75.1744,1.2529
75.1744,1.5689
75.1754,1.8008
75.1754,1.9816
75.1814,2.0356
75.1814,1.9156
75.1824,1.7236
75.1824,1.4655
75.1824,1.2499
75.1884,1.2486
75.1884,1.2484
75.1884,1.2486
75.1884,1.2482
75.1895,1.2505
75.1954,1.3092
75.1954,1.5165
75.1954,1.9576
75.1954,2.0622
75.2024,2.0142
75.2027,1.6906
75.2027,1.4342
75.2034,1.2655
75.2034,1.2497
75.2088,1.2486
75.2088,1.2488
75.2094,1.2484
75.2094,1.2482
75.2153,1.2962
75.2163,1.5134
75.2163,1.7461
75.2163,1.9546
75.2163,2.0363
75.2223,1.9189
75.2223,1.7162
75.2223,1.4637
75.2223,1.2499
75.2293,1.2484
75.2293,1.2484
75.2293,1.248
75.2293,1.2482
75.2303,1.2514
75.2353,1.3005
75.2361,1.7582
75.2363,1.963
75.2363,2.0787
75.2363,2.0524
75.2423,1.7099
75.2433,1.4644
75.2433,1.2792
75.2433,1.2509
75.2492,1.2484
75.2502,1.2486
75.2502,1.2484
75.2502,1.248
75.2512,1.3019
75.2562,1.5111
75.2562,1.7543
75.2562,1.945
75.2572,2.0256
75.2632,1.9077
75.2632,1.7421
75.2632,1.3202
75.2642,1.2537
75.2642,1.2486
75.2712,1.2482
75.2792,1.2484
75.2812,1.2482
75.2812,1.2497
75.2812,1.2889
75.2812,1.7436
75.2822,1.9429
75.2822,2.0541
75.2828,2.0611
75.2828,1.7671
75.2832,1.5282
75.2832,1.3045
75.2832,1.2524
75.2832,1.2484
75.2901,1.2484
75.2901,1.2484
75.2901,1.2482
75.2901,1.2775
75.2971,1.4547
75.2971,1.7176
75.2971,1.9396
75.2981,2.0894
75.2981,1.9519
75.3032,1.7869
75.3041,1.5578
75.3041,1.2531
75.3041,1.2484
75.3101,1.2484
75.3101,1.2486
75.3111,1.2484
75.3111,1.249
75.3111,1.2666
75.3161,1.4067
75.3171,1.8805
75.3171,2.0067
75.3171,2.0224
75.3231,1.7387
75.3231,1.5077
75.3240,1.2932
75.3240,1.251
75.3240,1.2484
75.3300,1.2486
75.3300,1.2484
75.3300,1.2482
75.3300,1.2615
75.3310,1.3994
75.3370,1.6467
75.3370,1.8642
75.3370,2.0444
75.3380,1.9317
75.3440,1.774
75.3440,1.5345
75.3440,1.2524
75.3450,1.2482
75.3450,1.2484
75.3504,1.248
75.3504,1.2484
75.3510,1.2486
75.3510,1.2627
75.3570,1.4065
75.3580,1.8961
75.3580,2.0577
75.3580,2.092
75.3580,1.9898
75.3639,1.594
75.3639,1.3444
75.3639,1.255
75.3639,1.2482
75.3709,1.2484
75.3709,1.2484
75.3709,1.2482
75.3709,1.2629
75.3719,1.4155
75.3769,1.6664
75.3769,1.8782
75.3779,2.0736
75.3779,1.9711
75.3779,1.816
75.3839,1.6058
75.3849,1.2587
75.3849,1.2488
75.3849,1.2482
75.3909,1.2482
75.3919,1.2482
75.3919,1.2488
75.3919,1.2677
75.3919,1.6681
75.3988,1.8844
75.3998,2.0468
75.3998,2.0888
75.3998,1.8445
75.4058,1.3979
75.4068,1.2494
75.4068,1.2484
75.4068,1.2486
75.4078,1.2484
75.4158,1.249
75.4178,1.2644
75.4178,1.4093
75.4178,1.6544
75.4198,2.0453
75.4198,2.1031
75.4198,2.0117
75.4208,1.8734
75.4208,1.4067
75.4258,1.2642
75.4268,1.2492
75.4268,1.2482
75.4268,1.2484
75.4278,1.2482
75.4328,1.249
75.4338,1.4168
75.4338,1.6701
75.4338,1.8934
75.4407,2.0586
75.4407,2.0547
75.4407,1.9169
75.4407,1.7057
75.4417,1.4481
75.4467,1.2501
75.4467,1.2482
75.4477,1.2484
75.4477,1.2484
75.4539,1.2488
75.4539,1.2621
75.4547,1.4061
75.4547,1.6544
75.4547,2.0476
75.4597,2.1263
75.4607,2.0526
75.4607,1.9253
75.4607,1.4843
75.4667,1.288
75.4677,1.2505
75.4677,1.2482
75.4677,1.248
75.4677,1.2482
75.4736,1.2484
75.4766,1.2593
75.4786,1.6266
75.4866,1.8565
75.4877,2.0359
75.4877,2.0583
75.4886,1.927
75.4886,1.7172
75.4886,1.4661
75.4886,1.2505
75.4896,1.248
75.4896,1.2482
75.4896,1.2482
75.4896,1.2486
75.4940,1.257
75.4940,1.3735
75.4946,1.606
75.4946,2.0354
75.5011,2.1218
75.5011,2.0598
75.5016,1.9276
75.5016,1.4899
75.5016,1.2876
75.5076,1.2509
75.5076,1.2484
75.5076,1.2482
75.5076,1.2482
75.5145,1.2486
75.5145,1.2548
75.5145,1.5964
75.5145,1.8332
75.5155,2.0241
75.5205,2.0798
75.5205,1.9576
75.5215,1.7601
75.5215,1.5044
75.5215,1.252
75.5275,1.2484
75.5275,1.2486
75.5285,1.2486
75.5285,1.2484
75.5345,1.2533
75.5355,1.3425
75.5355,1.5739
75.5360,2.0155
75.5360,2.1243
75.5415,2.0836
75.5415,1.7635
75.5415,1.5257
75.5415,1.3052
75.5485,1.2525
75.5485,1.2482
75.5485,1.2486
75.5494,1.2482
75.5494,1.2486
75.5544,1.3358
75.5554,1.5593
75.5554,1.8062
75.5554,2.0082
75.5614,2.0984
75.5624,1.9746
75.5624,1.7841
75.5624,1.5404
75.5624,1.255
75.5684,1.2488
75.5684,1.2484
75.5684,1.2482
75.5684,1.2484
75.5694,1.2537
75.5754,1.3429
75.5754,1.8044
75.5754,2.0076
75.5754,2.1154
75.5824,2.1109
75.5824,1.8203
75.5824,1.5818
75.5834,1.3422
75.5834,1.2561
75.5913,1.2482
75.5983,1.2484
75.5993,1.2484
75.6003,1.2482
75.6003,1.3292
75.6003,1.5602
75.6003,1.7991
75.6003,2.0003
75.6013,2.1284
75.6023,2.014
75.6023,1.8383
75.6023,1.3566
75.6033,1.257
75.6093,1.2488
75.6093,1.2482
75.6093,1.2482
75.6093,1.2482
75.6103,1.2524
75.6153,1.3221
75.6153,1.7866
75.6163,1.9994
75.6163,2.1192
75.6163,2.1316
75.6227,1.8496
75.6227,1.6114
75.6232,1.3645
75.6232,1.249
75.6292,1.248
75.6302,1.2484
75.6302,1.2484
75.6302,1.2516
75.6312,1.324
75.6362,1.5439
75.6362,1.7777
75.6362,2.1085
75.6372,2.125
75.6432,2.0239
75.6432,1.8563
75.6432,1.3795
75.6442,1.2602
75.6442,1.2488
75.6492,1.2484
75.6492,1.2484
75.6502,1.2484
75.6502,1.2509
75.6562,1.3028
75.6562,1.7757
75.6572,1.9868
75.6572,2.119
75.6572,2.0361
75.6631,1.8895
75.6631,1.6527
75.6631,1.4054
75.6641,1.249
75.6641,1.2484
75.6701,1.2486
75.6701,1.2484
75.6701,1.2503
75.6711,1.296
75.6771,1.5036
75.6771,1.7558
75.6781,2.1211
75.6781,2.1456
75.6781,2.0404
75.6835,1.8886
75.6841,1.4153
75.6841,1.2677
75.6841,1.2494
75.6901,1.2486
75.6911,1.2482
75.6911,1.2484
75.6911,1.2503
75.6911,1.4997
75.6970,1.7509
75.6970,1.9686
75.6970,2.1108
75.6981,2.0575
75.7080,1.9129
75.7086,1.6913
75.7102,1.4419
75.7102,1.2497
75.7102,1.2484
75.7102,1.2484
75.7110,1.2482
75.7110,1.2501
75.7110,1.2919
75.7110,1.4918
75.7173,1.7406
75.7173,2.1169
75.7180,2.167
75.7180,2.0778
75.7240,1.9249
75.7240,1.4625
75.7250,1.2786
75.7250,1.2497
75.7250,1.2484
75.7306,1.2484
75.7310,1.2484
75.7310,1.2499
75.7310,1.2805
75.7369,1.7196
75.7379,1.9476
75.7379,2.1168
75.7379,2.173
75.7389,1.9463
75.7439,1.7267
75.7439,1.4798
75.7449,1.2505
75.7449,1.2482
75.7509,1.2486
75.7509,1.2484
75.7519,1.2497
75.7519,1.2777
75.7519,1.4629
75.7569,1.7048
75.7569,2.1222
75.7579,2.188
75.7579,2.0956
75.7579,1.9577
75.7639,1.491
75.7649,1.2927
75.7649,1.2509
75.7649,1.2484
75.7709,1.2482
75.7718,1.2482
75.7718,1.2495
75.7718,1.2765
75.7718,1.7072
75.7779,1.9399
75.7779,2.1177
75.7779,2.1934
75.7788,1.9739
75.7848,1.7627
75.7848,1.5137
75.7848,1.3034
75.7848,1.2486
75.7860,1.2486
75.7908,1.2484
75.7908,1.2482
75.7918,1.272
75.7918,1.4541
75.7978,1.693
75.7978,1.9216
75.7988,2.1876
75.7988,2.1282
75.7988,2.002
75.8045,1.5452
75.8048,1.3264
75.8048,1.2522
75.8048,1.2484
75.8058,1.248
75.8128,1.2482
75.8193,1.2494
75.8207,1.2713
75.8207,1.6795
75.8207,1.9217
75.8207,2.107
75.8217,2.1968
75.8217,2.0176
75.8217,1.819
75.8247,1.5704
75.8247,1.3409
75.8257,1.2486
75.8257,1.2479
75.8320,1.248
75.8320,1.2482
75.8327,1.2666
75.8327,1.4404
75.8327,1.6774
75.8383,1.9109
75.8387,2.1989
75.8387,2.1584
75.8387,2.0352
75.8454,1.8376
75.8457,1.3652
75.8457,1.2569
75.8457,1.2488
75.8466,1.248
75.8516,1.2482
75.8516,1.2492
75.8516,1.2662
75.8526,1.657
75.8526,1.8953
75.8588,2.0922
75.8588,2.1978
75.8588,2.0506
75.8596,1.8632
75.8656,1.6118
75.8656,1.3742
75.8666,1.2492
75.8666,1.2488
75.8666,1.2488
75.8716,1.2482
75.8726,1.2619
75.8726,1.4159
75.8726,1.6444
75.8786,1.8816
75.8796,2.2036
75.8796,2.1779
75.8796,2.0521
75.8806,1.8707
75.8855,1.3881
75.8860,1.2614
75.8865,1.2492
75.8865,1.2488
75.8925,1.2482
75.8925,1.2492
75.8925,1.2629
75.8925,1.6463
75.8935,1.8908
75.8985,2.0832
75.8995,2.1923
75.8995,2.0663
75.8995,1.8961
75.8995,1.6433
75.9055,1.4003
75.9065,1.2495
75.9065,1.2484
75.9065,1.2484
75.9125,1.2482
75.9135,1.2584
75.9135,1.3889
75.9135,1.6257
75.9135,1.8711
75.9215,2.1994
75.9294,2.2114
75.9314,2.1156
75.9314,1.9422
75.9314,1.4549
75.9314,1.2775
75.9324,1.2499
75.9327,1.2484
75.9327,1.2484
75.9327,1.2492
75.9334,1.2645
75.9334,1.4189
75.9334,1.9167
75.9399,2.1173
75.9399,2.2383
75.9404,2.1314
75.9404,1.9641
75.9404,1.7294
75.9454,1.4877
75.9464,1.2507
75.9464,1.2484
75.9464,1.2486
75.9474,1.2482
75.9534,1.261
75.9534,1.4166
75.9534,1.6536
75.9544,1.8949
75.9603,2.2429
75.9603,2.257
75.9603,2.1462
75.9613,1.9834
75.9613,1.5032
75.9663,1.3022
75.9663,1.2514
75.9674,1.2484
75.9674,1.2482
75.9733,1.249
75.9733,1.2612
75.9743,1.3992
75.9743,1.8867
75.9743,2.0974
75.9793,2.2349
75.9803,2.2591
75.9803,2.0016
75.9803,1.7734
75.9870,1.519
75.9873,1.2522
75.9873,1.2488
75.9873,1.2484
75.9883,1.2484
75.9933,1.2585
75.9933,1.3819
75.9933,1.6197
75.9943,1.8636
75.9943,2.2326
76.0002,2.2733
76.0002,2.1616
76.0002,2.0078
76.0012,1.5274
76.0072,1.3124
76.0072,1.2518
76.0082,1.2486
76.0082,1.2484
76.0082,1.2488
76.0132,1.2574
76.0142,1.3712
76.0142,1.8661
76.0142,2.0823
76.0209,2.2403
76.0212,2.2763
76.0212,2.0237
76.0212,1.8055
76.0212,1.5518
76.0272,1.3362
76.0272,1.2488
76.0272,1.2484
76.0272,1.2484
76.0342,1.249
76.0401,1.3669
76.0411,1.6073
76.0411,1.8619
76.0421,2.2426
76.0421,2.2924
76.0421,2.1931
76.0421,2.0326
76.0431,1.5737
76.0431,1.3519
76.0476,1.2548
76.0481,1.249
76.0481,1.2484
76.0481,1.2488
76.0541,1.2552
76.0551,1.3542
76.0551,1.84
76.0551,2.0659
76.0561,2.2291
76.0611,2.2789
76.0611,2.0492
76.0611,1.8362
76.0611,1.5848
76.0681,1.3587
76.0681,1.249
76.0681,1.2486
76.0691,1.2484
76.0693,1.2488
76.0740,1.3448
76.0740,1.5825
76.0750,1.8272
76.0750,2.0579
76.0810,2.2923
76.0810,2.2088
76.0820,2.0646
76.0820,1.606
76.0820,1.3832
76.0877,1.258
76.0880,1.249
76.0880,1.2484
76.0880,1.2488
76.0890,1.254
76.0950,1.3382
76.0950,1.8194
76.0950,2.0346
76.0950,2.2126
76.1020,2.2958
76.1020,2.0879
76.1020,1.8816
76.1030,1.6287
76.1030,1.3877
76.1080,1.249
76.1080,1.2482
76.1089,1.2482
76.1089,1.2484
76.1149,1.3249
76.1149,1.5644
76.1159,1.8042
76.1159,2.0277
76.1159,2.2855
76.1209,2.2293
76.1219,2.0946
76.1219,1.6371
76.1219,1.4039
76.1299,1.2614
76.1299,1.2494
76.1309,1.2486
76.1309,1.2525
76.1309,1.3232
76.1359,1.7952
76.1369,2.0367
76.1369,2.2236
76.1369,2.2662
76.1369,2.1273
76.1518,1.9064
76.1528,1.6514
76.1538,1.2617
76.1538,1.249
76.1538,1.2479
76.1548,1.248
76.1548,1.2507
76.1548,1.2959
76.1548,1.5156
76.1568,1.7389
76.1568,2.1529
76.1579,2.2501
76.1579,2.2015
76.1641,2.0802
76.1641,1.6367
76.1648,1.3962
76.1648,1.2621
76.1648,1.248
76.1708,1.248
76.1708,1.2482
76.1708,1.2503
76.1708,1.4909
76.1778,1.7365
76.1778,1.9716
76.1778,2.1612
76.1778,2.2203
76.1788,2.0943
76.1837,1.9021
76.1837,1.6562
76.1837,1.2694
76.1847,1.2494
76.1847,1.2479
76.1911,1.2479
76.1911,1.2499
76.1917,1.2771
76.1917,1.465
76.1977,1.7078
76.1987,2.1468
76.1987,2.2495
76.1987,2.2184
76.1987,1.9043
76.2047,1.6615
76.2047,1.4316
76.2047,1.2698
76.2047,1.248
76.2117,1.248
76.2117,1.2484
76.2117,1.2495
76.2117,1.4466
76.2117,1.6909
76.2177,1.9366
76.2177,2.1288
76.2177,2.2131
76.2187,2.0946
76.2250,1.9184
76.2250,1.6724
76.2256,1.2747
76.2256,1.2497
76.2256,1.2479
76.2306,1.2479
76.2316,1.2492
76.2316,1.2683
76.2316,1.432
76.2326,1.6697
76.2386,2.1274
76.2386,2.2514
76.2386,2.2362
76.2386,1.9538
76.2456,1.7157
76.2456,1.4685
76.2456,1.2831
76.2456,1.2486
76.2466,1.248
76.2516,1.2482
76.2516,1.2494
76.2526,1.4234
76.2526,1.6742
76.2625,1.9214
76.2635,2.122
76.2645,2.245
76.2653,2.1346
76.2655,1.9632
76.2655,1.4879
76.2655,1.2955
76.2655,1.2509
76.2665,1.2488
76.2725,1.2484
76.2725,1.2492
76.2725,1.2644
76.2725,1.4175
76.2735,1.9105
76.2785,2.1214
76.2785,2.2564
76.2795,2.2677
76.2795,1.9883
76.2795,1.7489
76.2859,1.5049
76.2865,1.2516
76.2865,1.2488
76.2875,1.249
76.2925,1.2482
76.2935,1.261
76.2935,1.4091
76.2935,1.6491
76.2944,1.8979
76.2995,2.2518
76.2995,2.2733
76.2995,2.1591
76.3004,1.9904
76.3064,1.5156
76.3064,1.3127
76.3064,1.2525
76.3074,1.249
76.3074,1.2484
76.3124,1.249
76.3134,1.2612
76.3134,1.6362
76.3134,1.8921
76.3200,2.1036
76.3200,2.2354
76.3204,2.1574
76.3204,2.0063
76.3204,1.7789
76.3264,1.5336
76.3264,1.2537
76.3264,1.2488
76.3274,1.2488
76.3274,1.2482
76.3333,1.2584
76.3333,1.3907
76.3333,1.6217
76.3343,2.0813
76.3403,2.2332
76.3403,2.2671
76.3413,2.1636
76.3413,1.7884
76.3413,1.5439
76.3463,1.3257
76.3474,1.2535
76.3474,1.2484
76.3474,1.2484
76.3539,1.2488
76.3543,1.2557
76.3543,1.5927
76.3543,1.8439
76.3543,2.0629
76.3603,2.2043
76.3603,2.1713
76.3603,2.0339
76.3613,1.8034
76.3673,1.3425
76.3732,1.2539
76.3742,1.2486
76.3752,1.2484
76.3752,1.2486
76.3752,1.2552
76.3752,1.3589
76.3762,1.5897
76.3762,2.0688
76.3762,2.2131
76.3808,2.2653
76.3812,2.1925
76.3812,1.8196
76.3812,1.5803
76.3872,1.356
76.3882,1.249
76.3882,1.2486
76.3882,1.2482
76.3892,1.2488
76.3942,1.3424
76.3942,1.5885
76.3952,1.8361
76.3952,2.0584
76.4012,2.2898
76.4012,2.2096
76.4022,2.0706
76.4022,1.8565
76.4026,1.3836
76.4072,1.258
76.4081,1.249
76.4081,1.2488
76.4081,1.2486
76.4141,1.2544
76.4151,1.348
76.4151,1.8177
76.4151,2.0545
76.4161,2.227
76.4211,2.2977
76.4211,2.0783
76.4211,1.8732
76.4221,1.6274
76.4221,1.3877
76.4281,1.2494
76.4281,1.2488
76.4281,1.2484
76.4291,1.2486
76.4351,1.3399
76.4351,1.5745
76.4361,1.8134
76.4361,2.0393
76.4361,2.2971
76.4411,2.23
76.4421,2.0931
76.4421,1.8902
76.4421,1.396
76.4480,1.261
76.4490,1.2494
76.4490,1.2484
76.4490,1.2486
76.4490,1.2525
76.4550,1.327
76.4550,1.7929
76.4550,2.0312
76.4550,2.2158
76.4620,2.2846
76.4620,2.1063
76.4620,1.9094
76.4630,1.654
76.4630,1.41
76.4682,1.2492
76.4682,1.2486
76.4682,1.2484
76.4690,1.2484
76.4690,1.3114
76.4780,1.5383
76.4889,1.7791
76.4899,2.0093
76.4899,2.2908
76.4910,2.2409
76.4910,2.1145
76.4910,1.9199
76.4910,1.4369
76.4919,1.269
76.4919,1.2495
76.4919,1.248
76.4919,1.2486
76.4929,1.252
76.4959,1.3095
76.4959,1.5278
76.4959,2.0011
76.4959,2.1961
76.4969,2.2913
76.5019,2.1224
76.5027,1.9356
76.5029,1.6864
76.5029,1.456
76.5089,1.2499
76.5089,1.248
76.5099,1.248
76.5099,1.2484
76.5099,1.2962
76.5149,1.515
76.5159,1.7526
76.5159,1.9919
76.5159,2.3074
76.5169,2.2737
76.5225,2.1398
76.5228,1.9525
76.5228,1.4618
76.5228,1.2801
76.5298,1.2501
76.5298,1.2484
76.5298,1.2484
76.5308,1.2507
76.5308,1.291
76.5358,1.4931
76.5358,1.9919
76.5368,2.1822
76.5368,2.2872
76.5428,2.1441
76.5428,1.9669
76.5438,1.7224
76.5438,1.4727
76.5438,1.2512
76.5488,1.2486
76.5498,1.2486
76.5498,1.2482
76.5498,1.2855
76.5558,1.4849
76.5568,1.7189
76.5568,1.9726
76.5568,2.2904
76.5577,2.2722
76.5627,2.1554
76.5627,1.9651
76.5627,1.4828
76.5637,1.2936
76.5637,1.2516
76.5698,1.2492
76.5698,1.2482
76.5698,1.2503
76.5707,1.2777
76.5767,1.467
76.5767,1.951
76.5777,2.1541
76.5777,2.2748
76.5777,2.2752
76.5827,1.9806
76.5857,1.7498
76.5897,1.5081
76.5951,1.2524
76.5966,1.249
76.5966,1.249
76.5966,1.2484
76.5966,1.2734
76.5976,1.4547
76.5976,1.6945
76.5976,1.9366
76.5976,2.263
76.5986,2.2806
76.6036,2.1664
76.6036,1.9919
76.6036,1.5158
76.6036,1.3133
76.6046,1.2527
76.6096,1.249
76.6096,1.2484
76.6106,1.2495
76.6106,1.2689
76.6106,1.4337
76.6166,1.9232
76.6176,2.1366
76.6176,2.2791
76.6176,2.2763
76.6236,2.0101
76.6246,1.7792
76.6246,1.5325
76.6246,1.2535
76.6246,1.249
76.6306,1.2488
76.6306,1.2484
76.6316,1.2657
76.6316,1.4301
76.6376,1.6651
76.6376,1.9109
76.6376,2.2795
76.6385,2.2971
76.6385,2.1869
76.6435,2.0271
76.6435,1.5432
76.6445,1.3285
76.6445,1.2535
76.6505,1.249
76.6505,1.2484
76.6515,1.2494
76.6515,1.2645
76.6515,1.4162
76.6565,1.9092
76.6575,2.1233
76.6575,2.2677
76.6575,2.1869
76.6575,2.0393
76.6645,1.8064
76.6645,1.5516
76.6645,1.2548
76.6645,1.2494
76.6714,1.2488
76.6714,1.2484
76.6714,1.2615
76.6724,1.4142
76.6724,1.6482
76.6774,1.8923
76.6774,2.26
76.6785,2.296
76.6785,2.2011
76.6844,2.053
76.6844,1.5827
76.6854,1.3557
76.6854,1.2557
76.6859,1.2492
76.6904,1.2486
76.6914,1.2492
76.6914,1.2608
76.6914,1.3905
76.6984,1.8809
76.7054,2.1031
76.7075,2.254
76.7075,2.287
76.7075,2.0663
76.7075,1.8428
76.7083,1.599
76.7083,1.3759
76.7083,1.2492
76.7083,1.2484
76.7115,1.2484
76.7115,1.249
76.7115,1.3765
76.7123,1.6266
76.7183,1.879
76.7183,2.2563
76.7193,2.3166
76.7193,2.2221
76.7203,2.0789
76.7249,1.608
76.7253,1.3834
76.7253,1.258
76.7253,1.249
76.7313,1.2484
76.7323,1.2486
76.7323,1.2554
76.7330,1.3592
76.7333,1.8432
76.7383,2.0772
76.7383,2.2416
76.7383,2.3028
76.7393,2.0866
76.7452,1.87
76.7452,1.6219
76.7452,1.3821
76.7462,1.2494
76.7462,1.2488
76.7512,1.2486
76.7512,1.2488
76.7522,1.3401
76.7526,1.5762
76.7526,1.8199
76.7587,2.2326
76.7592,2.3125
76.7592,2.236
76.7592,2.0905
76.7652,1.6362
76.7662,1.399
76.7662,1.2604
76.7662,1.2495
76.7672,1.2486
76.7722,1.2488
76.7722,1.2537
76.7722,1.3365
76.7732,1.8102
76.7792,2.0453
76.7792,2.2296
76.7792,2.308
76.7802,2.1055
76.7802,1.9024
76.7851,1.6536
76.7858,1.4123
76.7861,1.2495
76.7861,1.2486
76.7921,1.2484
76.7921,1.2488
76.7931,1.3245
76.7931,1.5561
76.7931,1.7956
76.7981,2.0348
76.7991,2.3215
76.7991,2.2546
76.7991,2.1181
76.8001,1.9146
76.8121,1.4277
76.8141,1.2659
76.8141,1.2497
76.8141,1.2486
76.8151,1.2488
76.8151,1.2524
76.8151,1.3208
76.8151,1.7858
76.8161,2.0267
76.8192,2.215
76.8192,2.3048
76.8200,2.137
76.8200,1.9354
76.8260,1.6902
76.8260,1.4496
76.8270,1.2495
76.8270,1.2482
76.8270,1.2482
76.8325,1.2486
76.8330,1.308
76.8330,1.5375
76.8330,1.7794
76.8397,2.0207
76.8400,2.3088
76.8400,2.2713
76.8400,2.1402
76.8400,1.945
76.8460,1.4704
76.8460,1.281
76.8460,1.2505
76.8470,1.2486
76.8470,1.2484
76.8540,1.2514
76.8550,1.3009
76.8550,1.5085
76.8550,2.1912
76.8619,2.2938
76.8619,2.1396
76.8619,1.9489
76.8619,1.7061
76.8629,1.4689
76.8679,1.251
76.8679,1.2488
76.8689,1.2488
76.8691,1.2484
76.8749,1.2899
76.8749,1.4991
76.8749,1.7262
76.8759,1.9692
76.8759,2.2861
76.8815,2.2688
76.8819,2.1475
76.8819,1.7213
76.8819,1.4858
76.8886,1.288
76.8889,1.2512
76.8889,1.2486
76.8889,1.2484
76.8889,1.2505
76.8948,1.2855
76.8948,1.7179
76.8948,1.9737
76.8958,2.1777
76.8958,2.2853
76.9018,2.1672
76.9025,1.984
76.9025,1.7333
76.9028,1.3
76.9088,1.2518
76.9088,1.2486
76.9098,1.2486
76.9098,1.2501
76.9098,1.2777
76.9148,1.4715
76.9158,1.7101
76.9158,2.1546
76.9168,2.2731
76.9218,2.2724
76.9228,2.1582
76.9228,1.7498
76.9228,1.4997
76.9228,1.2989
76.9298,1.2514
76.9377,1.2486
76.9387,1.2484
76.9397,1.2497
76.9397,1.2735
76.9397,1.7014
76.9397,1.9467
76.9407,2.1402
76.9407,2.2724
76.9421,2.1754
76.9421,2.0001
76.9427,1.7564
76.9427,1.5171
76.9427,1.252
76.9487,1.2486
76.9497,1.2488
76.9497,1.2497
76.9497,1.2713
76.9557,1.4445
76.9567,1.6851
76.9567,2.1484
76.9567,2.2857
76.9567,2.2868
76.9627,2.1852
76.9627,1.7942
76.9627,1.5484
76.9637,1.3274
76.9698,1.2537
76.9698,1.2488
76.9706,1.2484
76.9706,1.2494
76.9706,1.2689
76.9762,1.6802
76.9766,1.9317
76.9766,2.1439
76.9766,2.3067
76.9826,2.1955
76.9836,2.0357
76.9836,1.8051
76.9836,1.339
76.9836,1.2546
76.9896,1.2488
76.9896,1.249
76.9896,1.2495
76.9906,1.2653
76.9906,1.4217
76.9966,1.6598
76.9966,2.1312
76.9966,2.2896
76.9976,2.3149
77.0039,2.0528
77.0039,1.8331
77.0046,1.5792
77.0046,1.3463
77.0046,1.2492
77.0095,1.2486
77.0105,1.2484
77.0105,1.2494
77.0105,1.4063
77.0165,1.6506
77.0175,1.8949
77.0175,2.1141
77.0175,2.3226
77.0185,2.2225
77.0235,2.0704
77.0235,1.849
77.0235,1.3686
77.0245,1.2569
77.0307,1.2492
77.0307,1.2484
77.0315,1.249
77.0315,1.2597
77.0315,1.3952
77.0370,1.8859
77.0375,2.1029
77.0375,2.2613
77.0375,2.3104
77.0385,2.0828
77.0494,1.8589
77.0514,1.6043
77.0520,1.3735
77.0524,1.2488
77.0524,1.248
77.0524,1.248
77.0534,1.258
77.0534,1.3795
77.0534,1.6199
77.0574,1.8677
77.0574,2.2553
77.0574,2.3125
77.0584,2.2287
77.0644,2.0903
77.0644,1.6197
77.0654,1.3994
77.0654,1.2606
77.0654,1.2492
77.0704,1.2482
77.0714,1.249
77.0714,1.2567
77.0714,1.3656
77.0774,1.8574
77.0784,2.0841
77.0784,2.2489
77.0784,2.2311
77.0794,2.0991
77.0843,1.8846
77.0843,1.6319
77.0843,1.2617
77.0853,1.2494
77.0853,1.248
77.0913,1.2484
77.0913,1.2555
77.0913,1.3587
77.0923,1.5914
77.0983,1.8359
77.0993,2.2456
77.0993,2.3144
77.0993,2.2354
77.0993,1.897
77.1053,1.6538
77.1053,1.4219
77.1053,1.264
77.1053,1.249
77.1123,1.2484
77.1123,1.2488
77.1123,1.2544
77.1133,1.5777
77.1133,1.8263
77.1182,2.0504
77.1191,2.2296
77.1192,2.2484
77.1192,2.116
77.1252,1.9109
77.1252,1.4286
