4.6368,2.0828
4.6498,2.1147
4.6508,1.9208
4.6508,1.7339
4.6538,1.5248
4.6548,1.2582
4.6558,1.2495
4.6558,1.249
4.6568,1.2488
4.6568,1.2612
4.6568,1.381
4.6578,1.5786
4.6578,1.7759
4.6588,2.0718
4.6588,2.1154
4.6598,2.0457
4.6598,1.9251
4.6607,1.5293
4.6607,1.3517
4.6607,1.2599
4.6617,1.2501
4.6629,1.2484
4.6637,1.2497
4.6637,1.2612
4.6647,1.3709
4.6647,1.7779
4.6657,1.9557
4.6657,2.083
4.6657,2.0613
4.6697,1.9497
4.6697,1.7601
4.6709,1.5415
4.6718,1.2608
4.6728,1.2495
4.6760,1.2488
4.6770,1.2488
4.6770,1.2602
4.6770,1.362
4.6832,1.5572
4.6832,1.756
4.6841,2.0858
4.6841,2.1303
4.6851,2.0633
4.6895,1.7652
4.6904,1.5582
4.6904,1.36
4.6914,1.2604
4.6965,1.2484
4.6974,1.2484
4.6974,1.2495
4.6984,1.2593
4.6984,1.554
4.7026,1.7537
4.7036,1.9366
4.7036,2.0832
4.7046,2.0813
4.7046,1.9643
4.7098,1.7789
4.7106,1.3838
4.7106,1.2672
4.7116,1.251
4.7168,1.249
4.7179,1.2499
4.7185,1.2597
4.7189,1.3645
4.7189,1.5574
4.7233,1.9439
4.7243,2.0802
4.7251,2.14
4.7251,2.0926
4.7309,1.8143
4.7309,1.5938
4.7319,1.4059
4.7319,1.251
4.7319,1.2492
4.7395,1.2486
4.7533,1.2499
4.7542,1.3476
4.7572,1.5479
4.7572,1.7476
4.7582,1.9332
4.7582,2.149
4.7592,2.1078
4.7592,1.9997
4.7602,1.8166
4.7602,1.4104
4.7602,1.2735
4.7612,1.2516
4.7622,1.2492
4.7622,1.2495
4.7632,1.2572
4.7632,1.3437
4.7642,1.7346
4.7645,1.9191
4.7645,2.0697
4.7652,2.1381
4.7652,2.0012
4.7664,1.8269
4.7705,1.6154
4.7716,1.4217
4.7716,1.2514
4.7725,1.249
4.7780,1.2486
4.7790,1.2492
4.7790,1.3287
4.7802,1.527
4.7811,1.7249
4.7843,2.0684
4.7850,2.1468
4.7850,2.1063
4.7861,2.0052
4.7915,1.6229
4.7922,1.4243
4.7922,1.2764
4.7933,1.2514
4.7933,1.2484
4.7978,1.2494
4.7978,1.255
4.7988,1.3208
4.7997,1.7166
4.7997,1.9
4.8049,2.0538
4.8057,2.1038
4.8057,2.0101
4.8067,1.8456
4.8124,1.632
4.8126,1.285
4.8134,1.2527
4.8134,1.2494
4.8146,1.249
4.8185,1.2546
4.8195,1.3116
4.8195,1.5027
4.8205,1.6982
4.8257,2.0596
4.8257,2.1453
4.8267,2.1169
4.8267,1.8614
4.8277,1.6555
4.8318,1.4595
4.8318,1.2919
4.8328,1.2494
4.8338,1.249
4.8388,1.2495
4.8398,1.2548
4.8398,1.4961
4.8408,1.6913
4.8408,1.8818
4.8460,2.0431
4.8528,2.1154
4.8703,2.0187
4.8728,1.8634
4.8742,1.4558
4.8748,1.2938
4.8748,1.2535
4.8758,1.2495
4.8758,1.249
4.8768,1.2527
4.8768,1.3005
4.8768,1.4785
4.8778,1.8732
4.8778,2.0429
4.8798,2.1276
4.8808,2.1139
4.8808,1.8739
4.8817,1.6696
4.8817,1.4727
4.8828,1.2542
4.8828,1.2494
4.8838,1.249
4.8838,1.2492
4.8848,1.2964
4.8848,1.4854
4.8848,1.6795
4.8857,1.8676
4.8857,2.1295
4.8868,2.1273
4.8868,2.0369
4.8878,1.8848
4.8878,1.4894
4.8927,1.3122
4.8938,1.2542
4.8938,1.2486
4.8938,1.249
4.8949,1.2524
4.8998,1.2989
4.9008,1.6664
4.9008,1.867
4.9008,2.0348
4.9071,2.1258
4.9078,2.0401
4.9078,1.9043
4.9089,1.7009
4.9089,1.4914
4.9138,1.2563
4.9138,1.2494
4.9148,1.2488
4.9148,1.252
4.9205,1.2895
4.9205,1.4676
4.9215,1.6568
4.9215,2.0286
4.9225,2.1374
4.9269,2.1466
4.9274,2.0571
4.9274,1.7125
4.9284,1.5072
4.9337,1.3212
4.9347,1.2567
4.9347,1.2486
4.9347,1.249
4.9357,1.2524
4.9408,1.4526
4.9417,1.6467
4.9417,1.8471
4.9437,2.0211
4.9437,2.1567
4.9477,2.0646
4.9477,1.9204
4.9487,1.7284
4.9487,1.3425
4.9548,1.2593
4.9548,1.2499
4.9599,1.2492
4.9749,1.2524
4.9757,1.2891
4.9777,1.4556
4.9787,1.6448
4.9798,2.0007
4.9798,2.1044
4.9807,2.1323
4.9815,1.9264
4.9817,1.7416
4.9817,1.5242
4.9827,1.3407
4.9827,1.2499
4.9837,1.2494
4.9837,1.2492
4.9837,1.2516
4.9847,1.441
4.9847,1.6433
4.9857,1.8349
4.9857,2.0027
4.9867,2.1533
4.9878,2.0716
4.9887,1.9426
4.9887,1.5405
4.9887,1.3604
4.9897,1.26
4.9947,1.2503
4.9957,1.2488
4.9967,1.2514
4.9977,1.2747
5.0020,1.4232
5.0030,1.8201
5.0031,1.9975
5.0040,2.1207
5.0040,2.1554
5.0084,1.966
5.0090,1.7777
5.0090,1.5623
5.0100,1.2644
5.0157,1.2507
5.0157,1.2492
5.0169,1.2492
5.0169,1.2737
5.0178,1.4301
5.0221,1.6272
5.0228,1.8284
5.0228,2.1325
5.0238,2.1689
5.0289,2.0965
5.0299,1.9727
5.0310,1.5743
5.0310,1.384
5.0319,1.2645
5.0353,1.249
5.0361,1.2488
5.0411,1.2514
5.0421,1.2737
5.0421,1.6247
5.0431,1.8293
5.0431,2.0084
5.0441,2.1318
5.0441,2.0888
5.0493,1.9666
5.0501,1.7751
5.0501,1.5576
5.0511,1.2647
5.0511,1.2507
5.0558,1.2488
5.0565,1.2488
5.0565,1.2655
5.0575,1.38
5.0632,1.5859
5.0642,1.7886
5.0642,2.1048
5.0653,2.1559
5.0701,2.0926
5.0842,1.7828
5.0871,1.5972
5.0871,1.3947
5.0881,1.2677
5.0891,1.2488
5.0891,1.2488
5.0901,1.2649
5.0901,1.603
5.0901,1.8111
5.0911,1.9879
5.0911,2.1704
5.0921,2.1175
5.0921,2.005
5.0931,1.8287
5.0931,1.4239
5.0941,1.2794
5.0941,1.2527
5.0941,1.2503
5.0988,1.251
5.0997,1.2683
5.0997,1.3949
5.0997,1.6
5.1007,1.987
5.1050,2.1228
5.1059,2.1783
5.1059,2.0151
5.1069,1.8484
5.1127,1.639
5.1131,1.4408
5.1141,1.2539
5.1141,1.2497
5.1151,1.2494
5.1191,1.2514
5.1193,1.3975
5.1193,1.612
5.1203,1.8017
5.1255,1.9774
5.1255,2.1865
5.1265,2.1342
5.1265,2.0162
5.1275,1.6264
5.1316,1.4249
5.1325,1.2764
5.1325,1.252
5.1335,1.2486
5.1335,1.2505
5.1385,1.2625
5.1395,1.3697
5.1395,1.7731
5.1405,1.9634
5.1463,2.1134
5.1463,2.1719
5.1473,2.0187
5.1473,1.8481
5.1483,1.6396
5.1524,1.285
5.1535,1.2529
5.1535,1.2497
5.1545,1.2492
5.1599,1.2582
5.1599,1.3474
5.1607,1.5454
5.1607,1.7376
5.1617,2.0781
5.1661,2.1535
5.1677,2.1164
5.1697,2.0138
5.1857,1.6471
5.1887,1.4534
5.1897,1.2842
5.1897,1.2492
5.1907,1.2486
5.1907,1.2497
5.1917,1.258
5.1917,1.5465
5.1917,1.7423
5.1927,1.9337
5.1934,2.0879
5.1937,2.1334
5.1937,2.0241
5.1947,1.8621
5.1947,1.6561
5.1956,1.2914
5.1967,1.2529
5.1967,1.2488
5.1977,1.2488
5.1977,1.2576
5.1997,1.3382
5.2006,1.533
5.2006,1.7269
5.2016,2.0853
5.2067,2.1657
5.2067,2.1415
5.2078,2.0468
5.2078,1.6819
5.2088,1.4775
5.2134,1.3011
5.2138,1.2552
5.2138,1.2494
5.2148,1.2499
5.2201,1.2582
5.2201,1.5227
5.2212,1.7192
5.2212,1.9225
5.2222,2.0839
5.2264,2.143
5.2272,2.0517
5.2272,1.8992
5.2282,1.6934
5.2282,1.3105
5.2332,1.2555
5.2342,1.2495
5.2342,1.249
5.2342,1.257
5.2406,1.3373
5.2406,1.5209
5.2416,1.7129
5.2416,2.0794
5.2426,2.17
5.2467,2.1614
5.2476,2.0661
5.2476,1.7099
5.2486,1.5029
5.2540,1.321
5.2546,1.2576
5.2556,1.2495
5.2556,1.2497
5.2566,1.2559
5.2606,1.3236
5.2606,1.7237
5.2606,1.9094
5.2616,2.0607
5.2673,2.1563
5.2673,2.0701
5.2684,1.9236
5.2684,1.7155
5.2694,1.3343
5.2736,1.2585
5.2744,1.2501
5.2744,1.2492
5.2755,1.2548
5.2755,1.3127
5.2807,1.5015
5.2817,1.7026
5.2824,2.0618
5.2824,2.1524
5.2884,2.1456
5.3028,2.0669
5.3054,1.7292
5.3054,1.5244
5.3064,1.3371
5.3064,1.2585
5.3075,1.2494
5.3075,1.2495
5.3084,1.2542
5.3084,1.3095
5.3094,1.6956
5.3094,1.882
5.3104,2.0481
5.3104,2.1693
5.3113,2.0894
5.3113,1.9394
5.3124,1.7339
5.3124,1.3506
5.3147,1.26
5.3154,1.2499
5.3154,1.249
5.3164,1.2531
5.3164,1.2989
5.3209,1.477
5.3219,1.675
5.3219,2.0491
5.3229,2.1604
5.3229,2.1721
5.3279,2.0853
5.3289,1.7545
5.3299,1.5537
5.3310,1.3585
5.3352,1.2505
5.3352,1.2492
5.3362,1.2495
5.3362,1.2546
5.3372,1.4787
5.3419,1.678
5.3419,1.879
5.3429,2.0457
5.3429,2.1807
5.3483,2.0929
5.3491,1.9615
5.3491,1.7701
5.3501,1.3729
5.3501,1.2649
5.3551,1.2512
5.3561,1.2494
5.3561,1.2533
5.3561,1.2915
5.3624,1.4644
5.3624,1.6637
5.3635,2.0397
5.3635,2.1589
5.3644,2.1783
5.3685,2.1014
5.3685,1.7826
5.3695,1.5713
5.3695,1.3778
5.3705,1.251
5.3755,1.2497
5.3755,1.2494
5.3765,1.2524
5.3765,1.4562
5.3827,1.6613
5.3827,1.8582
5.3838,2.0256
5.3838,2.1689
5.3848,2.0995
5.3890,1.9716
5.3898,1.7806
5.3898,1.3892
5.3908,1.2674
5.3979,1.2512
5.4121,1.2494
5.4152,1.2518
5.4161,1.2799
5.4161,1.4329
5.4171,1.8353
5.4171,2.0095
5.4181,2.1198
5.4181,2.155
5.4181,1.9741
5.4191,1.7852
5.4191,1.5674
5.4201,1.371
5.4201,1.2507
5.4211,1.2492
5.4211,1.2494
5.4221,1.2722
5.4221,1.4187
5.4231,1.6195
5.4231,1.8205
5.4241,2.1379
5.4241,2.1779
5.4241,2.1019
5.4301,1.9849
5.4301,1.6028
5.4311,1.4134
5.4311,1.273
5.4321,1.2514
5.4364,1.2492
5.4372,1.2516
5.4372,1.2747
5.4383,1.6369
5.4437,1.837
5.4447,2.0166
5.4447,2.1507
5.4457,2.1355
5.4471,2.0284
5.4499,1.8458
5.4508,1.6345
5.4508,1.2895
5.4518,1.2535
5.4571,1.2499
5.4571,1.2499
5.4581,1.2777
5.4581,1.4318
5.4591,1.6397
5.4632,1.837
5.4641,2.1567
5.4641,2.2008
5.4651,2.1417
5.4651,1.8436
5.4700,1.6382
5.4710,1.4477
5.4710,1.2859
5.4721,1.2499
5.4782,1.2495
5.4788,1.252
5.4792,1.2722
5.4792,1.6259
5.4802,1.8246
5.4840,2.0035
5.4850,2.1419
5.4850,2.1552
5.4860,2.0457
5.4912,1.864
5.4912,1.4605
5.4923,1.2951
5.4923,1.2544
5.4933,1.2505
5.4974,1.252
5.4984,1.2694
5.4984,1.4076
5.4994,1.6178
5.5053,1.9943
5.5204,2.1321
5.5232,2.1874
5.5232,2.0446
5.5242,1.8743
5.5242,1.6671
5.5252,1.4699
5.5252,1.2544
5.5262,1.2501
5.5262,1.2497
5.5262,1.2514
5.5272,1.3932
5.5272,1.5897
5.5282,1.7794
5.5290,1.9591
5.5292,2.1711
5.5302,2.1258
5.5302,2.0183
5.5302,1.8464
5.5314,1.4504
5.5314,1.2855
5.5322,1.2529
5.5322,1.2492
5.5387,1.2503
5.5394,1.2627
5.5394,1.3643
5.5404,1.7582
5.5404,1.9467
5.5447,2.1104
5.5457,2.185
5.5468,2.0489
5.5477,1.8807
5.5518,1.6718
5.5527,1.4759
5.5527,1.2557
5.5527,1.2503
5.5537,1.2497
5.5584,1.2619
5.5584,1.374
5.5594,1.5848
5.5594,1.7821
5.5604,2.1278
5.5655,2.209
5.5655,2.1696
5.5664,2.0682
5.5664,1.6934
5.5728,1.4999
5.5737,1.3154
5.5737,1.2565
5.5737,1.2497
5.5747,1.2522
5.5786,1.2702
5.5797,1.6047
5.5797,1.8057
5.5807,1.9951
5.5864,2.1556
5.5864,2.2199
5.5874,2.1192
5.5874,1.9547
5.5884,1.7498
5.5924,1.3752
5.5933,1.269
5.5933,1.2531
5.5943,1.2518
5.5996,1.2769
5.5996,1.4265
5.6006,1.6305
5.6006,2.0374
5.6016,2.1994
5.6060,2.2733
5.6068,2.2654
5.6068,2.0247
5.6078,1.8196
5.6078,1.6172
5.6288,1.4305
5.6318,1.2578
5.6318,1.2546
5.6328,1.2585
5.6328,1.297
5.6338,1.6756
5.6338,1.8809
5.6348,2.0845
5.6348,2.3313
5.6358,2.3239
5.6358,2.2381
5.6358,2.0916
5.6368,1.6868
5.6368,1.4933
5.6378,1.3281
5.6378,1.2672
5.6388,1.2705
5.6388,1.341
5.6397,1.5162
5.6397,1.7311
5.6408,2.1344
5.6408,2.3065
5.6468,2.4072
5.6478,2.3228
5.6478,2.1636
5.6478,1.9499
5.6488,1.7502
5.6534,1.3997
5.6534,1.2968
5.6544,1.2747
5.6544,1.2921
5.6554,1.5707
5.6604,1.7821
5.6604,1.9791
5.6614,2.1843
5.6624,2.4479
5.6679,2.4464
5.6684,2.3594
5.6694,2.0155
5.6694,1.8164
5.6694,1.6337
5.6737,1.4511
5.6747,1.2949
5.6747,1.3334
5.6757,1.4318
5.6813,1.6129
5.6813,2.0264
5.6823,2.2225
5.6823,2.3961
5.6833,2.5006
5.6876,2.4349
5.6876,2.3044
5.6886,2.1038
5.6886,1.6956
5.6948,1.521
5.6954,1.3924
5.6959,1.3444
5.6959,1.4699
5.6969,1.6512
5.7011,1.8563
5.7021,2.0566
5.7021,2.4374
5.7021,2.5486
5.7031,2.5563
5.7080,2.3303
5.7080,2.1306
5.7091,1.9187
5.7091,1.7374
5.7152,1.4307
5.7152,1.3859
5.7162,1.3956
5.7162,1.4922
5.7172,1.8616
5.7261,2.0543
5.7401,2.2564
5.7431,2.4258
5.7431,2.5623
5.7441,2.4736
5.7441,2.3341
5.7451,1.9356
5.7462,1.7455
5.7462,1.5548
5.7471,1.4134
5.7471,1.3943
5.7481,1.4989
5.7485,1.6439
5.7491,1.8475
5.7491,2.2566
5.7491,2.4289
5.7501,2.5471
5.7511,2.5853
5.7511,2.3639
5.7511,2.1591
5.7521,1.951
5.7521,1.5773
5.7531,1.443
5.7551,1.3697
5.7561,1.3735
5.7561,1.6367
5.7571,1.8482
5.7631,2.0549
5.7641,2.2448
5.7641,2.5302
5.7652,2.5636
5.7652,2.477
5.7693,2.1402
5.7703,1.9334
5.7703,1.7455
5.7703,1.5604
5.7763,1.3414
5.7763,1.3491
5.7774,1.4264
5.7774,1.5891
5.7784,2.0039
5.7826,2.206
5.7844,2.3783
5.7844,2.4959
5.7844,2.4552
5.7899,2.3343
5.7899,2.1434
5.7909,1.7451
5.7909,1.5529
5.7919,1.398
5.7962,1.3296
5.7971,1.4226
5.7971,1.5764
5.7971,1.7787
5.7981,1.9756
5.8050,2.3569
5.8050,2.4905
5.8061,2.5281
5.8061,2.1629
5.8124,1.9508
5.8124,1.7545
5.8134,1.422
5.8134,1.345
5.8134,1.3403
5.8185,1.5737
5.8195,1.792
5.8195,2.0069
5.8195,2.1927
5.8256,2.4882
5.8256,2.5392
5.8267,2.47
5.8267,2.3575
5.8277,1.9587
5.8346,1.7627
5.8485,1.5692
5.8515,1.4119
5.8524,1.333
5.8525,1.3962
5.8525,1.5368
5.8536,1.9562
5.8536,2.1573
5.8546,2.335
5.8546,2.4747
5.8556,2.4606
5.8556,2.35
5.8556,2.1706
5.8566,1.9628
5.8566,1.5711
5.8576,1.4202
5.8576,1.3371
5.8586,1.323
5.8595,1.5398
5.8595,1.7436
5.8606,1.9474
5.8606,2.1411
5.8616,2.4801
5.8657,2.5416
5.8665,2.4711
5.8665,2.1764
5.8675,1.9656
5.8728,1.7706
5.8728,1.5801
5.8738,1.3268
5.8738,1.333
5.8748,1.4003
5.8791,1.5342
5.8801,1.9229
5.8811,2.1179
5.8811,2.3031
5.8865,2.4531
5.8865,2.4749
5.8876,2.3573
5.8876,2.1829
5.8886,1.7753
5.8928,1.5854
5.8939,1.4224
5.8939,1.3272
5.8939,1.3763
5.8949,1.5077
5.8998,1.6945
5.8998,1.9096
5.9009,2.2966
5.9009,2.4417
5.9073,2.516
5.9073,2.3474
5.9083,2.1708
5.9083,1.9632
5.9093,1.7759
5.9136,1.4179
5.9145,1.3259
5.9145,1.3095
5.9155,1.3682
5.9206,1.7056
5.9206,1.9169
5.9217,2.1016
5.9217,2.2825
5.9227,2.503
5.9270,2.459
5.9270,2.3382
5.9280,2.1601
5.9286,1.7633
5.9340,1.5644
5.9340,1.3943
5.9350,1.2915
5.9350,1.3365
5.9360,1.4575
5.9440,1.6592
5.9589,2.0648
5.9619,2.2551
5.9622,2.4093
5.9629,2.4726
5.9629,2.3485
5.9639,2.179
5.9639,1.9692
5.9649,1.7689
5.9649,1.4025
5.9659,1.3204
5.9659,1.2927
5.9669,1.333
5.9669,1.6493
5.9679,1.8565
5.9679,2.0547
5.9689,2.245
5.9689,2.4811
5.9699,2.4556
5.9699,2.3577
5.9699,1.9851
5.9709,1.7937
5.9709,1.6056
5.9741,1.4344
5.9750,1.2923
5.9750,1.3369
5.9760,1.45
5.9813,1.642
5.9813,2.0432
5.9823,2.2373
5.9823,2.3969
5.9833,2.4835
5.9875,2.3671
5.9886,2.215
5.9886,2.0119
5.9886,1.8066
5.9895,1.4477
5.9945,1.3364
5.9955,1.3045
5.9955,1.3427
5.9965,1.6418
6.0018,1.8447
6.0028,2.0374
6.0028,2.2272
6.0028,2.4603
6.0038,2.4558
6.0082,2.3673
6.0092,2.0054
6.0092,1.7974
6.0092,1.6037
6.0152,1.4348
6.0152,1.2979
6.0163,1.3302
6.0163,1.4329
6.0174,1.6133
6.0216,2.0207
6.0216,2.2084
6.0226,2.3714
6.0226,2.4554
6.0286,2.3678
6.0286,2.2143
6.0297,2.0136
6.0297,1.8083
6.0307,1.4344
6.0349,1.3133
6.0358,1.2908
6.0358,1.4091
6.0368,1.5938
6.0368,1.8006
6.0418,1.9945
6.0468,2.3616
6.0478,2.4597
6.0478,2.4531
6.0498,2.3592
6.0657,2.0144
6.0688,1.8091
6.0688,1.6161
6.0698,1.435
6.0698,1.2972
6.0708,1.3135
6.0708,1.402
6.0717,1.573
6.0717,1.9817
6.0717,2.1805
6.0728,2.3485
6.0728,2.4522
6.0737,2.3708
6.0737,2.2193
6.0747,2.0191
6.0747,1.6225
6.0757,1.4333
6.0757,1.3099
6.0767,1.2835
6.0767,1.374
6.0767,1.5475
6.0777,1.7562
6.0817,1.9606
6.0827,2.3496
6.0827,2.443
6.0837,2.4524
6.0837,2.3723
6.0897,2.0333
6.0897,1.8164
6.0897,1.623
6.0907,1.3049
6.0967,1.2756
6.0967,1.2874
6.0977,1.3665
6.0987,1.7476
6.0987,1.9478
6.1029,2.1387
6.1039,2.2986
6.1039,2.4321
6.1039,2.3581
6.1100,2.2174
6.1100,2.0183
6.1110,1.6277
6.1110,1.4444
6.1120,1.3112
6.1162,1.2822
6.1170,1.354
6.1180,1.5195
6.1180,1.7275
6.1228,2.1289
6.1238,2.3076
6.1248,2.416
6.1248,2.4351
6.1258,2.2302
6.1298,2.0395
6.1307,1.8248
6.1307,1.6328
6.1307,1.3094
6.1317,1.2825
6.1367,1.2923
6.1367,1.3637
6.1377,1.7333
6.1377,1.9324
6.1439,2.1271
6.1449,2.3033
6.1453,2.4514
6.1459,2.3545
6.1459,2.2311
6.1501,1.8304
6.1512,1.6433
6.1512,1.4504
6.1522,1.3084
6.1570,1.2803
6.1580,1.3422
6.1580,1.5044
6.1592,1.7209
6.1771,2.1201
6.1780,2.2949
6.1799,2.4113
6.1809,2.4441
6.1809,2.2459
6.1820,2.0581
6.1820,1.8467
6.1830,1.4586
6.1830,1.324
6.1840,1.2809
6.1840,1.2812
6.1850,1.4959
6.1850,1.7035
6.1860,1.8966
6.1860,2.0875
6.1870,2.3967
6.1870,2.4488
6.1870,2.3763
6.1880,2.2418
6.1911,1.8572
6.1919,1.6624
6.1919,1.4715
6.1929,1.2782
6.1929,1.2857
6.1978,1.3485
6.1987,1.498
6.1987,1.9242
6.1997,2.1303
6.2050,2.2863
6.2050,2.3903
6.2060,2.326
6.2060,2.2026
6.2070,2.0067
6.2113,1.8061
6.2122,1.4217
6.2136,1.2865
6.2142,1.2604
6.2184,1.2709
6.2192,1.3712
6.2192,1.5702
6.2192,1.7717
6.2202,2.1681
6.2244,2.2964
6.2255,2.3346
6.2255,2.2728
6.2255,1.9628
6.2265,1.7423
6.2315,1.5372
6.2324,1.345
6.2324,1.2537
6.2335,1.2525
6.2388,1.2584
6.2398,1.4933
6.2398,1.705
6.2398,1.8919
6.2408,2.056
6.2457,2.2486
6.2457,2.1951
6.2467,2.0783
6.2467,1.9056
6.2524,1.4869
6.2527,1.3095
6.2537,1.2552
6.2537,1.2512
6.2547,1.2516
6.2587,1.2737
6.2597,1.4132
6.2607,1.6144
6.2617,1.9883
6.2660,2.1233
6.2667,2.1809
6.2667,2.026
6.2678,1.8421
6.2877,1.6214
6.2888,1.4275
6.2917,1.2524
6.2917,1.2495
6.2927,1.249
6.2927,1.2497
6.2927,1.3551
6.2937,1.5516
6.2937,1.7412
6.2947,1.9246
6.2954,2.1492
6.2957,2.0952
6.2967,1.9765
6.2977,1.5968
6.2977,1.4093
6.2988,1.2681
6.2988,1.2507
6.2997,1.2486
6.2997,1.2494
6.3007,1.2563
6.3007,1.3369
6.3017,1.738
6.3017,1.9328
6.3027,2.0813
6.3059,2.1484
6.3070,2.0041
6.3070,1.8321
6.3080,1.6172
6.3133,1.275
6.3133,1.2514
6.3142,1.2492
6.3142,1.2486
6.3152,1.2546
6.3199,1.3245
6.3199,1.5165
6.3209,1.7192
6.3209,2.059
6.3219,2.1331
6.3268,2.1033
6.3268,1.9999
6.3278,1.6185
6.3278,1.422
6.3342,1.2769
6.3342,1.2516
6.3351,1.2488
6.3351,1.2492
6.3361,1.2552
6.3402,1.498
6.3412,1.6977
6.3412,1.8916
6.3422,2.0432
6.3474,2.0941
6.3481,2.0014
6.3481,1.8338
6.3492,1.636
6.3492,1.2865
6.3540,1.2524
6.3540,1.2494
6.3550,1.2488
6.3550,1.2537
6.3610,1.3144
6.3610,1.5004
6.3620,1.8848
6.3620,2.0558
6.3631,2.1331
6.3673,2.113
6.3683,1.8572
6.3683,1.6574
6.3683,1.4547
6.3693,1.2929
6.3743,1.2492
6.3743,1.2488
6.3753,1.2494
6.3753,1.254
6.3922,1.5038
6.3952,1.7018
6.3962,1.8987
6.3962,2.1351
6.3972,2.1286
6.3972,2.0267
6.3972,1.861
6.3982,1.4601
6.3982,1.296
6.3992,1.2529
6.3992,1.249
6.4002,1.2488
6.4002,1.2533
6.4012,1.3073
6.4012,1.4927
6.4022,1.8887
6.4022,2.047
6.4022,2.1325
6.4084,2.125
6.4084,1.8775
6.4094,1.6821
6.4094,1.4682
6.4104,1.2537
6.4149,1.2492
6.4158,1.2488
6.4158,1.249
6.4158,1.2929
6.4168,1.47
6.4217,1.654
6.4217,1.8644
6.4228,2.1321
6.4228,2.1325
6.4287,2.0348
6.4301,1.6866
6.4307,1.4841
6.4307,1.3045
6.4317,1.2539
6.4352,1.2484
6.4360,1.249
6.4360,1.2522
6.4370,1.2899
6.4426,1.6643
6.4426,1.8713
6.4436,2.0367
6.4436,2.1237
6.4446,2.0449
6.4488,1.9021
6.4496,1.7022
6.4496,1.3131
6.4506,1.2552
6.4561,1.2495
6.4561,1.2488
6.4571,1.2514
6.4571,1.2863
6.4581,1.45
6.4619,1.6448
6.4629,2.02
6.4629,2.1229
6.4639,2.1259
6.4639,2.0352
6.4689,1.7155
6.4699,1.4924
6.4699,1.3124
6.4699,1.2492
6.4762,1.2486
6.4771,1.2488
6.4771,1.2514
6.4781,1.4511
6.4781,1.6465
6.4826,1.8518
6.4834,2.0213
6.4834,2.149
6.4854,2.0592
6.4906,1.9189
6.5034,1.7267
6.5054,1.3379
6.5064,1.2574
6.5064,1.2499
6.5073,1.2495
6.5073,1.2512
6.5073,1.2801
6.5083,1.4378
6.5083,1.6373
6.5093,2.0104
6.5093,2.1205
6.5103,2.1475
6.5103,1.9366
6.5113,1.747
6.5113,1.537
6.5123,1.3517
6.5128,1.2501
6.5133,1.2494
6.5164,1.2492
6.5173,1.2514
6.5173,1.449
6.5183,1.6519
6.5238,1.8454
6.5246,2.0305
6.5246,2.1672
6.5256,2.0836
6.5256,1.945
6.5299,1.5394
6.5309,1.3545
6.5309,1.2595
6.5320,1.2495
6.5391,1.249
6.5391,1.251
6.5401,1.6212
6.5401,1.8203
6.5411,1.9962
6.5452,2.1162
6.5462,2.0738
6.5462,1.9547
6.5472,1.7612
6.5524,1.5503
6.5524,1.263
6.5535,1.2503
6.5535,1.2492
6.5545,1.249
6.5585,1.2685
6.5596,1.4149
6.5596,1.6154
6.5605,1.8117
6.5605,2.1141
6.5655,2.152
6.5665,2.0776
6.5665,1.7665
6.5665,1.567
6.5732,1.3669
6.5732,1.2614
6.5742,1.249
6.5742,1.249
6.5752,1.2501
6.5795,1.2666
6.5795,1.606
6.5805,1.8077
6.5805,1.9898
6.5865,2.1132
6.5865,2.0808
6.5875,1.966
6.5875,1.7787
6.5885,1.3746
6.5928,1.2642
6.5938,1.2503
6.6117,1.2492
6.6146,1.2505
6.6157,1.266
6.6157,1.3979
6.6166,1.594
6.6166,1.9739
6.6166,2.1162
6.6176,2.1612
6.6176,2.1074
6.6186,1.8032
6.6186,1.5923
6.6196,1.3937
6.6196,1.2679
6.6206,1.2492
6.6206,1.249
6.6216,1.2507
6.6216,1.2675
6.6216,1.5994
6.6226,1.7991
6.6226,1.9829
6.6236,2.1228
6.6268,2.1151
6.6276,1.9999
6.6276,1.8169
6.6286,1.41
6.6339,1.275
6.6339,1.2514
6.6350,1.249
6.6350,1.2509
6.6359,1.266
6.6402,1.3902
6.6412,1.5897
6.6412,1.9831
6.6412,2.1325
6.6473,2.1888
6.6473,2.1271
6.6483,1.8379
6.6483,1.6259
6.6493,1.4256
6.6535,1.2805
6.6535,1.2497
6.6545,1.2492
6.6555,1.2503
6.6555,1.3662
6.6605,1.5803
6.6605,1.7804
6.6614,1.9637
6.6624,2.1561
6.6679,2.1233
6.6686,2.0102
6.6686,1.8321
6.6696,1.4312
6.6696,1.2803
6.6739,1.2524
6.6749,1.2495
6.6749,1.2497
6.6749,1.2604
6.6812,1.3626
6.6812,1.5664
6.6823,1.9577
6.6823,2.098
6.6833,2.1631
6.6875,2.0215
6.6875,1.8546
6.6885,1.6364
6.6885,1.4363
6.6948,1.2533
6.6948,1.2499
6.6958,1.2492
6.6958,1.2505
6.6968,1.3634
6.7012,1.5638
6.7012,1.7556
6.7023,2.0991
6.7203,2.1653
6.7213,2.1329
6.7233,2.0281
6.7243,1.6564
6.7243,1.4599
6.7253,1.2908
6.7253,1.2535
6.7263,1.2494
6.7263,1.2501
6.7272,1.2585
6.7272,1.3409
6.7272,1.7346
6.7293,1.9324
6.7293,2.0845
6.7303,2.1623
6.7303,2.0376
6.7313,1.8736
6.7313,1.6628
6.7313,1.2985
6.7323,1.2537
6.7348,1.2492
6.7357,1.2488
6.7357,1.2574
6.7357,1.3459
6.7424,1.5527
6.7424,1.7429
6.7434,2.0901
6.7434,2.1719
6.7444,2.1496
6.7485,2.0534
6.7494,1.6801
6.7494,1.4781
6.7494,1.3004
6.7504,1.2497
6.7554,1.2494
6.7554,1.2501
6.7564,1.2567
6.7564,1.5351
6.7627,1.7294
6.7636,1.9253
6.7646,2.0856
6.7646,2.149
6.7656,2.0588
6.7691,1.8961
6.7701,1.6891
6.7701,1.3191
6.7711,1.2557
6.7763,1.2499
6.7772,1.249
6.7772,1.2565
6.7772,1.3277
6.7782,1.5222
6.7824,1.9195
6.7832,2.0851
6.7832,2.1693
6.7842,2.1618
6.7897,1.9152
6.7904,1.7082
6.7904,1.5081
6.7915,1.3238
6.7915,1.2501
6.7958,1.2494
6.7958,1.2495
6.7967,1.3253
6.7967,1.5269
6.7977,1.7196
6.8027,1.9109
6.8037,2.1664
6.8037,2.1629
6.8037,2.0641
6.8141,1.9141
6.8279,1.5053
6.8314,1.3227
6.8319,1.2567
6.8319,1.2497
6.8329,1.2495
6.8329,1.2546
6.8339,1.3127
6.8339,1.7024
6.8339,1.9024
6.8349,2.0731
6.8349,2.1709
6.8359,2.0661
6.8359,1.9157
6.8369,1.7054
6.8369,1.5036
6.8379,1.2587
6.8379,1.2497
6.8379,1.249
6.8389,1.2494
6.8389,1.3004
6.8399,1.4903
6.8399,1.6866
6.8431,1.8797
6.8439,2.1563
6.8439,2.1651
6.8449,2.0699
6.8459,1.9257
6.8499,1.527
6.8509,1.3472
6.8509,1.2599
6.8519,1.2507
6.8575,1.2494
6.8581,1.2531
6.8581,1.3015
6.8591,1.684
6.8591,1.8837
6.8637,2.0556
6.8647,2.1475
6.8647,2.0922
6.8647,1.9538
6.8710,1.7556
6.8719,1.5432
6.8719,1.2619
6.8719,1.2505
6.8730,1.2494
6.8772,1.2494
6.8782,1.3002
6.8785,1.4897
6.8792,1.6849
6.8844,1.8812
6.8844,2.1706
6.8854,2.1978
6.8854,2.1064
6.8864,1.9626
6.8906,1.5625
6.8914,1.3701
6.8914,1.2606
6.8924,1.2503
6.8924,1.2494
6.8974,1.2527
6.8974,1.29
6.8984,1.6602
6.8984,1.867
6.9049,2.0402
6.9057,2.1518
6.9057,2.0948
6.9067,1.9615
6.9067,1.7661
6.9112,1.5608
6.9122,1.263
6.9122,1.2509
6.9132,1.2495
6.9183,1.2494
6.9193,1.2842
6.9243,1.4629
6.9373,1.666
6.9402,1.8672
6.9402,2.1653
6.9412,2.1996
6.9412,2.1188
6.9422,1.987
6.9422,1.5927
6.9432,1.4057
6.9432,1.2711
6.9442,1.2516
6.9442,1.2495
6.9442,1.2525
6.9453,1.288
6.9462,1.4543
6.9462,1.8591
6.9473,2.0337
6.9473,2.1589
6.9483,2.1169
6.9483,2.0003
6.9483,1.8089
6.9522,1.5977
6.9522,1.2722
6.9532,1.2516
6.9532,1.2497
6.9542,1.2495
6.9583,1.282
6.9593,1.4496
6.9593,1.6532
6.9603,1.8443
6.9655,2.1501
6.9665,2.1955
6.9665,2.1228
6.9675,1.9997
6.9675,1.6077
6.9717,1.4185
6.9725,1.275
6.9725,1.2518
6.9735,1.2495
6.9777,1.2518
6.9788,1.2769
6.9798,1.4279
6.9807,1.8406
6.9807,2.0157
6.9850,2.143
6.9858,2.1859
6.9858,2.0056
6.9869,1.8282
6.9869,1.6071
6.9919,1.2728
6.9919,1.2518
6.9928,1.2494
6.9928,1.2492
6.9994,1.2702
7.0000,1.4157
7.0000,1.6133
7.0011,1.8104
7.0011,2.1319
7.0053,2.1816
7.0064,2.1153
7.0064,1.9996
7.0074,1.6144
7.0129,1.4189
7.0139,1.276
7.0139,1.252
7.0149,1.2495
7.0149,1.2509
7.0191,1.2666
7.0201,1.3937
7.0201,1.7954
7.0201,1.9724
7.0262,2.1162
7.0262,2.1184
7.0272,2.0076
7.0272,1.8293
7.0312,1.6157
7.0451,1.2795
7.0482,1.2518
7.0541,1.2495
7.0541,1.249
7.0551,1.2632
7.0551,1.3932
7.0561,1.5923
7.0561,1.7886
7.0571,2.1214
7.0571,2.1852
7.0571,2.1308
7.0581,2.0211
7.0581,1.6245
7.0591,1.4327
7.0591,1.2809
7.0602,1.2525
7.0602,1.2492
7.0611,1.2507
7.0621,1.2642
7.0621,1.3883
7.0631,1.7954
7.0641,1.9767
7.0641,2.1179
7.0662,2.1381
7.0671,2.0387
7.0671,1.8685
7.0681,1.6579
7.0733,1.297
7.0733,1.254
7.0743,1.2499
7.0754,1.2492
7.0754,1.2632
7.0800,1.3855
7.0806,1.5944
7.0806,1.7824
7.0816,2.1199
7.0816,2.1927
7.0866,2.1544
7.0866,2.041
7.0876,1.6666
7.0876,1.4689
7.0938,1.2955
7.0938,1.2539
7.0949,1.249
7.0958,1.2507
7.0958,1.2623
7.1002,1.3695
7.1012,1.7753
7.1012,1.9641
7.1012,2.1168
7.1073,2.1869
7.1073,2.0553
7.1083,1.8914
7.1083,1.6744
7.1093,1.3067
7.1134,1.2555
7.1143,1.2501
7.1143,1.2494
7.1143,1.2593
7.1204,1.3583
7.1204,1.561
7.1214,1.7614
7.1214,2.1051
7.1224,2.1818
7.1266,2.1458
7.1277,2.0481
7.1277,1.6831
7.1286,1.4777
7.1286,1.3017
7.1336,1.2546
7.1336,1.2488
7.1347,1.2499
7.1347,1.2582
7.1419,1.3414
7.1549,1.7509
7.1579,1.9379
7.1589,2.0948
7.1589,2.1758
7.1599,2.0538
7.1604,1.8953
7.1604,1.6952
7.1609,1.5014
7.1609,1.2572
7.1619,1.2501
7.1629,1.2495
7.1629,1.2578
7.1629,1.342
7.1639,1.5419
7.1639,1.7438
7.1649,2.0845
7.1649,2.173
7.1671,2.1528
7.1682,2.0511
7.1682,1.6951
7.1691,1.4942
7.1691,1.3135
7.1741,1.2557
7.1741,1.2495
7.1752,1.2499
7.1752,1.2565
7.1762,1.3332
7.1812,1.7284
7.1812,1.9219
7.1812,2.0914
7.1822,2.1799
7.1882,2.0755
7.1882,1.9182
7.1893,1.711
7.1893,1.5113
7.1903,1.2584
7.1943,1.2507
7.1951,1.2497
7.1962,1.2499
7.1962,1.3234
7.2014,1.5216
7.2014,1.7192
7.2025,1.9109
7.2025,2.1636
7.2035,2.1681
7.2078,2.0779
7.2087,1.723
7.2087,1.5224
7.2097,1.3401
7.2149,1.2589
7.2149,1.2495
7.2159,1.2499
7.2159,1.2561
7.2169,1.3176
7.2213,1.7056
7.2213,1.906
7.2223,2.0719
7.2223,2.1751
7.2233,2.0924
7.2284,1.9497
7.2284,1.7459
7.2293,1.5375
7.2293,1.2602
7.2353,1.2503
7.2363,1.2492
7.2363,1.2497
7.2373,1.3095
7.2373,1.4952
7.2414,1.6947
7.2423,2.059
7.2423,2.1719
7.2433,2.1835
7.2522,2.0988
7.2702,1.7573
7.2742,1.5524
7.2742,1.3602
7.2752,1.2632
7.2752,1.2494
7.2762,1.2497
7.2762,1.2552
7.2772,1.3028
7.2772,1.6847
7.2782,1.8833
7.2792,2.0575
7.2804,2.1895
7.2812,1.9604
7.2812,1.7532
7.2822,1.365
7.2822,1.2614
7.2822,1.2503
7.2832,1.2494
7.2832,1.2535
7.2842,1.2985
7.2842,1.4785
7.2852,1.8771
7.2852,2.0551
7.2862,2.167
7.2862,2.1856
7.2871,1.9666
7.2871,1.7717
7.2913,1.5692
7.2913,1.3784
7.2923,1.251
7.2923,1.2499
7.2973,1.2497
7.2983,1.2531
7.2983,1.4674
7.2993,1.6697
7.2993,1.8683
7.3043,2.0417
7.3053,2.179
7.3053,2.1096
7.3063,1.9778
7.3113,1.5831
7.3124,1.3881
7.3124,1.2647
7.3134,1.2516
7.3134,1.2495
7.3175,1.2527
7.3184,1.2912
7.3184,1.4655
7.3195,1.8601
7.3195,2.0389
7.3245,2.1573
7.3245,2.1974
7.3255,2.0018
7.3255,1.8091
7.3321,1.6019
7.3321,1.2726
7.3331,1.252
7.3331,1.2503
7.3341,1.2497
7.3383,1.2861
7.3391,1.4564
7.3391,1.6497
7.3401,1.8492
7.3454,2.1546
7.3454,2.1903
7.3464,2.1171
7.3464,1.9896
7.3474,1.6086
7.3514,1.4183
7.3524,1.2713
7.3524,1.2497
7.3534,1.2497
7.3587,1.252
7.3695,1.2752
7.3799,1.6169
7.3823,1.8096
7.3833,1.9823
7.3833,2.1141
7.3843,2.0905
7.3843,1.9733
7.3853,1.7757
7.3853,1.5578
7.3863,1.2619
7.3863,1.2499
7.3873,1.2484
7.3873,1.2486
7.3883,1.2612
7.3883,1.3699
7.3883,1.5584
7.3893,1.7571
7.3893,2.0748
7.3903,2.1235
7.3903,2.0487
7.3913,1.9285
7.3913,1.5319
7.3923,1.3444
7.3923,1.2567
7.3933,1.2488
7.3933,1.2482
7.3943,1.2486
7.3983,1.2539
7.3993,1.4965
7.3993,1.6999
7.4003,1.8777
7.4053,2.0114
7.4063,1.9907
7.4063,1.8801
7.4073,1.6952
7.4073,1.4834
7.4122,1.2529
7.4133,1.2484
7.4142,1.2482
7.4142,1.2482
7.4152,1.2505
7.4192,1.2833
7.4212,1.4399
7.4222,1.6247
7.4222,1.9506
7.4262,2.0035
7.4270,1.9382
7.4272,1.8237
7.4284,1.431
7.4292,1.2775
7.4322,1.2507
7.4332,1.248
7.4332,1.2482
7.4342,1.248
7.4392,1.2488
7.4402,1.2591
7.4402,1.5597
7.4412,1.7397
7.4412,1.8788
7.4461,1.8989
7.4461,1.7789
7.4471,1.5902
7.4471,1.3814
7.4522,1.2494
7.4531,1.2482
7.4541,1.248
7.4541,1.248
7.4541,1.2482
7.4592,1.2546
7.4592,1.3195
7.4601,1.4952
7.4601,1.8239
7.4601,1.9007
7.4733,1.8475
7.4784,1.7387
7.4802,1.3587
7.4802,1.2591
7.4802,1.2488
7.4802,1.248
7.4810,1.2482
7.4810,1.248
7.4810,1.248
7.4810,1.2509
7.4810,1.4537
7.4810,1.6431
7.4820,1.7892
7.4871,1.8437
7.4871,1.6999
7.4871,1.5255
7.4871,1.3255
7.4881,1.2484
7.4932,1.2482
7.4932,1.2482
7.4932,1.2482
7.4942,1.248
7.5003,1.2494
7.5003,1.2674
7.5003,1.3904
7.5003,1.7123
7.5013,1.7912
7.5064,1.747
7.5064,1.6495
7.5064,1.3065
7.5074,1.2522
7.5074,1.2482
7.5134,1.248
7.5134,1.2484
7.5134,1.2482
7.5144,1.248
7.5209,1.2486
7.5209,1.3442
7.5209,1.5323
7.5219,1.6877
7.5219,1.7581
7.5270,1.6379
7.5270,1.4682
7.5279,1.2957
7.5284,1.252
7.5342,1.248
7.5342,1.248
7.5351,1.2482
7.5351,1.248
7.5351,1.2482
7.5406,1.2548
7.5406,1.3221
7.5417,1.498
7.5417,1.7567
7.5476,1.7462
7.5476,1.6362
7.5486,1.2936
7.5486,1.2516
7.5496,1.2484
7.5538,1.248
7.5546,1.2482
7.5546,1.2482
7.5556,1.248
7.5556,1.2482
7.5607,1.3017
7.5616,1.4849
7.5616,1.6474
7.5626,1.7329
7.5680,1.6236
7.5680,1.4702
7.5690,1.2895
7.5690,1.251
7.5701,1.248
7.5743,1.2482
7.5753,1.2484
7.5824,1.248
7.5945,1.2484
7.5982,1.2531
7.5982,1.3032
7.5992,1.4539
7.5992,1.7232
7.5992,1.7181
7.6002,1.6172
7.6002,1.4665
7.6012,1.2522
7.6012,1.2482
7.6022,1.2482
7.6022,1.2486
7.6032,1.2484
7.6032,1.248
7.6032,1.2482
7.6042,1.2884
7.6042,1.4505
7.6052,1.6142
7.6052,1.7039
7.6062,1.6275
7.6082,1.4792
7.6082,1.294
7.6092,1.2518
7.6092,1.248
7.6154,1.2482
7.6154,1.2484
7.6165,1.2482
7.6165,1.248
7.6175,1.2525
7.6217,1.2923
7.6228,1.453
7.6228,1.7247
7.6237,1.7331
7.6282,1.6471
7.6292,1.3227
7.6302,1.254
7.6302,1.2482
7.6312,1.248
7.6351,1.2479
7.6361,1.2484
7.6361,1.248
7.6371,1.248
7.6422,1.2878
7.6422,1.4539
7.6432,1.6178
7.6432,1.7207
7.6442,1.6439
7.6483,1.5049
7.6493,1.3178
7.6493,1.2488
7.6503,1.2479
7.6503,1.2482
7.6553,1.2482
7.6553,1.248
7.6563,1.2482
7.6563,1.2514
7.6628,1.29
7.6628,1.6277
7.6637,1.7485
7.6637,1.7599
7.6647,1.6688
7.6690,1.3491
7.6697,1.2567
7.6697,1.2488
7.6708,1.2482
7.6761,1.2482
7.6761,1.2484
7.6771,1.248
7.6771,1.248
7.6781,1.2897
7.6823,1.4629
7.6834,1.6365
7.6834,1.756
7.6843,1.6997
7.6894,1.5722
7.7025,1.3815
7.7055,1.2495
7.7064,1.248
7.7064,1.248
7.7074,1.2486
7.7074,1.248
7.7084,1.248
7.7084,1.2525
7.7094,1.2945
7.7094,1.6446
7.7094,1.7618
7.7104,1.7892
7.7104,1.7026
7.7114,1.3885
7.7118,1.2636
7.7126,1.2499
7.7134,1.2482
7.7134,1.2482
7.7161,1.248
7.7167,1.2482
7.7167,1.2482
7.7177,1.2932
7.7235,1.4693
7.7235,1.6367
7.7245,1.7616
7.7245,1.7226
7.7255,1.5936
7.7294,1.4119
7.7304,1.2501
7.7314,1.248
7.7314,1.248
7.7366,1.248
7.7374,1.248
7.7374,1.248
7.7384,1.2516
7.7384,1.2919
7.7430,1.6364
7.7439,1.774
7.7439,1.8126
7.7449,1.7357
7.7451,1.4194
7.7498,1.272
7.7498,1.2501
7.7508,1.2484
7.7508,1.2482
7.7573,1.248
7.7580,1.248
7.7580,1.248
7.7590,1.2927
7.7590,1.4729
7.7640,1.6435
7.7640,1.8121
7.7651,1.7384
7.7651,1.6184
7.7707,1.4307
7.7707,1.251
7.7717,1.248
7.7717,1.2482
7.7717,1.248
7.7771,1.248
7.7771,1.248
7.7783,1.2516
7.7783,1.2867
7.7842,1.6411
7.7842,1.771
7.7853,1.8094
7.7853,1.7515
7.7863,1.468
7.7903,1.2897
7.7903,1.2518
7.7913,1.248
7.7913,1.248
7.7923,1.2482
7.8114,1.248
7.8143,1.2514
7.8143,1.2889
7.8152,1.4539
7.8152,1.6508
7.8162,1.8374
7.8162,1.7905
7.8172,1.6812
7.8172,1.495
7.8182,1.2542
7.8182,1.2484
7.8192,1.248
7.8192,1.2482
7.8202,1.248
7.8202,1.2482
7.8212,1.252
7.8212,1.456
7.8212,1.6516
7.8244,1.7987
7.8252,1.8522
7.8252,1.6844
7.8262,1.5092
7.8314,1.314
7.8314,1.2554
7.8323,1.2479
7.8323,1.2482
7.8333,1.2482
7.8378,1.248
7.8387,1.2518
7.8387,1.2985
7.8398,1.4627
7.8398,1.6405
7.8450,1.8668
7.8457,1.8227
7.8467,1.7127
7.8477,1.3334
7.8522,1.2563
7.8522,1.2484
7.8532,1.2479
7.8532,1.2482
7.8542,1.2479
7.8584,1.248
7.8594,1.2512
7.8594,1.4532
7.8594,1.6459
7.8656,1.7867
7.8656,1.8436
7.8666,1.7114
7.8666,1.5332
7.8676,1.3315
7.8718,1.2486
7.8718,1.2479
7.8728,1.2479
7.8728,1.2479
7.8790,1.248
7.8790,1.2505
7.8799,1.2839
7.8799,1.4318
7.8809,1.7777
7.8852,1.8452
7.8862,1.8072
7.8862,1.714
7.8862,1.344
7.8872,1.257
7.8922,1.2492
7.8922,1.248
7.8932,1.248
7.8932,1.248
7.8994,1.2482
7.9002,1.2835
7.9002,1.4429
7.9012,1.6364
7.9012,1.7899
7.9103,1.8353
7.9192,1.7389
7.9222,1.5758
7.9232,1.3684
7.9232,1.2494
7.9232,1.248
7.9242,1.2482
7.9242,1.2484
7.9252,1.248
7.9252,1.2512
7.9262,1.2895
7.9262,1.4453
7.9272,1.7963
7.9272,1.8801
7.9272,1.8542
7.9282,1.5914
7.9282,1.389
7.9293,1.2651
7.9325,1.2499
7.9325,1.2484
7.9336,1.2482
7.9345,1.2479
7.9345,1.248
7.9395,1.2837
7.9395,1.4487
7.9405,1.6433
7.9405,1.7944
7.9468,1.8629
7.9468,1.7736
7.9478,1.6195
7.9478,1.4175
7.9488,1.2505
7.9533,1.248
7.9543,1.2479
7.9543,1.248
7.9543,1.248
7.9604,1.2512
7.9604,1.2885
7.9617,1.6457
7.9624,1.8077
7.9624,1.8857
7.9664,1.8752
7.9674,1.63
7.9674,1.4288
7.9674,1.2764
7.9730,1.251
7.9741,1.248
7.9751,1.2482
7.9751,1.248
7.9751,1.248
7.9804,1.2835
7.9804,1.4363
7.9814,1.63
7.9824,1.8891
7.9824,1.8944
7.9864,1.7987
7.9874,1.6461
7.9874,1.2816
7.9884,1.251
7.9960,1.2482
7.9960,1.248
7.9970,1.248
7.9970,1.2505
7.9980,1.4414
8.0023,1.6347
8.0033,1.7948
8.0033,1.8949
8.0043,1.8096
8.0093,1.666
8.0093,1.4631
8.0103,1.288
8.0113,1.2484
8.0113,1.248
8.0158,1.248
8.0158,1.248
8.0168,1.2503
8.0168,1.2782
8.0228,1.414
8.0228,1.7907
8.0238,1.8992
8.0238,1.9171
8.0248,1.8274
8.0308,1.4764
8.0437,1.2977
8.0467,1.2533
8.0477,1.2486
8.0477,1.248
8.0477,1.248
8.0487,1.2479
8.0487,1.2507
8.0497,1.4374
8.0497,1.6397
8.0507,1.8098
8.0507,1.9227
8.0517,1.8499
8.0517,1.7057
8.0517,1.5075
8.0527,1.3189
8.0527,1.2484
8.0537,1.248
8.0587,1.2479
8.0587,1.2482
8.0597,1.2503
8.0597,1.2829
8.0607,1.4324
8.0631,1.8091
8.0636,1.9167
8.0636,1.9362
8.0646,1.8488
8.0701,1.51
8.0708,1.3165
8.0708,1.255
8.0718,1.2486
8.0718,1.248
8.0762,1.248
8.0771,1.2482
8.0771,1.2497
8.0781,1.4166
8.0781,1.6148
8.0831,1.7882
8.0841,1.9249
8.0841,1.8467
8.0851,1.7187
8.0906,1.5252
8.0906,1.2563
8.0916,1.2486
8.0916,1.2479
8.0929,1.2482
8.0967,1.248
8.0975,1.2501
8.0975,1.2764
8.0985,1.417
8.1037,1.7903
8.1037,1.9126
8.1049,1.9463
8.1049,1.8736
8.1058,1.5475
8.1103,1.3508
8.1103,1.26
8.1116,1.2492
8.1116,1.2482
8.1173,1.248
8.1173,1.2479
8.1183,1.2702
8.1183,1.4067
8.1193,1.606
8.1235,1.7881
8.1245,1.9656
8.1245,1.8846
8.1255,1.7476
8.1255,1.545
8.1305,1.2614
8.1305,1.2492
8.1315,1.2482
8.1315,1.248
8.1399,1.248
8.1533,1.2495
8.1558,1.2705
8.1558,1.4052
8.1573,1.7867
8.1573,1.9099
8.1578,1.9491
8.1578,1.8794
8.1588,1.5683
8.1588,1.3635
8.1598,1.2615
8.1598,1.2492
8.1608,1.2479
8.1608,1.2479
8.1618,1.248
8.1626,1.2497
8.1628,1.4102
8.1628,1.6167
8.1644,1.8034
8.1649,1.9289
8.1649,1.8947
8.1659,1.7783
8.1659,1.5921
8.1709,1.2675
8.1709,1.2499
8.1719,1.2482
8.1719,1.2482
8.1729,1.248
8.1779,1.2494
8.1789,1.2719
8.1799,1.4055
8.1799,1.7926
8.1850,1.9373
8.1850,1.9849
8.1859,1.915
8.1859,1.6133
8.1869,1.4055
8.1911,1.2687
8.1922,1.2497
8.1922,1.2479
8.1932,1.2479
8.1983,1.248
8.1983,1.2497
8.1994,1.3859
8.1994,1.5923
8.2003,1.7779
8.2045,1.9212
8.2056,1.9317
8.2056,1.8139
8.2056,1.6343
8.2116,1.4309
8.2116,1.2527
8.2127,1.2486
8.2127,1.248
8.2137,1.2484
8.2178,1.2512
8.2189,1.293
8.2189,1.4665
8.2189,1.8691
8.2199,2.0243
8.2248,2.0864
8.2248,2.0502
8.2259,1.7744
8.2259,1.5735
8.2345,1.3834
8.2475,1.2657
8.2505,1.2482
8.2516,1.2482
8.2516,1.2499
8.2525,1.261
8.2525,1.5865
8.2535,1.8032
8.2535,1.9999
8.2535,2.1419
8.2545,2.176
8.2545,2.0695
8.2555,1.8991
8.2555,1.693
8.2565,1.3292
8.2565,1.2604
8.2575,1.2527
8.2575,1.2514
8.2584,1.2981
8.2584,1.4828
8.2594,1.6909
8.2594,1.9009
8.2604,2.248
8.2655,2.3138
8.2655,2.2769
8.2665,2.0147
8.2674,1.8104
8.2684,1.621
8.2724,1.4297
8.2734,1.2585
8.2734,1.2565
8.2744,1.2711
8.2794,1.3583
8.2804,1.7586
8.2804,1.9667
8.2814,2.161
8.2814,2.3131
8.2857,2.3611
8.2866,2.254
8.2866,2.0853
8.2876,1.8824
8.2929,1.5162
8.2929,1.3472
8.2939,1.2762
8.2939,1.2893
8.2950,1.3905
8.2991,1.5741
8.3000,1.7916
8.3000,2.2081
8.3010,2.3787
8.3063,2.4507
8.3063,2.4121
8.3074,2.1533
8.3074,1.948
8.3083,1.744
8.3123,1.5351
8.3133,1.2842
8.3133,1.2745
8.3143,1.3015
8.3143,1.5925
8.3193,1.8046
8.3203,1.9952
8.3203,2.1889
8.3212,2.44
8.3269,2.4199
8.3274,2.3178
8.3284,2.1573
8.3284,1.7436
8.3284,1.5497
8.3332,1.3742
8.3342,1.2848
8.3342,1.2889
8.3342,1.3866
8.3433,1.5788
8.3559,1.9936
8.3587,2.1867
8.3587,2.335
8.3600,2.4117
8.3600,2.317
8.3607,2.1591
8.3607,1.9497
8.3617,1.7417
8.3624,1.3754
8.3627,1.2805
8.3627,1.2689
8.3637,1.2863
8.3637,1.5625
8.3647,1.786
8.3647,1.9806
8.3657,2.3369
8.3657,2.4321
8.3667,2.4124
8.3667,2.3142
8.3677,1.9527
8.3677,1.7519
8.3687,1.5535
8.3745,1.3763
8.3750,1.2705
8.3750,1.2786
8.3761,1.3557
8.3770,1.5375
8.3805,1.9491
8.3815,2.1454
8.3815,2.3112
8.3825,2.4016
8.3878,2.3163
8.3878,2.1633
8.3889,1.9581
8.3889,1.5681
8.3898,1.3855
8.3950,1.2831
8.3955,1.27
8.3955,1.3602
8.3965,1.5377
8.4014,1.7459
8.4014,2.1423
8.4024,2.3119
8.4024,2.4156
8.4034,2.4222
8.4077,2.1805
8.4087,1.9769
8.4087,1.762
8.4087,1.5674
8.4097,1.2827
8.4147,1.2662
8.4147,1.2773
8.4157,1.3482
8.4157,1.7423
8.4221,1.9367
8.4229,2.1276
8.4229,2.4036
8.4239,2.4156
8.4239,2.3211
8.4281,2.1781
8.4292,1.777
8.4292,1.5857
8.4302,1.3997
8.4353,1.2884
8.4362,1.275
8.4362,1.3414
8.4372,1.5072
8.4372,1.7108
8.4422,2.1093
8.4422,2.2868
8.4432,2.3952
8.4432,2.4068
8.4491,2.1747
8.4491,1.9791
8.4501,1.768
8.4501,1.3874
8.4510,1.285
8.4553,1.2645
8.4561,1.2689
8.4561,1.4877
8.4572,1.7014
8.4572,1.8974
8.4621,2.0943
8.4621,2.3928
8.4681,2.4173
8.4807,2.326
8.4840,1.9862
8.4847,1.7841
8.4847,1.5865
8.4857,1.3922
8.4857,1.2657
8.4867,1.27
8.4867,1.3176
8.4867,1.4719
8.4877,1.8895
8.4877,2.092
8.4887,2.2606
8.4887,2.365
8.4897,2.3238
8.4897,2.1921
8.4907,1.9881
8.4907,1.584
8.4907,1.401
8.4917,1.2814
8.4957,1.2659
8.4966,1.308
8.4966,1.4629
8.4976,1.6763
8.4976,1.8747
8.5029,2.2489
8.5029,2.377
8.5039,2.4038
8.5039,2.3224
8.5049,2.0102
8.5100,1.8027
8.5100,1.6071
8.5109,1.4198
8.5109,1.2709
8.5171,1.2677
8.5176,1.3112
8.5187,1.6592
8.5187,1.8679
8.5187,2.0697
8.5232,2.2426
8.5242,2.3959
8.5242,2.3363
8.5242,2.2113
8.5304,2.0136
8.5304,1.6052
8.5315,1.4147
8.5315,1.2872
8.5325,1.266
8.5367,1.2964
8.5377,1.444
8.5377,1.6429
8.5387,1.8387
8.5438,2.2276
8.5447,2.3583
8.5449,2.3997
8.5457,2.2176
8.5457,2.0346
8.5503,1.8154
8.5503,1.6189
8.5513,1.2917
8.5513,1.2645
8.5523,1.2634
8.5572,1.291
8.5572,1.6382
8.5582,1.8447
8.5582,2.0397
8.5645,2.224
8.5645,2.3969
8.5655,2.332
8.5655,2.2188
8.5665,1.8132
8.5707,1.6167
8.5718,1.428
8.5718,1.2944
8.5728,1.2634
8.5904,1.2919
8.5914,1.4204
8.5934,1.6229
8.5944,2.0312
8.5950,2.2135
8.5954,2.3489
8.5954,2.4023
8.5964,2.2189
8.5964,2.0294
8.5976,1.8263
8.5976,1.4314
8.5984,1.2945
8.5984,1.2651
8.5994,1.2623
8.5994,1.4074
8.6004,1.6114
8.6004,1.8154
8.6014,2.0179
8.6014,2.3352
8.6047,2.4021
8.6054,2.3371
8.6054,2.2242
8.6064,1.8321
8.6119,1.6328
8.6133,1.4355
8.6135,1.2649
8.6135,1.261
8.6145,1.2831
8.6184,1.3975
8.6194,1.7963
8.6194,2.0018
8.6194,2.1856
8.6255,2.3226
8.6255,2.3335
8.6265,2.2264
8.6265,2.0476
8.6275,1.8316
8.6318,1.441
8.6328,1.2968
8.6328,1.2621
8.6328,1.2779
8.6389,1.3844
8.6389,1.5827
8.6400,1.7837
8.6400,2.1659
8.6410,2.3219
8.6451,2.3798
8.6460,2.3324
8.6460,2.0528
8.6460,1.852
8.6470,1.6461
8.6522,1.4487
8.6530,1.2651
8.6530,1.2602
8.6530,1.2737
8.6593,1.5689
8.6603,1.7849
8.6603,1.9787
8.6603,2.1599
8.6613,2.3779
8.6657,2.3434
8.6665,2.2287
8.6665,2.0543
8.6675,1.6516
8.6731,1.4547
8.6731,1.302
8.6741,1.2638
8.6741,1.2724
8.6751,1.3596
8.6792,1.5465
8.6801,1.9491
8.6801,2.1447
8.6811,2.3028
8.6866,2.3633
8.6991,2.242
8.7011,2.0708
8.7040,1.8621
8.7040,1.6549
8.7050,1.3127
8.7050,1.2653
8.7060,1.2608
8.7060,1.2694
8.7060,1.5342
8.7070,1.7457
8.7070,1.9382
8.7080,2.1355
8.7080,2.3725
8.7090,2.3493
8.7090,2.2444
8.7090,1.8737
8.7100,1.6746
8.7100,1.4783
8.7132,1.3189
8.7140,1.2621
8.7140,1.2732
8.7151,1.3512
8.7222,1.5306
8.7222,1.948
8.7232,2.1357
8.7232,2.2968
8.7242,2.2624
8.7283,2.0986
8.7293,1.8859
8.7304,1.4819
8.7304,1.3191
8.7355,1.2634
8.7357,1.2584
8.7367,1.3334
8.7367,1.5175
8.7377,1.7267
8.7418,2.1184
8.7428,2.2771
8.7428,2.3628
8.7428,2.3564
8.7438,2.1016
8.7489,1.894
8.7489,1.6868
8.7498,1.4995
8.7508,1.2694
8.7561,1.2615
8.7570,1.2698
8.7570,1.3315
8.7580,1.7286
8.7580,1.9165
8.7626,2.1057
8.7632,2.3461
8.7632,2.3476
8.7642,2.2504
8.7696,2.0988
8.7704,1.6821
8.7704,1.4939
8.7715,1.3244
8.7715,1.2642
8.7757,1.2629
8.7767,1.3139
8.7774,1.4822
8.7777,1.6872
8.7829,2.0871
8.7829,2.2604
8.7839,2.3502
8.7839,2.3464
8.7849,2.1049
8.7894,1.9114
8.7894,1.7009
8.7904,1.3289
8.7904,1.2659
8.7914,1.2584
8.8093,1.2636
8.8123,1.4682
8.8133,1.6855
8.8133,1.8882
8.8143,2.0841
8.8143,2.3539
8.8153,2.3521
8.8153,2.2549
8.8163,2.0984
8.8163,1.6939
8.8163,1.5029
8.8173,1.3262
8.8173,1.2627
8.8183,1.2612
8.8183,1.3011
8.8193,1.464
8.8193,1.6744
8.8193,2.0796
8.8235,2.2433
8.8243,2.3376
8.8243,2.3455
8.8253,2.1183
8.8303,1.9161
8.8303,1.702
8.8313,1.3352
8.8313,1.2662
8.8323,1.2576
8.8368,1.26
8.8368,1.4429
8.8378,1.6596
8.8378,1.8662
8.8388,2.0667
8.8438,2.3389
8.8438,2.3466
8.8449,2.2553
8.8458,2.1177
8.8511,1.7151
8.8511,1.5199
8.8521,1.3373
8.8521,1.2559
8.8531,1.2584
8.8574,1.2906
8.8584,1.4325
8.8584,1.8409
8.8584,2.0461
8.8645,2.212
8.8645,2.3176
8.8655,2.2488
8.8655,2.1216
8.8665,1.9244
8.8708,1.7114
8.8718,1.3377
8.8718,1.2638
8.8728,1.2572
8.8771,1.2805
8.8782,1.4138
8.8782,1.6174
8.8791,1.8194
8.8791,2.1968
8.8840,2.314
8.8851,2.3408
8.8851,2.2628
8.8860,1.9407
8.8860,1.7256
8.8910,1.5314
8.8910,1.3459
8.8920,1.257
8.8920,1.2582
8.8985,1.2775
8.8992,1.6185
8.8992,1.813
8.9002,2.0095
8.9002,2.1871
8.9045,2.3423
8.9055,2.2666
8.9055,2.1316
8.9065,1.9356
8.9114,1.5449
8.9125,1.3547
8.9125,1.2664
8.9134,1.257
8.9134,1.278
8.9204,1.4042
8.9334,1.5947
8.9354,1.8002
8.9364,2.1867
8.9364,2.3118
8.9374,2.3425
8.9374,2.1423
8.9384,1.9598
8.9384,1.7449
8.9394,1.545
8.9394,1.2681
8.9404,1.2565
8.9404,1.2569
8.9404,1.273
8.9414,1.5882
8.9414,1.7914
8.9424,1.9855
8.9424,2.1623
8.9457,2.3436
8.9466,2.2662
8.9466,2.1411
8.9476,1.735
8.9476,1.5374
8.9523,1.3476
8.9533,1.2674
8.9533,1.2555
8.9533,1.2689
8.9594,1.3699
8.9594,1.5749
8.9604,1.9671
8.9604,2.1486
8.9615,2.2773
8.9657,2.3258
8.9664,2.149
8.9664,1.9592
8.9674,1.7476
8.9729,1.3575
8.9729,1.266
8.9739,1.255
8.9739,1.2544
8.9749,1.3564
8.9790,1.5595
8.9790,1.7721
8.9800,1.9673
8.9800,2.2848
8.9810,2.3367
8.9860,2.2806
8.9870,2.1574
8.9870,1.7549
8.9870,1.56
8.9933,1.368
8.9943,1.2565
8.9953,1.255
8.9953,1.2645
8.9963,1.3457
8.9998,1.7521
9.0008,1.9531
9.0008,2.1344
9.0008,2.2756
9.0065,2.2711
9.0075,2.164
9.0075,1.9883
9.0085,1.7635
9.0085,1.3868
9.0130,1.273
9.0136,1.2574
9.0136,1.2632
9.0146,1.3399
9.0203,1.5295
9.0203,1.7346
9.0213,2.1224
9.0213,2.2581
9.0223,2.3144
9.0317,2.2797
9.0403,1.9907
9.0433,1.786
9.0443,1.587
9.0456,1.3934
9.0456,1.2559
9.0463,1.2552
9.0463,1.2638
9.0473,1.3365
9.0473,1.7436
9.0483,1.9405
9.0483,2.1289
9.0493,2.2825
9.0493,2.2939
9.0503,2.1814
9.0503,1.9992
9.0503,1.7941
9.0513,1.4046
9.0542,1.2758
9.0542,1.257
9.0554,1.2619
9.0554,1.3296
9.0562,1.5147
9.0604,1.7237
9.0665,2.1124
9.0674,2.2617
9.0674,2.3329
9.0685,2.3001
9.0685,2.0221
9.0685,1.8104
9.0695,1.6026
9.0695,1.4093
9.0737,1.2572
9.0747,1.2544
9.0747,1.2608
9.0747,1.3097
9.0757,1.6975
9.0807,1.8994
9.0807,2.1025
9.0817,2.2504
9.0817,2.2771
9.0877,2.1777
9.0877,2.0112
9.0888,1.7963
9.0888,1.3964
9.0898,1.2745
9.0948,1.2548
9.0952,1.2576
9.0952,1.3045
9.0962,1.4856
9.1014,1.6926
9.1014,2.0794
9.1024,2.2364
9.1024,2.3127
9.1034,2.2848
9.1075,2.0185
9.1084,1.8158
9.1084,1.6122
9.1095,1.407
9.1146,1.2574
9.1146,1.2548
9.1157,1.2593
9.1157,1.3005
9.1167,1.6804
9.1210,1.8852
9.1217,2.0716
9.1217,2.2278
9.1227,2.2971
9.1227,2.2032
9.1281,2.0402
9.1287,1.8287
9.1287,1.4361
9.1297,1.2897
9.1369,1.258
9.1499,1.2595
9.1534,1.3067
9.1539,1.4753
9.1539,1.6816
9.1549,2.0613
9.1549,2.2276
9.1549,2.3073
9.1559,2.2936
9.1559,2.05
9.1569,1.8409
9.1569,1.6317
9.1579,1.4333
9.1579,1.258
9.1579,1.2544
9.1589,1.2591
9.1589,1.2949
9.1599,1.6613
9.1619,1.8604
9.1619,2.0609
9.1629,2.3069
9.1629,2.3054
9.1640,2.2116
9.1683,2.0554
9.1690,1.6403
9.1690,1.4489
9.1701,1.2914
9.1701,1.2574
9.1751,1.2559
9.1761,1.2807
9.1761,1.4295
9.1761,1.6424
9.1827,2.0539
9.1827,2.2435
9.1837,2.3406
9.1837,2.3354
9.1847,2.0826
9.1887,1.8779
9.1897,1.6692
9.1897,1.4794
9.1907,1.263
9.1959,1.2555
9.1959,1.2595
9.1968,1.2972
9.1968,1.6936
9.1978,1.8947
9.2021,2.0929
9.2031,2.365
9.2031,2.3776
9.2041,2.284
9.2093,2.1415
9.2093,1.7181
9.2104,1.5375
9.2104,1.3635
9.2113,1.2758
9.2156,1.2735
9.2167,1.3485
9.2167,1.5357
9.2167,1.7457
9.2177,2.1492
9.2226,2.3234
9.2226,2.4303
9.2236,2.4383
9.2236,2.2137
9.2301,2.0157
9.2301,1.8053
9.2310,1.6165
9.2310,1.318
9.2320,1.285
9.2360,1.3058
9.2371,1.5869
9.2371,1.8038
9.2381,2.0029
9.2463,2.2041
9.2592,2.4843
9.2622,2.506
9.2622,2.4273
9.2633,2.2896
9.2633,1.8846
9.2642,1.7026
9.2642,1.506
9.2652,1.3682
9.2652,1.3547
9.2662,1.459
9.2672,1.6375
9.2672,1.8437
9.2682,2.2534
9.2682,2.4336
9.2692,2.5362
9.2692,2.5521
9.2702,2.3613
9.2702,2.1649
9.2712,1.9566
9.2712,1.7639
9.2722,1.432
9.2732,1.3755
9.2772,1.4014
9.2784,1.6831
9.2793,1.8953
9.2802,2.0971
9.2802,2.2945
9.2833,2.5805
9.2842,2.5908
9.2842,2.5396
9.2852,2.4038
9.2906,1.9992
9.2906,1.8132
9.2916,1.6221
9.2916,1.4751
9.2926,1.4357
9.2965,1.5325
9.2975,1.6902
9.2975,1.9051
9.2985,2.3279
9.3040,2.4931
9.3048,2.5891
9.3048,2.5613
9.3057,2.4357
9.3057,2.2435
9.3101,2.0311
9.3108,1.6583
9.3118,1.515
9.3128,1.441
9.3138,1.4534
9.3168,1.7035
9.3178,1.9099
9.3178,2.1169
9.3188,2.3112
9.3247,2.5902
9.3247,2.5746
9.3257,2.5806
9.3257,2.4509
9.3267,2.0436
9.3308,1.8492
9.3317,1.6686
9.3317,1.4504
9.3328,1.47
9.3382,1.5657
9.3382,1.7179
9.3392,2.119
9.3392,2.3146
9.3392,2.4916
9.3441,2.5904
9.3452,2.597
9.3452,2.485
9.3462,2.2934
9.3534,2.0779
9.3674,1.7031
9.3704,1.5495
9.3714,1.4637
9.3714,1.4601
9.3724,1.6999
9.3724,1.9097
9.3734,2.1327
9.3734,2.3284
9.3744,2.5827
9.3744,2.5857
9.3754,2.5885
9.3754,2.305
9.3754,2.0982
9.3764,1.8987
9.3764,1.7072
9.3774,1.4729
9.3783,1.4663
9.3783,1.5351
9.3794,1.6896
9.3794,2.1016
9.3794,2.3093
9.3804,2.4873
9.3848,2.5823
9.3856,2.6001
9.3856,2.4946
9.3866,2.3063
9.3876,2.1055
9.3916,1.7097
9.3927,1.5475
9.3927,1.4792
9.3927,1.5439
9.3987,1.6862
9.3987,1.8962
9.3996,2.1023
9.3996,2.4721
9.4006,2.5887
9.4049,2.5816
9.4060,2.5917
9.4060,2.3161
9.4060,2.1108
9.4069,1.9116
9.4119,1.7213
9.4129,1.464
9.4129,1.4556
9.4140,1.545
9.4193,1.6877
9.4193,2.0856
9.4203,2.2731
9.4203,2.449
9.4213,2.5844
9.4255,2.587
9.4265,2.4807
9.4265,2.3005
9.4265,2.0928
9.4320,1.7112
9.4330,1.5435
9.4340,1.444
9.4340,1.5027
9.4340,1.6369
9.4391,1.8308
9.4391,2.0262
9.4401,2.4078
9.4401,2.555
9.4476,2.5981
9.4476,2.5791
9.4486,2.3146
9.4486,2.1018
9.4496,1.8979
9.4540,1.7022
9.4547,1.428
9.4547,1.4957
9.4557,1.822
9.4557,2.038
9.4657,2.2401
9.4786,2.4295
9.4820,2.5756
9.4826,2.5859
9.4826,2.4925
9.4837,2.1051
9.4837,1.9094
9.4837,1.7181
9.4847,1.5525
9.4847,1.4269
9.4857,1.4974
9.4857,1.624
9.4867,1.8079
9.4867,2.2111
9.4877,2.4055
9.4877,2.5626
9.4886,2.5906
9.4886,2.4822
9.4886,2.3125
9.4897,2.0929
9.4897,1.8904
9.4906,1.5344
9.4947,1.4262
9.4957,1.3995
9.4967,1.5919
9.4967,1.7879
9.4977,1.9973
9.5014,2.1959
9.5024,2.539
9.5024,2.5865
9.5024,2.5797
9.5034,2.4848
9.5084,2.1014
9.5084,1.9047
9.5094,1.7039
9.5094,1.539
9.5157,1.404
9.5164,1.4547
9.5164,1.5827
9.5174,1.9752
9.5174,2.1706
9.5220,2.3568
9.5231,2.512
9.5231,2.5754
9.5240,2.4822
9.5291,2.3134
9.5291,2.0969
9.5300,1.7091
9.5310,1.546
9.5310,1.4123
9.5356,1.3692
9.5366,1.5659
9.5366,1.7549
9.5366,1.9564
9.5426,2.1629
9.5426,2.5186
9.5436,2.6003
9.5436,2.5793
9.5446,2.3194
9.5488,2.1055
9.5488,1.9064
9.5498,1.7033
9.5498,1.4166
9.5508,1.3827
9.5558,1.4312
9.5558,1.5492
9.5568,1.9456
9.5568,2.1436
9.5633,2.3433
9.5633,2.5045
9.5643,2.5752
9.5643,2.488
9.5653,2.3264
9.5695,1.9043
9.5709,1.7251
9.5874,1.5445
9.5904,1.4226
9.5916,1.4282
9.5916,1.5473
9.5925,1.7301
9.5925,1.9403
9.5935,2.3299
9.5935,2.4886
9.5945,2.5773
9.5945,2.579
9.5956,2.3444
9.5964,2.1379
9.5964,1.9289
9.5964,1.5548
9.5974,1.4389
9.5974,1.3885
9.5984,1.4104
9.5984,1.6907
9.5994,1.9052
9.5994,2.1063
9.6004,2.2971
9.6035,2.573
9.6044,2.5707
9.6044,2.4773
9.6054,2.1286
9.6109,1.9261
9.6119,1.7311
9.6131,1.5507
9.6131,1.3637
9.6139,1.401
9.6171,1.5019
9.6181,1.675
9.6181,2.104
9.6190,2.2983
9.6243,2.4539
9.6243,2.5542
9.6253,2.4693
9.6253,2.3146
9.6263,2.1081
9.6304,1.7176
9.6312,1.5381
9.6312,1.4025
9.6322,1.3559
9.6377,1.4937
9.6377,1.6639
9.6388,1.8679
9.6388,2.0723
9.6398,2.4453
9.6440,2.5518
9.6447,2.5598
9.6447,2.4674
9.6458,2.1168
9.6458,1.9075
9.6508,1.7097
9.6518,1.3915
9.6518,1.3497
9.6528,1.371
9.6583,1.4727
9.6591,1.8458
9.6591,2.0541
9.6601,2.2548
9.6601,2.4248
9.6644,2.5454
9.6654,2.4593
9.6654,2.3166
9.6664,1.9244
9.6718,1.7329
9.6725,1.5261
9.6725,1.3832
9.6736,1.3517
9.6736,1.4575
9.6778,1.629
9.6788,1.8377
9.6788,2.2354
9.6800,2.4139
9.6958,2.5214
9.6990,2.5486
9.6998,2.3371
9.6998,2.149
9.6998,1.9426
9.7008,1.5595
9.7008,1.4211
9.7018,1.3643
9.7018,1.3765
9.7028,1.6272
9.7028,1.8366
9.7038,2.0342
9.7038,2.2272
9.7038,2.5103
9.7060,2.5531
9.7060,2.4768
9.7070,2.3376
9.7070,1.9375
9.7080,1.7436
9.7120,1.5507
9.7130,1.354
9.7140,1.3692
9.7140,1.4543
9.7194,1.6154
9.7201,2.0224
9.7201,2.2242
9.7212,2.401
9.7212,2.5167
9.7254,2.4756
9.7265,2.3515
9.7265,2.1552
9.7274,1.7401
9.7331,1.5505
9.7331,1.4033
9.7341,1.3448
9.7341,1.4247
9.7351,1.5895
9.7394,1.7954
9.7394,2.0022
9.7404,2.3736
9.7404,2.4933
9.7414,2.5274
9.7464,2.3251
9.7464,2.1325
9.7474,1.9212
9.7474,1.7305
9.7536,1.3874
9.7536,1.3244
9.7546,1.3281
9.7546,1.4014
9.7556,1.7521
9.7598,1.9576
9.7608,2.1558
9.7614,2.3384
9.7618,2.5128
9.7669,2.4436
9.7669,2.3166
9.7680,2.1246
9.7680,1.7149
9.7690,1.5274
9.7730,1.3737
9.7741,1.3054
9.7741,1.3823
9.7751,1.5347
9.7802,1.7312
9.7802,2.14
9.7813,2.3399
9.7813,2.467
9.7823,2.5146
9.7865,2.3448
9.7875,2.1659
9.7875,1.9414
9.7875,1.7417
9.7938,1.4014
9.8074,1.3274
9.8104,1.3204
9.8118,1.3887
9.8124,1.7442
9.8124,1.9628
9.8134,2.1576
9.8141,2.3346
9.8144,2.533
9.8144,2.465
9.8154,2.3481
9.8154,2.1691
9.8154,1.7498
9.8164,1.5606
9.8164,1.4025
9.8174,1.3101
9.8174,1.384
9.8184,1.5323
9.8184,1.7318
9.8204,2.134
9.8214,2.3311
9.8214,2.4734
9.8224,2.5188
9.8277,2.3586
9.8286,2.173
9.8296,1.9544
9.8296,1.7562
9.8307,1.399
9.8339,1.3217
9.8349,1.3112
9.8349,1.3695
9.8349,1.7065
9.8360,1.9097
9.8409,2.1051
9.8409,2.2808
9.8419,2.4865
9.8419,2.4445
9.8482,2.3425
9.8491,2.164
9.8491,1.7417
9.8501,1.5529
9.8501,1.3956
9.8543,1.3116
9.8554,1.3472
9.8554,1.4886
9.8554,1.6862
9.8613,1.8932
9.8613,2.2853
9.8624,2.4248
9.8624,2.4807
9.8633,2.4481
9.8679,2.1702
9.8689,1.9576
9.8689,1.7603
9.8689,1.4033
9.8749,1.3161
9.8749,1.293
9.8760,1.3392
9.8760,1.6682
9.8770,1.8773
9.8812,2.0699
9.8820,2.2557
9.8820,2.4811
9.8831,2.4603
9.8831,2.3491
9.8880,2.1745
9.8880,1.7712
9.8891,1.5765
9.8891,1.408
9.8952,1.3073
9.8952,1.3403
9.8963,1.467
9.8963,1.6602
9.8972,2.0663
9.9095,2.2699
9.9194,2.4179
9.9224,2.489
9.9224,2.3478
9.9234,2.1788
9.9234,1.9748
9.9244,1.7712
9.9244,1.4177
9.9254,1.3099
9.9254,1.2852
9.9264,1.3347
9.9264,1.6602
9.9264,1.8664
9.9273,2.0781
9.9283,2.2771
9.9294,2.5017
9.9294,2.4785
9.9303,2.3828
9.9303,2.2167
9.9313,1.7665
9.9313,1.5537
9.9325,1.3673
9.9325,1.2657
9.9354,1.2852
9.9354,1.3905
9.9363,1.5878
9.9363,2.0072
9.9428,2.188
9.9436,2.3339
9.9436,2.407
9.9447,2.2729
9.9456,2.1025
9.9487,1.8874
9.9496,1.6791
9.9496,1.3195
9.9506,1.2644
9.9561,1.258
9.9561,1.2623
9.9571,1.4781
9.9571,1.6834
9.9581,1.8732
9.9623,2.0639
9.9623,2.3037
9.9634,2.2801
9.9634,2.1813
9.9695,1.8177
9.9695,1.6064
9.9705,1.4009
9.9705,1.2707
9.9715,1.2512
9.9759,1.2525
9.9768,1.2668
9.9768,1.3802
9.9768,1.7933
9.9778,1.9874
9.9828,2.1417
9.9828,2.2253
9.9838,2.1081
9.9838,1.9583
9.9898,1.7462
9.9909,1.542
9.9918,1.2597
9.9928,1.2505
9.9948,1.2495
9.9960,1.2503
9.9968,1.3206
9.9983,1.5194
9.9996,1.7114
10.0061,1.9013
10.0396,2.1541
10.0439,2.1434
10.0446,2.0412
10.0456,1.6739
10.0456,1.474
10.0466,1.2998
10.0476,1.2527
10.0486,1.2486
10.0497,1.2486
10.0497,1.2507
10.0506,1.2739
10.0506,1.6307
10.0516,1.837
10.0516,2.0018
10.0516,2.0995
10.0526,2.0177
10.0526,1.8724
10.0536,1.6716
10.0536,1.465
10.0546,1.2535
10.0546,1.249
10.0556,1.2486
10.0556,1.2488
10.0568,1.2765
10.0577,1.4419
10.0586,1.6382
10.0586,1.8392
10.0596,2.1259
10.0596,2.1284
10.0606,2.0341
10.0606,1.7044
10.0616,1.4999
10.0616,1.314
10.0636,1.2548
10.0646,1.2484
10.0646,1.2488
10.0656,1.2512
10.0656,1.2797
10.0666,1.6373
10.0717,1.8392
10.0717,2.0106
10.0726,2.1261
10.0726,2.0474
10.0736,1.9099
10.0736,1.7136
10.0746,1.5057
10.0746,1.257
10.0746,1.2497
10.0756,1.249
10.0756,1.2488
10.0766,1.2756
10.0780,1.4404
10.0785,1.6424
10.0785,1.8409
10.0843,2.1222
10.0843,2.1471
10.0854,2.0678
10.0854,1.9285
10.0864,1.5162
10.0909,1.3317
10.0919,1.2572
10.0919,1.2488
10.0929,1.2488
10.0979,1.2512
10.0979,1.2739
10.0990,1.6274
10.0990,1.8316
10.0999,1.9996
10.1040,2.1111
10.1050,2.0629
10.1050,1.9377
10.1061,1.7359
10.1111,1.5252
10.1111,1.2584
10.1122,1.2495
10.1122,1.249
10.1132,1.2486
10.1173,1.2696
10.1184,1.4175
10.1273,1.612
10.1364,1.8121
10.1393,2.1132
10.1393,2.1398
10.1403,2.0513
10.1403,1.9416
10.1413,1.5375
10.1413,1.3467
10.1423,1.258
10.1423,1.2484
10.1423,1.2488
10.1433,1.2507
10.1433,1.2692
10.1443,1.6043
10.1454,1.8083
10.1454,1.981
10.1463,2.1076
10.1463,2.0667
10.1473,1.9467
10.1473,1.7605
10.1483,1.543
10.1514,1.2621
10.1523,1.2501
10.1523,1.2492
10.1533,1.2488
10.1583,1.2642
10.1583,1.3982
10.1593,1.5985
10.1593,1.8044
10.1603,2.1074
10.1645,2.1456
10.1652,2.0794
10.1652,1.9641
10.1662,1.5644
10.1662,1.3757
10.1712,1.2619
10.1722,1.2492
10.1722,1.2486
10.1732,1.2501
10.1800,1.2655
10.1809,1.5934
10.1809,1.7948
10.1819,2.1124
10.1819,2.0789
10.1869,1.9692
10.1879,1.7847
10.1879,1.3787
10.1890,1.2634
10.1940,1.2503
10.1946,1.2482
10.1950,1.2505
10.1950,1.2659
10.1961,1.3917
10.2002,1.5904
10.2012,1.9774
10.2012,2.1109
10.2022,2.1582
10.2074,2.0997
10.2074,1.8025
10.2084,1.5979
10.2084,1.3997
10.2094,1.2514
10.2136,1.249
10.2144,1.249
10.2144,1.2507
10.2154,1.3851
10.2154,1.593
10.2204,1.8017
10.2214,1.9862
10.2214,2.1807
10.2224,2.1214
10.2344,2.0057
10.2513,1.8212
10.2543,1.4155
10.2543,1.2734
10.2553,1.2514
10.2553,1.2488
10.2563,1.2505
10.2563,1.2653
10.2573,1.3793
10.2573,1.7834
10.2583,1.9696
10.2583,2.11
10.2583,2.1715
10.2593,2.0104
10.2593,1.8259
10.2603,1.6165
10.2610,1.4181
10.2615,1.2524
10.2623,1.2495
10.2633,1.249
10.2643,1.2499
10.2643,1.3737
10.2652,1.5677
10.2652,1.7566
10.2652,1.9377
10.2662,2.1516
10.2662,2.1081
10.2672,2.0016
10.2682,1.6146
10.2682,1.4247
10.2692,1.279
10.2692,1.2518
10.2755,1.249
10.2755,1.2499
10.2765,1.2604
10.2765,1.3604
10.2775,1.7631
10.2815,1.9538
10.2825,2.1066
10.2825,2.1636
10.2835,2.0166
10.2888,1.8467
10.2899,1.6407
10.2899,1.4425
10.2907,1.2537
10.2917,1.2499
10.2956,1.2492
10.2956,1.26
10.2966,1.3675
10.2966,1.5719
10.3023,1.7596
10.3027,2.0943
10.3037,2.1586
10.3037,2.1308
10.3047,2.0213
10.3083,1.6467
10.3094,1.4582
10.3094,1.2885
10.3104,1.2531
10.3104,1.2492
10.3153,1.2501
10.3153,1.2587
10.3163,1.3512
10.3163,1.7483
10.3227,1.9414
10.3235,2.0963
10.3235,2.1676
10.3246,2.0371
10.3246,1.8773
10.3287,1.6712
10.3297,1.4774
10.3297,1.2544
10.3307,1.2497
10.3361,1.249
10.3369,1.2501
10.3460,1.3395
10.3559,1.537
10.3589,1.7387
10.3592,1.9399
10.3599,2.1929
10.3599,2.1644
10.3609,2.0586
10.3619,1.6836
10.3629,1.4886
10.3629,1.3062
10.3639,1.2559
10.3639,1.2494
10.3649,1.2501
10.3649,1.2582
10.3649,1.3352
10.3659,1.7273
10.3659,1.9321
10.3669,2.0794
10.3669,2.1678
10.3679,2.0504
10.3679,1.8837
10.3701,1.6739
10.3709,1.4777
10.3709,1.2552
10.3719,1.2494
10.3719,1.249
10.3761,1.2495
10.3772,1.3242
10.3772,1.5225
10.3782,1.7249
10.3837,2.0738
10.3844,2.1696
10.3854,2.1584
10.3864,2.0536
10.3864,1.6941
10.3895,1.4901
10.3905,1.3069
10.3915,1.2552
10.3915,1.2492
10.3965,1.2494
10.3970,1.2533
10.3970,1.3054
10.3980,1.6982
10.3980,1.8916
10.4030,2.0502
10.4030,2.1385
10.4040,2.0466
10.4040,1.8957
10.4050,1.6921
10.4100,1.4841
10.4100,1.2555
10.4110,1.2497
10.4113,1.2492
10.4172,1.2494
10.4172,1.3056
10.4183,1.4984
10.4183,1.6917
10.4193,2.0568
10.4234,2.1531
10.4245,2.1507
10.4245,2.0596
10.4255,1.7134
10.4304,1.5104
10.4304,1.3305
10.4314,1.2572
10.4314,1.2492
10.4324,1.2495
10.4367,1.254
10.4377,1.311
10.4377,1.7082
10.4387,1.9037
10.4439,2.0605
10.4439,2.1604
10.4539,2.0845
10.4631,1.9407
10.4659,1.7401
10.4659,1.5387
10.4669,1.2612
10.4669,1.2507
10.4679,1.2494
10.4679,1.2495
10.4679,1.3165
10.4689,1.5068
10.4689,1.7005
10.4699,2.068
10.4699,2.1852
10.4709,2.1859
10.4709,2.0935
10.4709,1.7524
10.4719,1.546
10.4719,1.3525
10.4729,1.2593
10.4729,1.2486
10.4739,1.2495
10.4783,1.254
10.4787,1.299
10.4787,1.6778
10.4797,1.8777
10.4797,2.0506
10.4842,2.1597
10.4852,2.1027
10.4852,1.9667
10.4861,1.7631
10.4913,1.3665
10.4913,1.2636
10.4925,1.2505
10.4925,1.2494
10.4934,1.2533
10.4975,1.2966
10.4984,1.4768
10.4984,1.6793
10.4994,2.0558
10.4994,2.1781
10.5043,2.1884
10.5053,2.1006
10.5053,1.7665
10.5053,1.555
10.5118,1.3564
10.5126,1.2503
10.5126,1.2486
10.5136,1.2492
10.5136,1.2527
10.5182,1.4498
10.5193,1.6506
10.5193,1.8501
10.5203,2.026
10.5253,2.1769
10.5253,2.1001
10.5263,1.9664
10.5263,1.7706
10.5273,1.3748
10.5319,1.2645
10.5329,1.2512
10.5329,1.2492
10.5339,1.2522
10.5387,1.2867
10.5387,1.4502
10.5397,1.8512
10.5397,2.035
10.5407,2.1488
10.5451,2.182
10.5460,1.9834
10.5460,1.7882
10.5460,1.5713
10.5470,1.3857
10.5519,1.2518
10.5519,1.2497
10.5529,1.2494
10.5529,1.2518
10.5599,1.45
10.5739,1.6465
10.5768,1.8458
10.5768,2.1453
10.5780,2.1852
10.5794,2.1117
10.5798,1.9922
10.5798,1.5957
10.5809,1.4115
10.5809,1.2739
10.5819,1.2522
10.5819,1.2497
10.5819,1.2524
10.5829,1.2795
10.5829,1.438
10.5839,1.8383
10.5839,2.0211
10.5849,2.1462
10.5862,2.1338
10.5862,2.0129
10.5873,1.8197
10.5873,1.6184
10.5882,1.2795
10.5927,1.2527
10.5937,1.2503
10.5937,1.2497
10.5947,1.2788
10.5957,1.4517
10.5997,1.6497
10.5997,1.8413
10.6007,2.1655
10.6007,2.2023
10.6070,2.1364
10.6070,1.8361
10.6080,1.6264
10.6080,1.4329
10.6090,1.2812
10.6134,1.2497
10.6142,1.2492
10.6142,1.252
10.6153,1.2784
10.6199,1.6307
10.6205,1.831
10.6215,2.008
10.6215,2.1443
10.6225,2.1428
10.6266,2.0271
10.6276,1.8426
10.6276,1.4367
10.6286,1.2865
10.6331,1.2533
10.6339,1.2501
10.6349,1.2514
10.6349,1.2726
10.6359,1.4226
10.6401,1.6232
10.6401,2.0095
10.6412,2.1612
10.6412,2.2137
10.6422,2.1507
10.6471,1.8586
10.6471,1.6418
10.6481,1.4442
10.6481,1.2531
10.6544,1.2494
10.6544,1.2492
10.6554,1.2512
10.6554,1.4001
10.6564,1.6084
10.6612,1.8076
10.6616,1.9907
10.6616,2.2047
10.6626,2.1503
10.6689,2.0348
10.6818,1.858
10.6838,1.4663
10.6849,1.2959
10.6849,1.2544
10.6859,1.2497
10.6859,1.2512
10.6869,1.2675
10.6874,1.3887
10.6879,1.8006
10.6879,1.9924
10.6889,2.1346
10.6889,2.2002
10.6899,2.0447
10.6899,1.8846
10.6899,1.6733
10.6908,1.4682
10.6908,1.255
10.6918,1.2499
10.6948,1.2495
10.6948,1.2509
10.6958,1.3859
10.6958,1.5923
10.7020,1.7907
10.7020,2.1276
10.7030,2.2011
10.7030,2.1651
10.7040,2.0592
10.7083,1.6795
10.7093,1.489
10.7093,1.3058
10.7103,1.2552
10.7154,1.2495
10.7154,1.2507
10.7163,1.2636
10.7163,1.3729
10.7173,1.7821
10.7218,1.9705
10.7218,2.1117
10.7228,2.1599
10.7228,2.0674
10.7287,1.8957
10.7291,1.6857
10.7291,1.3092
10.7301,1.2565
10.7301,1.2501
10.7351,1.2492
10.7362,1.2612
10.7362,1.3744
10.7372,1.5814
10.7372,1.7719
10.7421,2.1383
10.7421,2.2141
10.7432,2.1781
10.7432,1.9114
10.7494,1.7016
10.7503,1.4895
10.7503,1.3073
10.7513,1.2497
10.7513,1.249
10.7556,1.2505
10.7566,1.2602
10.7566,1.5617
10.7576,1.7627
10.7629,1.9517
10.7629,2.1078
10.7638,2.1747
10.7638,2.0783
10.7648,1.9086
10.7691,1.4954
10.7701,1.3259
10.7701,1.2582
10.7701,1.2503
10.7755,1.2503
10.7915,1.2591
10.7954,1.3527
10.7954,1.5548
10.7967,1.9549
10.7967,2.1128
10.7975,2.1916
10.7975,2.1809
10.7984,1.9236
10.7984,1.7191
10.7994,1.5171
10.7994,1.2593
10.8004,1.2505
10.8004,1.2494
10.8014,1.251
10.8014,1.3521
10.8024,1.5629
10.8024,1.7612
10.8024,1.9487
10.8034,2.2
10.8034,2.1921
10.8044,2.1008
10.8044,1.9399
10.8097,1.5377
10.8107,1.351
10.8117,1.2621
10.8127,1.251
10.8127,1.2507
10.8164,1.2599
10.8175,1.3455
10.8175,1.7406
10.8185,1.9407
10.8234,2.1094
10.8244,2.1987
10.8254,2.0999
10.8264,1.9606
10.8264,1.7515
10.8294,1.5462
10.8304,1.2632
10.8314,1.2509
10.8324,1.2497
10.8324,1.2509
10.8364,1.3397
10.8374,1.5449
10.8374,1.7427
10.8384,2.1042
10.8442,2.2043
10.8453,2.1996
10.8453,2.1046
10.8463,1.7597
10.8463,1.56
10.8507,1.363
10.8515,1.2638
10.8515,1.2499
10.8525,1.2503
10.8580,1.2563
10.8580,1.323
10.8590,1.7206
10.8590,1.9156
10.8600,2.0796
10.8642,2.1869
10.8651,2.101
10.8651,1.9585
10.8661,1.756
10.8714,1.3598
10.8714,1.263
10.8724,1.251
10.8724,1.2497
10.8734,1.2557
10.8775,1.3184
10.8786,1.5075
10.8786,1.7093
10.8796,2.0854
10.8796,2.1918
10.8845,2.197
10.8845,2.1119
10.8857,1.7746
10.8945,1.5599
10.9035,1.3714
10.9066,1.2518
10.9075,1.2499
10.9075,1.2499
10.9085,1.2552
10.9085,1.5051
10.9095,1.7061
10.9095,1.9013
10.9105,2.0708
10.9105,2.2058
10.9115,2.1237
10.9120,1.9746
10.9125,1.7826
10.9125,1.3836
10.9135,1.2677
10.9135,1.2497
10.9145,1.2548
10.9145,1.311
10.9197,1.5012
10.9207,1.9052
10.9207,2.0789
10.9217,2.1852
10.9217,2.2064
10.9264,1.9919
10.9275,1.7971
10.9278,1.5936
10.9285,1.2717
10.9294,1.2522
10.9334,1.2503
10.9334,1.2501
10.9344,1.2983
10.9344,1.488
10.9409,1.6924
10.9416,1.8951
10.9416,2.1796
10.9427,2.2073
10.9427,2.1351
10.9469,1.9956
10.9479,1.5929
10.9479,1.4052
10.9489,1.2707
10.9542,1.2518
10.9550,1.2499
10.9550,1.2533
10.9560,1.2977
10.9560,1.4729
10.9612,1.8781
10.9617,2.0551
10.9617,2.1726
10.9617,2.1321
10.9679,2.0136
10.9679,1.8263
10.9688,1.6146
10.9688,1.2797
10.9698,1.2525
10.9740,1.2501
10.9748,1.2497
10.9748,1.2914
10.9759,1.4732
10.9759,1.669
10.9808,1.8679
10.9808,2.1775
10.9819,2.2144
10.9819,2.1426
10.9883,2.0211
10.9883,1.6225
10.9894,1.4344
10.9894,1.2801
10.9904,1.2505
10.9946,1.2505
11.0014,1.2544
11.0134,1.2938
11.0174,1.6624
11.0174,1.8709
11.0184,2.0434
11.0184,2.1726
11.0194,2.1608
11.0194,2.0386
11.0204,1.8501
11.0204,1.6397
11.0211,1.2859
11.0214,1.2531
11.0214,1.2497
11.0224,1.2499
11.0224,1.2872
11.0234,1.456
11.0234,1.6484
11.0234,2.0406
11.0244,2.1786
11.0254,2.2313
11.0254,2.1738
11.0254,1.8426
11.0293,1.6169
11.0303,1.41
11.0303,1.2717
11.0313,1.2495
11.0356,1.2492
11.0356,1.2509
11.0366,1.2675
11.0366,1.6015
11.0376,1.7926
11.0419,1.9682
11.0431,2.1119
11.0439,2.1055
11.0449,1.9851
11.0486,1.8001
11.0486,1.591
11.0497,1.266
11.0497,1.2499
11.0507,1.2486
11.0554,1.2484
11.0554,1.2578
11.0564,1.3512
11.0564,1.5471
11.0622,1.9197
11.0622,2.0502
11.0632,2.1034
11.0632,2.0453
11.0642,1.7524
11.0684,1.533
11.0695,1.3397
11.0695,1.258
11.0704,1.2482
11.0704,1.248
11.0754,1.2486
11.0804,1.252
11.0814,1.4682
11.0814,1.6596
11.0826,1.8377
11.0826,1.975
11.0836,1.9825
11.0836,1.8709
11.0846,1.6883
11.0889,1.4777
11.0899,1.2524
11.0899,1.2484
11.0909,1.2477
11.0962,1.2479
11.0971,1.2494
11.0980,1.2659
11.0980,1.3795
11.0990,1.5694
11.1021,1.9006
11.1030,1.9611
11.1030,1.9186
11.1040,1.6195
11.1090,1.4121
11.1100,1.2741
11.1100,1.2503
11.1112,1.2482
11.1112,1.248
11.1156,1.248
11.1162,1.2484
11.1172,1.3152
11.1172,1.4959
11.1172,1.6786
11.1471,1.825
11.1481,1.8488
11.1495,1.7554
11.1501,1.5775
11.1511,1.3699
11.1521,1.2488
11.1531,1.2482
11.1571,1.2479
11.1581,1.248
11.1591,1.248
11.1601,1.2509
11.1601,1.2846
11.1621,1.4303
11.1631,1.7734
11.1631,1.8516
11.1641,1.8137
11.1651,1.6952
11.1661,1.3386
11.1671,1.2563
11.1671,1.2486
11.1681,1.248
11.1691,1.2482
11.1701,1.2482
11.1711,1.2482
11.1721,1.249
11.1721,1.3919
11.1731,1.5812
11.1740,1.7344
11.1750,1.7729
11.1750,1.6761
11.1760,1.5162
11.1770,1.3227
11.1780,1.2486
11.1790,1.248
11.1800,1.248
11.1800,1.248
11.1810,1.2479
11.1820,1.249
11.1832,1.2629
11.1832,1.359
11.1840,1.7067
11.1850,1.7879
11.1860,1.7577
11.1860,1.6527
11.1870,1.3161
11.1900,1.2535
11.1910,1.2484
11.1920,1.248
11.1920,1.2482
11.1930,1.2482
11.1970,1.248
11.1970,1.2488
11.1980,1.3472
11.1990,1.5315
11.2030,1.6891
11.2040,1.771
11.2050,1.6598
11.2060,1.4952
11.2060,1.3054
11.2099,1.2482
11.2111,1.248
11.2119,1.2479
11.2119,1.2479
11.2129,1.248
11.2171,1.2484
11.2179,1.2561
11.2189,1.3272
11.2199,1.66
11.2239,1.753
11.2249,1.7406
11.2259,1.6476
11.2269,1.3086
11.2279,1.2529
11.2311,1.2484
11.2392,1.248
11.2618,1.2484
11.2668,1.2482
11.2678,1.248
11.2688,1.2482
11.2688,1.3185
11.2698,1.4963
11.2698,1.6534
11.2708,1.7389
11.2708,1.6457
11.2718,1.5032
11.2718,1.3129
11.2728,1.2484
11.2738,1.248
11.2738,1.2482
11.2748,1.2482
11.2748,1.248
11.2758,1.2482
11.2768,1.2539
11.2768,1.3142
11.2779,1.6675
11.2788,1.7586
11.2791,1.765
11.2798,1.684
11.2798,1.3349
11.2798,1.255
11.2808,1.2486
11.2808,1.2482
11.2818,1.2482
11.2818,1.248
11.2818,1.248
11.2828,1.2482
11.2828,1.3189
11.2828,1.4974
11.2838,1.6829
11.2848,1.7826
11.2848,1.705
11.2857,1.5627
11.2857,1.368
11.2857,1.2492
11.2907,1.2479
11.2917,1.2482
11.2917,1.248
11.2917,1.248
11.2983,1.2482
11.2983,1.2555
11.2987,1.3255
11.2987,1.6829
11.2987,1.7873
11.3047,1.8072
11.3047,1.7252
11.3047,1.4031
11.3047,1.2659
11.3057,1.2499
11.3118,1.2482
11.3127,1.2484
11.3127,1.2482
11.3127,1.2479
11.3187,1.2565
11.3187,1.3334
11.3187,1.5269
11.3197,1.6896
11.3197,1.8154
11.3251,1.7284
11.3256,1.6005
11.3256,1.4044
11.3256,1.2501
11.3316,1.248
11.3326,1.2479
11.3326,1.2482
11.3326,1.248
11.3326,1.2482
11.3386,1.2555
11.3386,1.3225
11.3386,1.6799
11.3386,1.7959
11.3486,1.8237
11.3494,1.609
11.3506,1.4151
11.3506,1.273
11.3516,1.2507
11.3518,1.248
11.3518,1.2482
11.3518,1.248
11.3526,1.2479
11.3526,1.2539
11.3585,1.3124
11.3585,1.4965
11.3595,1.6654
11.3595,1.8158
11.3655,1.7406
11.3665,1.6178
11.3665,1.2734
11.3665,1.2501
11.3665,1.2479
11.3725,1.2479
11.3725,1.248
11.3725,1.248
11.3735,1.2482
11.3795,1.2535
11.3795,1.4826
11.3805,1.6686
11.3805,1.7974
11.3805,1.8286
11.3855,1.632
11.3865,1.4442
11.3865,1.2786
11.3875,1.251
11.3925,1.248
11.3935,1.2482
11.3935,1.248
11.3945,1.248
11.3945,1.2535
11.3994,1.3116
11.3994,1.4854
11.3994,1.7961
11.4004,1.8424
11.4007,1.7669
11.4064,1.6501
11.4064,1.2951
11.4064,1.2524
11.4064,1.2482
11.4136,1.2479
11.4136,1.248
11.4144,1.248
11.4144,1.2484
11.4144,1.2555
11.4194,1.5111
11.4204,1.6898
11.4204,1.8145
11.4214,1.8559
11.4264,1.6846
11.4274,1.4955
11.4277,1.3035
11.4277,1.2486
11.4284,1.248
11.4334,1.2482
11.4334,1.248
11.4334,1.2482
11.4347,1.2542
11.4403,1.3227
11.4403,1.507
11.4403,1.8308
11.4403,1.8781
11.4413,1.81
11.4466,1.6975
11.4466,1.3172
11.4466,1.2548
11.4473,1.2484
11.4473,1.248
11.4593,1.248
11.4613,1.2479
11.4623,1.2482
11.4623,1.2552
11.4623,1.5077
11.4623,1.6911
11.4633,1.822
11.4633,1.8259
11.4633,1.7097
11.4673,1.5276
11.4673,1.33
11.4673,1.249
11.4683,1.248
11.4743,1.248
11.4743,1.2479
11.4743,1.2482
11.4752,1.2539
11.4752,1.3172
11.4802,1.491
11.4802,1.8304
11.4812,1.8792
11.4812,1.8218
11.4872,1.5362
11.4882,1.3437
11.4882,1.2582
11.4882,1.2488
11.4882,1.2482
11.4942,1.248
11.4942,1.2479
11.4942,1.248
11.4952,1.3187
11.4952,1.5122
11.5012,1.6932
11.5012,1.8366
11.5012,1.8449
11.5022,1.7491
11.5081,1.5674
11.5081,1.3647
11.5092,1.2494
11.5092,1.2479
11.5092,1.2482
11.5141,1.248
11.5151,1.2482
11.5151,1.2527
11.5161,1.3092
11.5211,1.6682
11.5221,1.8167
11.5221,1.8734
11.5221,1.8421
11.5231,1.5765
11.5281,1.371
11.5291,1.2606
11.5291,1.2494
11.5291,1.248
11.5351,1.248
11.5351,1.2479
11.5351,1.2482
11.5361,1.3185
11.5361,1.4995
11.5411,1.6857
11.5421,1.9051
11.5421,1.8726
11.5421,1.7725
11.5421,1.594
11.5485,1.2666
11.5490,1.2499
11.5490,1.248
11.5490,1.2482
11.5550,1.2479
11.5560,1.2482
11.5560,1.2527
11.5560,1.3058
11.5560,1.6679
11.5651,1.8226
11.5700,1.8944
11.5720,1.8754
11.5720,1.6185
11.5720,1.4117
11.5730,1.2711
11.5730,1.248
11.5730,1.2482
11.5740,1.2479
11.5750,1.2479
11.5750,1.2529
11.5760,1.3097
11.5760,1.4935
11.5820,1.6819
11.5829,1.9255
11.5829,1.8976
11.5829,1.7941
11.5829,1.6315
11.5889,1.2788
11.5889,1.2507
11.5889,1.248
11.5899,1.248
11.5899,1.2479
11.5959,1.2482
11.5959,1.2533
11.5959,1.485
11.5969,1.6827
11.6029,1.8413
11.6029,1.9184
11.6039,1.8113
11.6039,1.6532
11.6039,1.4464
11.6089,1.282
11.6099,1.2484
11.6099,1.248
11.6099,1.248
11.6159,1.248
11.6159,1.2527
11.6169,1.3116
11.6169,1.485
11.6169,1.6722
11.6228,1.9212
11.6228,1.9096
11.6228,1.8209
11.6238,1.447
11.6300,1.2846
11.6300,1.251
11.6300,1.2482
11.6300,1.2482
11.6308,1.2479
11.6378,1.248
11.6378,1.2516
11.6378,1.4667
11.6389,1.8269
11.6389,1.9013
11.6450,1.8229
11.6450,1.666
11.6458,1.4571
11.6458,1.2522
11.6518,1.248
11.6518,1.248
11.6528,1.248
11.6528,1.2482
11.6528,1.2514
11.6577,1.2966
11.6587,1.4676
11.6587,1.8248
11.6587,1.9201
11.6655,1.9186
11.6657,1.8312
11.6657,1.4894
11.6657,1.3047
11.6667,1.254
11.6737,1.248
11.6817,1.2482
11.6837,1.248
11.6837,1.2482
11.6837,1.2966
11.6837,1.4714
11.6847,1.672
11.6847,1.8411
11.6847,1.9352
11.6847,1.8526
11.6857,1.7048
11.6857,1.5055
11.6857,1.2552
11.6857,1.2484
11.6917,1.248
11.6927,1.2479
11.6927,1.2484
11.6927,1.2516
11.6986,1.2955
11.6996,1.4644
11.6996,1.8312
11.6996,1.9439
11.6996,1.9529
11.7056,1.7176
11.7056,1.519
11.7066,1.3227
11.7066,1.257
11.7126,1.2482
11.7126,1.248
11.7126,1.248
11.7136,1.248
11.7136,1.2921
11.7186,1.4725
11.7196,1.6664
11.7196,1.8351
11.7196,1.9564
11.7256,1.8792
11.7256,1.7455
11.7266,1.5484
11.7266,1.2584
11.7266,1.2488
11.7325,1.2482
11.7325,1.2479
11.7325,1.248
11.7325,1.2514
11.7335,1.2929
11.7395,1.4567
11.7395,1.8332
11.7395,1.9467
11.7395,1.9613
11.7465,1.8857
11.7465,1.563
11.7475,1.357
11.7475,1.2597
11.7475,1.2479
11.7525,1.248
11.7535,1.2479
11.7535,1.248
11.7535,1.285
11.7595,1.4492
11.7605,1.6538
11.7610,1.8323
11.7610,1.9823
11.7615,1.9069
11.7665,1.7734
11.7665,1.5732
11.7665,1.2625
11.7675,1.2492
11.7734,1.248
11.7734,1.248
11.7734,1.2482
11.7744,1.2505
11.7744,1.2852
11.7794,1.6411
11.7794,1.8259
11.7834,1.9356
11.7914,1.9591
11.7924,1.7661
11.7931,1.5829
11.7934,1.3765
11.7934,1.2634
11.7934,1.2479
11.7944,1.2479
11.7944,1.2479
11.7944,1.248
11.7954,1.2857
11.7954,1.4442
11.8004,1.6472
11.8004,1.8235
11.8004,1.9966
11.8014,1.9266
11.8073,1.7982
11.8073,1.4005
11.8073,1.2704
11.8083,1.2501
11.8083,1.248
11.8133,1.2479
11.8143,1.248
11.8143,1.2512
11.8143,1.2895
11.8203,1.6512
11.8213,1.8271
11.8213,1.957
11.8213,1.9874
11.8223,1.8111
11.8273,1.617
11.8273,1.3881
11.8273,1.2501
11.8283,1.2482
11.8283,1.2479
11.8343,1.2479
11.8343,1.2503
11.8343,1.282
11.8353,1.4534
11.8413,1.6712
11.8413,2.0134
11.8423,2.0663
11.8423,2.0026
11.8423,1.8829
11.8472,1.4886
11.8482,1.3274
11.8482,1.2565
11.8482,1.2486
11.8549,1.2484
11.8552,1.2497
11.8552,1.263
11.8562,1.5749
11.8562,1.7747
11.8613,1.9516
11.8613,2.0989
11.8622,2.1136
11.8622,2.0125
11.8682,1.8338
11.8682,1.6274
11.8692,1.2857
11.8692,1.2533
11.8692,1.2499
11.8742,1.2501
11.8752,1.2861
11.8752,1.4597
11.8752,1.6711
11.8762,2.0676
11.8812,2.2109
11.8821,2.26
11.8821,2.2118
11.8821,1.9414
11.8891,1.7399
11.8891,1.5364
11.8891,1.3495
11.8891,1.2557
11.8901,1.2544
11.9021,1.2627
11.9031,1.3379
11.9041,1.7506
11.9041,1.9585
11.9041,2.1588
11.9041,2.3481
11.9051,2.3121
11.9051,2.1974
11.9051,2.0264
11.9081,1.6313
11.9091,1.4453
11.9091,1.3026
11.9091,1.2672
11.9151,1.2874
11.9161,1.4091
11.9161,1.6161
11.9161,1.8308
11.9161,2.2163
11.9220,2.3751
11.9220,2.4293
11.9220,2.3988
11.9231,2.1273
11.9231,1.9148
11.9290,1.7267
11.9290,1.3845
11.9300,1.306
11.9300,1.2904
11.9360,1.3467
11.9370,1.6801
11.9370,1.891
11.9370,2.0898
11.9370,2.2928
11.9430,2.5152
11.9430,2.4828
11.9430,2.3774
11.9440,2.2096
11.9490,1.8126
11.9500,1.6257
11.9500,1.4614
11.9500,1.3281
11.9510,1.3909
11.9560,1.528
11.9560,1.7264
11.9569,2.1409
11.9569,2.3363
11.9629,2.4873
11.9629,2.5677
11.9639,2.4361
11.9639,2.2638
11.9639,2.0583
11.9689,1.8717
11.9699,1.5055
11.9699,1.4063
11.9699,1.3795
11.9710,1.4363
11.9769,1.7629
11.9769,1.9741
11.9769,2.1706
11.9776,2.5248
11.9839,2.5956
11.9839,2.5634
11.9839,2.4618
11.9849,2.092
11.9849,1.8951
11.9899,1.6949
11.9899,1.5265
11.9909,1.3866
11.9909,1.4412
11.9968,1.5544
11.9968,1.7468
11.9978,2.1582
11.9978,2.3536
11.9978,2.5109
12.0058,2.5998
12.0128,2.4852
12.0133,2.3144
12.0148,2.1068
12.0148,1.7078
12.0148,1.533
12.0148,1.4123
12.0158,1.3722
12.0158,1.5437
12.0168,1.7404
12.0168,1.9461
12.0168,2.1364
12.0168,2.4912
12.0178,2.5791
12.0238,2.5611
12.0238,2.4541
12.0238,2.0959
12.0248,1.8934
12.0308,1.6941
12.0308,1.518
12.0317,1.3722
12.0317,1.4217
12.0317,1.5366
12.0377,1.7194
12.0377,2.1303
12.0377,2.3266
12.0377,2.4886
12.0446,2.5799
12.0447,2.4666
12.0458,2.3037
12.0458,2.1023
12.0458,1.7059
12.0508,1.5327
12.0508,1.413
12.0517,1.3654
12.0517,1.5194
12.0577,1.7063
12.0577,1.9157
12.0577,2.1138
12.0587,2.473
12.0587,2.5733
12.0643,2.5656
12.0647,2.4695
12.0647,2.11
12.0647,1.9144
12.0647,1.7138
12.0706,1.539
12.0716,1.377
12.0716,1.4119
12.0716,1.5225
12.0786,1.7012
12.0786,2.1085
12.0786,2.3116
12.0786,2.4818
12.0796,2.5728
12.0846,2.4841
12.0876,2.3322
12.0876,2.125
12.0876,1.7267
12.0916,1.5533
12.0916,1.41
12.0916,1.3589
12.0926,1.5064
12.0926,1.6844
12.0976,1.8972
12.0986,2.0854
12.0986,2.4453
12.0986,2.5557
12.1046,2.558
12.1056,2.4638
12.1056,2.1207
12.1056,1.9174
12.1065,1.7172
12.1116,1.5314
12.1116,1.3562
12.1116,1.3808
12.1116,1.4817
12.1125,1.8702
12.1245,2.0716
12.1265,2.2666
12.1265,2.4361
12.1265,2.5422
12.1265,2.461
12.1275,2.3223
12.1276,2.1203
12.1276,1.7138
12.1276,1.5344
12.1315,1.4007
12.1325,1.3356
12.1325,1.4667
12.1325,1.6426
12.1385,1.8552
12.1395,2.2463
12.1395,2.422
12.1405,2.527
12.1405,2.5347
12.1454,2.3142
12.1454,2.1153
12.1464,1.9116
12.1464,1.7224
12.1524,1.3992
12.1524,1.3365
12.1524,1.3577
12.1534,1.4513
12.1534,1.8226
12.1584,2.0341
12.1594,2.2323
12.1594,2.4021
12.1594,2.5306
12.1604,2.4543
12.1660,2.3185
12.1664,2.1231
12.1664,1.7312
12.1664,1.5387
12.1724,1.3975
12.1734,1.3367
12.1734,1.4438
12.1734,1.6095
12.1744,1.8192
12.1794,2.2174
12.1794,2.3918
12.1794,2.5034
12.1803,2.5347
12.1863,2.323
12.1863,2.1269
12.1863,1.9176
12.1873,1.7282
12.1873,1.3939
12.1923,1.3319
12.1923,1.3399
12.1933,1.4249
12.1933,1.7954
12.1999,2.0003
12.2003,2.2002
12.2003,2.3839
12.2003,2.5154
12.2013,2.4484
12.2063,2.3271
12.2063,2.1316
12.2063,1.7357
12.2073,1.5462
12.2073,1.3898
12.2133,1.332
12.2133,1.416
12.2133,1.5668
12.2143,1.7734
12.2202,2.1726
12.2202,2.3569
12.2202,2.4865
12.2212,2.5274
12.2212,2.3307
12.2292,2.1338
12.2379,1.9227
12.2392,1.7356
12.2392,1.4001
12.2400,1.3315
12.2402,1.3335
12.2402,1.4065
12.2402,1.7704
12.2412,1.9806
12.2412,2.1739
12.2412,2.3496
12.2412,2.5298
12.2422,2.4595
12.2473,2.3339
12.2473,2.1449
12.2473,1.7502
12.2473,1.5584
12.2482,1.396
12.2532,1.3266
12.2532,1.4035
12.2542,1.5599
12.2542,1.7515
12.2542,2.1674
12.2609,2.3436
12.2611,2.4636
12.2611,2.5165
12.2621,2.3404
12.2671,2.1535
12.2681,1.9367
12.2681,1.7506
12.2681,1.4063
12.2681,1.3337
12.2742,1.3187
12.2742,1.3898
12.2742,1.7451
12.2742,1.9523
12.2811,2.1453
12.2811,2.3228
12.2811,2.5017
12.2821,2.4439
12.2821,2.3253
12.2871,1.9285
12.2871,1.7376
12.2881,1.5409
12.2881,1.3851
12.2945,1.3005
12.2945,1.3634
12.2950,1.506
12.2950,1.7052
12.2950,2.1132
12.3000,2.3029
12.3010,2.4432
12.3010,2.4923
12.3010,2.3249
12.3010,2.1468
12.3080,1.9397
12.3080,1.7466
12.3080,1.392
12.3080,1.3135
12.3150,1.3022
12.3150,1.368
12.3150,1.711
12.3160,1.9131
12.3160,2.1124
12.3210,2.2917
12.3210,2.4953
12.3220,2.458
12.3220,2.347
12.3280,1.966
12.3280,1.7635
12.3290,1.5632
12.3290,1.399
12.3290,1.3047
12.3349,1.3652
12.3349,1.4954
12.3349,1.6947
12.3359,2.1046
12.3418,2.2949
12.3479,2.4378
12.3503,2.4929
12.3509,2.3464
12.3509,2.1754
12.3509,1.9583
12.3519,1.7633
12.3519,1.4106
12.3519,1.3133
12.3519,1.2951
12.3551,1.3504
12.3551,1.6851
12.3559,1.8914
12.3559,2.0824
12.3640,2.4295
12.3640,2.5025
12.3649,2.4627
12.3649,2.3425
12.3649,1.9589
12.3703,1.573
12.3708,1.3099
12.3708,1.2966
12.3708,1.3467
12.3777,1.4706
12.3778,1.8704
12.3788,2.0778
12.3788,2.2696
12.3798,2.4123
12.3838,2.4567
12.3838,2.3536
12.3838,2.1816
12.3848,1.9748
12.3908,1.5769
12.3908,1.4037
12.3908,1.3041
12.3908,1.3214
12.3918,1.4477
12.3972,1.6422
12.3972,1.8494
12.3978,2.2422
12.3978,2.4049
12.3978,2.4732
12.4043,2.4393
12.4047,2.1751
12.4047,1.9624
12.4047,1.7626
12.4115,1.5713
12.4117,1.3056
12.4117,1.2829
12.4127,1.3157
12.4127,1.6294
12.4178,1.8424
12.4178,2.0376
12.4178,2.2287
12.4187,2.4576
12.4247,2.4458
12.4247,2.3551
12.4257,2.1901
12.4257,1.7864
12.4257,1.5919
12.4307,1.4159
12.4317,1.3028
12.4317,1.3176
12.4317,1.4279
12.4387,1.6125
12.4430,2.0121
12.4476,2.2122
12.4496,2.3727
12.4498,2.4563
12.4498,2.3461
12.4498,2.1903
12.4506,1.9859
12.4506,1.7828
12.4506,1.4172
12.4518,1.314
12.4518,1.2839
12.4518,1.3069
12.4526,1.5985
12.4586,1.8177
12.4586,2.0132
12.4596,2.209
12.4596,2.4627
12.4596,2.4569
12.4646,2.3564
12.4656,1.9996
12.4656,1.8004
12.4656,1.6005
12.4716,1.4166
12.4726,1.2818
12.4726,1.3095
12.4726,1.4087
12.4736,1.5827
12.4786,1.993
12.4786,2.191
12.4796,2.3511
12.4796,2.4411
12.4855,2.341
12.4855,2.1886
12.4865,1.9772
12.4865,1.7746
12.4865,1.417
12.4915,1.3026
12.4925,1.2771
12.4925,1.3802
12.4925,1.5707
12.4935,1.7676
12.4995,1.9609
12.4995,2.3281
12.4995,2.4192
12.4995,2.4201
12.5065,2.3359
12.5065,1.9866
12.5065,1.7849
12.5075,1.5844
12.5075,1.4016
12.5125,1.2711
12.5125,1.2814
12.5135,1.3574
12.5135,1.7494
12.5194,1.9499
12.5194,2.1471
12.5204,2.3099
12.5204,2.4226
12.5204,2.3356
12.5254,2.1861
12.5264,1.9825
12.5264,1.5884
12.5264,1.4078
12.5324,1.2891
12.5334,1.2692
12.5334,1.3457
12.5344,1.5169
12.5344,1.7312
12.5394,2.1327
12.5394,2.3014
12.5404,2.3958
12.5404,2.4087
12.5404,2.1835
12.5468,1.9868
12.5474,1.7772
12.5474,1.5867
12.5474,1.291
12.5534,1.2689
12.5543,1.2784
12.5543,1.3457
12.5543,1.7198
12.5543,1.9191
12.5623,2.1186
12.5703,2.3841
12.5713,2.4175
12.5723,2.3309
12.5723,2.1934
12.5723,1.7894
12.5723,1.6028
12.5733,1.4084
12.5736,1.2929
12.5736,1.2745
12.5736,1.3311
12.5743,1.4867
12.5743,1.7007
12.5809,2.1183
12.5809,2.2878
12.5813,2.3997
12.5813,2.3532
12.5813,2.2253
12.5873,2.0311
12.5873,1.8207
12.5873,1.4399
12.5883,1.311
12.5883,1.2739
12.5943,1.2767
12.5943,1.4924
12.5954,1.7057
12.5954,1.9067
12.6012,2.1181
12.6012,2.4115
12.6022,2.4479
12.6022,2.3663
12.6022,2.0397
12.6072,1.8349
12.6082,1.6412
12.6082,1.4489
12.6082,1.2786
12.6149,1.2812
12.6152,1.3431
12.6152,1.491
12.6152,1.9024
12.6162,2.1104
12.6212,2.2889
12.6212,2.3999
12.6222,2.3633
12.6222,2.2336
12.6284,2.0326
12.6284,1.6324
12.6284,1.4494
12.6291,1.3077
12.6291,1.276
12.6341,1.3255
12.6351,1.477
12.6351,1.6786
12.6351,1.8799
12.6351,2.2696
12.6411,2.3965
12.6421,2.4175
12.6421,2.353
12.6421,2.0453
12.6491,1.8282
12.6491,1.6371
12.6491,1.3052
12.6501,1.2719
12.6501,1.2711
12.6551,1.3154
12.6551,1.6654
12.6561,1.8644
12.6561,2.0665
12.6625,2.2444
12.6625,2.4243
12.6631,2.3583
12.6631,2.2362
12.6631,2.0579
12.6680,1.6562
12.6690,1.4704
12.6690,1.3163
12.6690,1.2737
12.6760,1.3159
12.6810,1.459
12.6830,1.6598
12.6834,2.0494
12.6834,2.236
12.6840,2.3734
12.6840,2.4109
12.6840,2.2317
12.6850,2.0474
12.6850,1.8406
12.6890,1.6427
12.6890,1.3064
12.6890,1.2698
12.6900,1.2689
12.6964,1.3065
12.6964,1.6382
12.6970,1.8441
12.6970,2.0461
12.6970,2.2302
12.7020,2.428
12.7030,2.362
12.7030,2.2386
12.7039,2.0562
12.7089,1.6574
12.7099,1.4693
12.7099,1.3197
12.7108,1.2675
12.7109,1.2983
12.7160,1.4264
12.7160,1.6234
12.7169,2.0376
12.7169,2.2216
12.7229,2.3639
12.7229,2.4192
12.7229,2.2555
12.7239,2.0793
12.7239,1.8679
12.7294,1.6671
12.7299,1.323
12.7299,1.2717
12.7299,1.2655
12.7309,1.296
12.7365,1.6131
12.7369,1.8241
12.7369,2.0294
12.7369,2.2223
12.7428,2.4147
12.7438,2.3678
12.7441,2.2576
12.7441,1.8741
12.7448,1.6831
12.7498,1.488
12.7498,1.3238
12.7498,1.2677
12.7508,1.2938
12.7568,1.407
12.7568,1.5987
12.7568,1.9992
12.7578,2.1878
12.7578,2.3333
12.7628,2.395
12.7638,2.2645
12.7638,2.0853
12.7638,1.8638
12.7698,1.6658
12.7708,1.3214
12.7708,1.2683
12.7708,1.2629
12.7708,1.2833
12.7768,1.5805
12.7768,1.7839
12.7775,1.9791
12.7778,2.3232
12.7778,2.3811
12.7879,2.3569
12.7938,2.2486
12.7947,1.8655
12.7957,1.6677
12.7957,1.4787
12.7957,1.315
12.7957,1.2617
12.7967,1.2777
12.7967,1.3677
12.7972,1.5574
12.7972,1.9662
12.7977,2.1584
12.7977,2.3106
12.8037,2.3808
12.8047,2.2578
12.8047,2.0898
12.8047,1.8719
12.8047,1.48
12.8109,1.3229
12.8109,1.2704
12.8117,1.2647
12.8117,1.3845
12.8176,1.5803
12.8176,1.7815
12.8176,1.9757
12.8186,2.3388
12.8186,2.422
12.8236,2.3969
12.8246,2.2885
12.8246,1.93
12.8246,1.7314
12.8246,1.5319
12.8306,1.3699
12.8316,1.2722
12.8316,1.3095
12.8316,1.4204
12.8376,1.6195
12.8386,2.0211
12.8386,2.2225
12.8386,2.3789
12.8396,2.4591
12.8446,2.3631
12.8446,2.203
12.8446,1.9977
12.8456,1.6045
12.8516,1.4367
12.8516,1.3255
12.8516,1.2953
12.8526,1.4586
12.8526,1.6557
12.8575,1.8745
12.8575,2.0725
12.8585,2.4231
12.8585,2.5167
12.8645,2.4944
12.8645,2.4068
12.8655,2.0468
12.8655,1.8507
12.8655,1.6546
12.8715,1.4826
12.8715,1.3184
12.8715,1.3639
12.8715,1.4909
12.8725,1.6761
12.8785,2.1042
12.8785,2.3013
12.8785,2.455
12.8785,2.5355
12.8855,2.4421
12.8855,2.2898
12.8855,2.0832
12.8865,1.7072
12.8865,1.5259
12.8915,1.4009
12.8924,1.3583
12.8954,1.5096
12.9024,1.6892
12.9034,1.9026
12.9044,2.1001
12.9044,2.4708
12.9044,2.5649
12.9052,2.5538
12.9054,2.4648
12.9054,2.1128
12.9054,1.9043
12.9054,1.7116
12.9124,1.408
12.9124,1.3697
12.9124,1.4033
12.9134,1.5171
12.9134,1.9099
12.9184,2.1128
12.9184,2.2986
12.9194,2.4524
12.9194,2.5683
12.9194,2.4863
12.9258,2.3343
12.9258,2.1348
12.9264,1.7305
12.9264,1.5482
12.9323,1.4166
12.9333,1.3739
12.9333,1.5072
12.9333,1.6966
12.9333,1.9107
12.9393,2.2928
12.9393,2.4681
12.9403,2.5776
12.9404,2.5803
12.9463,2.3483
12.9463,2.1475
12.9463,1.9405
12.9473,1.7453
12.9473,1.4318
12.9523,1.3823
12.9523,1.3947
12.9533,1.4957
12.9533,1.8871
12.9593,2.0813
12.9593,2.2801
12.9603,2.4492
12.9607,2.5677
12.9607,2.4753
12.9653,2.3284
12.9662,2.1297
12.9662,1.7294
12.9662,1.5392
12.9672,1.4052
12.9732,1.381
12.9732,1.4766
12.9732,1.6471
12.9732,1.8589
12.9802,2.2568
12.9802,2.4348
12.9802,2.5377
12.9812,2.5595
12.9812,2.3307
12.9862,2.1348
12.9872,1.927
12.9872,1.7307
12.9872,1.4087
12.9932,1.3482
12.9942,1.3547
12.9942,1.4498
12.9942,1.8389
12.9942,2.026
13.0002,2.2233
13.0002,2.513
13.0002,2.5578
13.0012,2.4764
13.0073,2.3434
13.0145,1.9242
13.0151,1.7333
13.0161,1.5467
13.0161,1.4007
13.0161,1.3604
13.0161,1.4564
13.0171,1.6112
13.0171,1.8233
13.0171,2.2311
13.0201,2.4027
13.0211,2.5208
13.0211,2.5501
13.0211,2.3493
13.0276,2.1528
13.0281,1.9399
13.0281,1.5638
13.0281,1.4108
13.0291,1.3435
13.0341,1.3491
13.0341,1.5927
13.0341,1.8096
13.0351,2.0177
13.0410,2.2216
13.0410,2.5143
13.0410,2.5385
13.0420,2.4706
13.0420,2.3524
13.0470,1.9506
13.0470,1.7494
13.0480,1.5512
13.0480,1.3995
13.0540,1.3452
13.0540,1.4284
13.0550,1.5788
13.0550,1.7896
13.0550,2.1951
13.0610,2.3764
13.0610,2.5019
13.0610,2.4764
13.0620,2.3581
13.0620,2.1661
13.0680,1.9523
13.0680,1.5647
13.0680,1.4072
13.0690,1.3362
13.0750,1.3343
13.0750,1.5675
13.0750,1.7845
13.0760,1.9907
13.0760,2.1955
13.0809,2.4946
13.0819,2.534
13.0819,2.4696
13.0819,2.3521
13.0879,1.9619
13.0919,1.7639
13.0919,1.5664
13.0929,1.3365
13.0929,1.3392
13.0959,1.408
13.0969,1.5576
13.0969,1.9711
13.0969,2.3622
13.1036,2.5392
13.1039,2.4805
13.1039,2.3652
13.1039,2.1758
13.1039,1.7672
13.1099,1.5867
13.1099,1.4279
13.1099,1.347
13.1109,1.4213
13.1109,1.5694
13.1208,1.7725
13.1265,1.9729
13.1279,2.359
13.1279,2.4921
13.1279,2.5349
13.1288,2.3669
13.1288,2.1889
13.1288,1.9669
13.1288,1.7663
13.1304,1.4144
13.1308,1.3328
13.1308,1.3242
13.1308,1.3926
13.1368,1.7468
13.1378,1.9484
13.1378,2.1408
13.1378,2.3219
13.1378,2.5145
13.1442,2.4618
13.1442,2.3466
13.1448,1.9626
13.1448,1.7695
13.1508,1.5685
13.1508,1.4029
13.1518,1.315
13.1521,1.3896
13.1521,1.518
13.1567,1.7159
13.1577,2.1235
13.1577,2.3095
13.1577,2.455
13.1587,2.5079
13.1647,2.3485
13.1647,2.1809
13.1647,1.9701
13.1647,1.575
13.1717,1.4033
13.1717,1.3067
13.1717,1.2942
13.1727,1.4882
13.1727,1.6904
13.1778,1.8996
13.1778,2.101
13.1787,2.4464
13.1787,2.5034
13.1847,2.4608
13.1847,2.3468
13.1857,1.9641
13.1857,1.7702
13.1857,1.5666
13.1906,1.3088
13.1916,1.2944
13.1916,1.3365
13.1916,1.4652
13.1976,1.8824
13.1986,2.0869
13.1986,2.2722
13.1996,2.4143
13.1996,2.4511
13.2046,2.3493
13.2046,2.1764
13.2056,1.9701
13.2056,1.5659
13.2056,1.4074
13.2116,1.3095
13.2126,1.2914
13.2126,1.459
13.2126,1.6514
13.2186,1.8634
13.2196,2.2519
13.2196,2.4089
13.2196,2.4816
13.2196,2.4511
13.2256,2.1858
13.2286,1.9829
13.2365,1.7815
13.2385,1.585
13.2385,1.3154
13.2395,1.2964
13.2395,1.3364
13.2395,1.4504
13.2405,1.8642
13.2405,2.0629
13.2405,2.2563
13.2405,2.4048
13.2405,2.4636
13.2455,2.3618
13.2455,2.1964
13.2465,1.9941
13.2465,1.6065
13.2465,1.437
13.2515,1.3212
13.2525,1.3371
13.2525,1.4584
13.2525,1.6403
13.2535,1.8477
13.2595,2.2523
13.2595,2.4145
13.2595,2.4884
13.2595,2.4635
13.2665,2.1994
13.2665,2.0035
13.2665,1.8049
13.2665,1.6069
13.2674,1.3249
13.2724,1.3032
13.2724,1.3304
13.2724,1.4385
13.2735,1.8471
13.2794,2.0434
13.2794,2.2458
13.2804,2.4046
13.2804,2.4601
13.2804,2.3686
13.2854,2.2013
13.2864,1.8001
13.2864,1.6019
13.2864,1.4187
13.2933,1.3099
13.2934,1.3097
13.2934,1.416
13.2944,1.6
13.2944,1.8042
13.2994,2.1923
13.2994,2.3545
13.2994,2.4484
13.3004,2.4391
13.3004,2.1929
13.3063,1.9943
13.3063,1.7804
13.3073,1.5906
13.3073,1.2977
13.3138,1.2786
13.3143,1.3015
13.3143,1.3881
13.3143,1.7864
13.3153,1.9767
13.3203,2.1633
13.3203,2.4297
13.3203,2.4293
13.3213,2.3371
13.3273,2.1903
13.3275,1.7841
13.3283,1.5983
13.3283,1.4136
13.3283,1.2944
13.3333,1.2897
13.3333,1.3845
13.3343,1.5546
13.3343,1.7699
13.3412,2.1672
13.3482,2.3313
13.3502,2.4252
13.3502,2.4336
13.3502,2.2096
13.3512,2.0022
13.3512,1.7866
13.3512,1.417
13.3512,1.3034
13.3522,1.2764
13.3539,1.2897
13.3542,1.5473
13.3542,1.7584
13.3542,1.9523
13.3612,2.1505
13.3612,2.4205
13.3612,2.4318
13.3612,2.3359
13.3622,2.1869
13.3672,1.7894
13.3672,1.6043
13.3682,1.4147
13.3682,1.2934
13.3742,1.2792
13.3742,1.3581
13.3752,1.5265
13.3752,1.7425
13.3752,2.1443
13.3808,2.3106
13.3811,2.4222
13.3811,2.3536
13.3811,2.2158
13.3871,2.0136
13.3881,1.8077
13.3881,1.4202
13.3881,1.3039
13.3891,1.272
13.3942,1.2803
13.3942,1.5244
13.3942,1.7417
13.3951,1.9381
13.3951,2.1318
13.4014,2.425
13.4014,2.4415
13.4021,2.3543
13.4021,2.0157
13.4081,1.8145
13.4081,1.6298
13.4091,1.4357
13.4091,1.2767
13.4091,1.2822
13.4150,1.3403
13.4150,1.507
13.4150,1.9186
13.4160,2.1183
13.4220,2.3018
13.4220,2.4025
13.4220,2.3509
13.4230,2.2234
13.4230,2.0252
13.4283,1.6154
13.4283,1.4275
13.4290,1.2955
13.4290,1.2722
13.4350,1.338
13.4350,1.4978
13.4360,1.7134
13.4360,1.9225
13.4360,2.2844
13.4420,2.4087
13.4420,2.4374
13.4420,2.3628
13.4430,2.0432
13.4430,1.8293
13.4510,1.6335
13.4540,1.2996
13.4595,1.2709
13.4609,1.2754
13.4609,1.3274
13.4609,1.6981
13.4619,1.9013
13.4619,2.0929
13.4619,2.272
13.4619,2.4398
13.4629,2.3656
13.4629,2.2332
13.4629,2.0402
13.4689,1.6416
13.4699,1.4492
13.4699,1.3107
13.4699,1.2726
13.4699,1.3195
13.4759,1.4751
13.4759,1.678
13.4759,2.0733
13.4769,2.2557
13.4829,2.3856
13.4829,2.4228
13.4829,2.2291
13.4839,2.0464
13.4839,1.8362
13.4889,1.6354
13.4889,1.3079
13.4898,1.2732
13.4898,1.2752
13.4898,1.4747
13.4958,1.6741
13.4968,1.8786
13.4968,2.0793
13.4968,2.3733
13.5038,2.3933
13.5038,2.3155
13.5038,2.1998
13.5048,1.8121
13.5048,1.6075
13.5098,1.4102
13.5098,1.2839
13.5108,1.2589
13.5108,1.278
13.5168,1.3885
13.5168,1.8061
13.5178,2.0035
13.5178,2.176
13.5178,2.3043
13.5228,2.2958
13.5238,2.173
13.5238,1.978
13.5238,1.7689
13.5297,1.374
13.5307,1.269
13.5307,1.2557
13.5307,1.2544
13.5317,1.3407
13.5367,1.5349
13.5367,1.7269
13.5367,1.9232
13.5377,2.2538
13.5377,2.3138
13.5437,2.2557
13.5437,1.9521
13.5447,1.7341
13.5447,1.5276
13.5511,1.3341
13.5511,1.2522
13.5517,1.2516
13.5517,1.2554
13.5517,1.2975
13.5577,1.6742
13.5577,1.8679
13.5577,2.0496
13.5587,2.1792
13.5659,2.1867
13.5706,2.0733
13.5726,1.8906
13.5726,1.4693
13.5726,1.3015
13.5736,1.255
13.5736,1.2505
13.5736,1.2512
13.5736,1.2674
13.5776,1.3874
13.5776,1.5839
13.5786,1.9808
13.5786,2.1306
13.5786,2.1826
13.5836,2.1334
13.5846,1.8601
13.5846,1.6322
13.5846,1.4256
13.5856,1.2529
13.5916,1.2494
13.5916,1.2488
13.5916,1.2499
13.5916,1.3425
13.5986,1.5447
13.5986,1.7412
13.5986,1.9261
13.5996,2.1402
13.5996,2.1049
13.6045,1.9919
13.6055,1.8134
13.6055,1.4134
13.6055,1.273
13.6120,1.2509
13.6125,1.2482
13.6125,1.2492
13.6125,1.2544
13.6135,1.3193
13.6185,1.7072
13.6185,1.8959
13.6185,2.0412
13.6185,2.1102
13.6256,1.9868
13.6256,1.8199
13.6256,1.6065
13.6256,1.405
13.6265,1.2509
13.6315,1.2486
13.6315,1.2486
13.6325,1.2537
13.6325,1.3152
13.6325,1.5036
13.6384,1.6969
13.6394,2.0453
13.6394,2.1228
13.6394,2.0963
13.6454,1.9962
13.6464,1.6277
13.6464,1.4243
13.6464,1.2779
13.6474,1.2516
13.6524,1.2488
13.6524,1.2488
13.6524,1.2539
13.6534,1.5019
13.6594,1.7041
13.6594,1.8923
13.6594,2.0419
13.6604,2.1111
13.6604,2.0142
13.6654,1.8454
13.6664,1.6384
13.6664,1.2895
13.6664,1.2522
13.6734,1.249
13.6774,1.2486
13.6823,1.2535
13.6833,1.3137
13.6843,1.5015
13.6843,1.6936
13.6843,2.0534
13.6843,2.1331
13.6853,2.1141
13.6853,1.867
13.6864,1.6619
13.6864,1.4535
13.6864,1.2949
13.6873,1.2497
13.6933,1.249
13.6941,1.2494
13.6943,1.2537
13.6943,1.5044
13.6953,1.6982
13.6993,1.8887
13.7003,2.0451
13.7003,2.1353
13.7003,2.0434
13.7070,1.8854
13.7073,1.4775
13.7073,1.3058
13.7073,1.254
13.7083,1.2495
13.7134,1.2492
13.7134,1.2539
13.7134,1.3097
13.7142,1.4877
13.7202,1.8927
13.7202,2.0584
13.7212,2.143
13.7212,2.1366
13.7212,1.9075
13.7262,1.7001
13.7272,1.4888
13.7276,1.255
13.7282,1.2492
13.7282,1.2488
13.7343,1.2492
13.7343,1.3028
13.7343,1.4963
13.7352,1.6855
13.7412,1.8846
13.7412,2.1436
13.7412,2.1479
13.7422,2.0601
13.7422,1.9101
13.7474,1.4987
13.7474,1.3187
13.7482,1.255
13.7482,1.2488
13.7543,1.2492
13.7543,1.2522
13.7551,1.2908
13.7551,1.6677
13.7551,1.8657
13.7611,2.0363
13.7611,2.1366
13.7611,2.0547
13.7621,1.9032
13.7671,1.6988
13.7681,1.4959
13.7681,1.2552
13.7681,1.249
13.7691,1.2486
13.7741,1.2522
13.7741,1.291
13.7751,1.467
13.7751,1.6622
13.7751,2.0363
13.7811,2.1428
13.7811,2.1436
13.7841,2.0584
13.7870,1.7159
13.7920,1.5141
13.7930,1.3281
13.7940,1.2569
13.7940,1.2488
13.7940,1.2488
13.7950,1.2522
13.7950,1.2882
13.7950,1.6634
13.7950,1.8606
13.8020,2.0299
13.8020,2.137
13.8020,2.0802
13.8020,1.9442
13.8031,1.7372
13.8081,1.3452
13.8081,1.2584
13.8081,1.2494
13.8090,1.2486
13.8153,1.2522
13.8153,1.288
13.8153,1.4575
13.8160,1.6544
13.8160,2.041
13.8230,2.1543
13.8230,2.1655
13.8230,2.0839
13.8240,1.7472
13.8240,1.5405
13.8299,1.2503
13.8299,1.2492
13.8309,1.2492
13.8309,1.2518
13.8369,1.4565
13.8379,1.6587
13.8379,1.8537
13.8379,2.0207
13.8390,2.1694
13.8439,2.0838
13.8439,1.9456
13.8449,1.5479
13.8449,1.3611
13.8509,1.261
13.8509,1.2497
13.8509,1.2492
13.8519,1.2516
13.8519,1.279
13.8569,1.4299
13.8569,1.8364
13.8579,2.0189
13.8579,2.1318
13.8638,2.1663
13.8638,1.9613
13.8648,1.7672
13.8648,1.5524
13.8648,1.3613
13.8698,1.2507
13.8708,1.2492
13.8708,1.2492
13.8708,1.2734
13.8718,1.4288
13.8778,1.6255
13.8778,1.8212
13.8778,2.1323
13.8778,2.1728
13.8848,2.0958
13.8848,1.9699
13.8848,1.5674
13.8858,1.38
13.8858,1.2642
13.8908,1.2503
13.8918,1.2486
13.8948,1.2512
13.9027,1.275
13.9037,1.4228
13.9047,1.8134
13.9047,1.9877
13.9047,2.1188
13.9047,2.1612
13.9057,1.9737
13.9057,1.7849
13.9057,1.579
13.9057,1.2666
13.9107,1.251
13.9117,1.2492
13.9117,1.249
13.9117,1.2702
13.9127,1.4175
13.9177,1.6221
13.9183,1.8169
13.9187,2.1319
13.9187,2.1813
13.9197,2.1241
13.9247,2.0035
13.9247,1.6005
13.9257,1.4025
13.9257,1.2685
13.9317,1.251
13.9327,1.2486
13.9327,1.2505
13.9327,1.2687
13.9327,1.402
13.9386,1.7997
13.9386,1.9885
13.9386,2.1256
13.9386,2.1199
13.9457,2.0093
13.9457,1.8248
13.9457,1.6144
13.9466,1.2794
13.9466,1.2522
13.9516,1.2494
13.9516,1.2494
13.9526,1.2687
13.9526,1.4039
13.9586,1.6165
13.9596,1.8117
13.9596,2.1383
13.9604,2.1908
13.9606,2.1346
13.9656,1.8389
13.9656,1.6309
13.9656,1.435
13.9656,1.281
13.9666,1.2492
13.9726,1.249
13.9726,1.2512
13.9726,1.2681
13.9736,1.609
13.9795,1.8017
13.9795,1.987
13.9805,2.1274
13.9805,2.1586
13.9805,2.0489
13.9855,1.8683
13.9865,1.4554
13.9865,1.2908
13.9865,1.2531
13.9925,1.2503
13.9935,1.2516
13.9935,1.2694
13.9935,1.408
13.9935,1.615
13.9995,1.9915
13.9995,2.1385
13.9995,2.1949
14.0005,2.1543
14.0067,1.8797
14.0135,1.6647
14.0144,1.465
14.0154,1.2546
14.0154,1.2507
14.0154,1.2495
14.0154,1.2512
14.0164,1.399
14.0164,1.6114
14.0164,1.8029
14.0194,1.984
14.0204,2.1963
14.0204,2.1655
14.0204,2.0577
14.0275,1.8927
14.0275,1.4877
14.0275,1.3109
14.0284,1.2557
14.0284,1.2497
14.0334,1.2512
14.0334,1.2675
14.0344,1.3915
14.0344,1.7986
14.0404,1.9917
14.0404,2.1436
14.0414,2.2053
14.0414,2.0781
14.0414,1.9092
14.0464,1.6977
14.0474,1.5006
14.0474,1.258
14.0474,1.2509
14.0535,1.2497
14.0543,1.2636
14.0543,1.3875
14.0543,1.5964
14.0553,1.789
14.0603,2.1321
14.0603,2.2041
14.0603,2.1809
14.0613,2.0809
14.0613,1.6964
14.0675,1.5057
14.0675,1.3275
14.0675,1.2576
14.0683,1.2501
14.0743,1.2509
14.0743,1.2644
14.0753,1.3742
14.0753,1.7762
14.0753,1.9675
14.0803,2.1194
14.0813,2.2028
14.0813,2.0901
14.0813,1.9197
14.0872,1.7067
14.0882,1.5008
14.0882,1.2569
14.0882,1.2495
14.0882,1.249
14.0943,1.2593
14.0972,1.3555
14.0972,1.5617
14.0972,1.7556
14.1015,2.1121
14.1015,2.1899
14.1015,2.1711
14.1022,2.0684
14.1022,1.7072
14.1072,1.504
14.1082,1.3214
14.1082,1.2576
14.1082,1.2494
14.1092,1.2501
14.1142,1.2578
14.1167,1.3446
14.1203,1.7402
14.1251,1.9332
14.1261,2.0928
14.1273,2.1775
14.1273,2.0834
14.1273,1.9246
14.1281,1.7168
14.1281,1.3298
14.1281,1.258
14.1281,1.2499
14.1291,1.2492
14.1351,1.257
14.1351,1.3373
14.1351,1.5392
14.1361,1.7393
14.1361,2.0944
14.1411,2.1828
14.1421,2.1869
14.1421,2.0881
14.1421,1.7416
14.1484,1.5379
14.1491,1.342
14.1491,1.2507
14.1491,1.2495
14.1491,1.2503
14.1551,1.2576
14.1551,1.539
14.1551,1.7421
14.1551,1.9317
14.1561,2.0911
14.1623,2.1889
14.1623,2.0995
14.1623,1.9493
14.1630,1.7477
14.1690,1.3587
14.1690,1.2623
14.1700,1.2505
14.1700,1.2499
14.1700,1.2555
14.1760,1.3208
14.1760,1.5117
14.1760,1.9182
14.1760,2.0888
14.1830,2.1897
14.1830,2.188
14.1830,1.9589
14.1830,1.7601
14.1840,1.5488
14.1890,1.3547
14.1890,1.2512
14.1900,1.2494
14.1900,1.2503
14.1960,1.3094
14.1960,1.5036
14.1970,1.7031
14.1970,1.8968
14.1970,2.1801
14.2019,2.1903
14.2029,2.0886
14.2029,1.9442
14.2029,1.5452
14.2039,1.3566
14.2099,1.2599
14.2099,1.2503
14.2099,1.2495
14.2099,1.2542
14.2169,1.3034
14.2169,1.4849
14.2179,1.8824
14.2179,2.0541
14.2179,2.1706
14.2229,2.1034
14.2229,1.9731
14.2239,1.7699
14.2239,1.5548
14.2339,1.264
14.2349,1.251
14.2358,1.2497
14.2358,1.2494
14.2368,1.2996
14.2368,1.4805
14.2368,1.6793
14.2368,1.8826
14.2378,2.1683
14.2439,2.1895
14.2439,2.0991
14.2439,1.7806
14.2448,1.5792
14.2448,1.375
14.2498,1.2644
14.2498,1.249
14.2498,1.2497
14.2508,1.2544
14.2508,1.3007
14.2569,1.6853
14.2569,1.8921
14.2578,2.0682
14.2578,2.1756
14.2638,2.1274
14.2648,1.9926
14.2648,1.7879
14.2648,1.5764
14.2648,1.2698
14.2708,1.2516
14.2708,1.2497
14.2708,1.2529
14.2708,1.2884
14.2779,1.4672
14.2779,1.6711
14.2779,2.0504
14.2787,2.1708
14.2787,2.1955
14.2837,2.1181
14.2837,1.8053
14.2847,1.6009
14.2847,1.4035
14.2907,1.2516
14.2907,1.2494
14.2917,1.2495
14.2917,1.2525
14.2917,1.4534
14.2977,1.6606
14.2977,1.8587
14.2977,2.035
14.2977,2.206
14.2987,2.1284
14.3047,2.0027
14.3047,1.8031
14.3047,1.4063
14.3057,1.2737
14.3120,1.2516
14.3120,1.2501
14.3126,1.2524
14.3126,1.2807
14.3126,1.4363
14.3176,1.8357
14.3186,2.0206
14.3186,2.146
14.3186,2.1852
14.3246,2.002
14.3256,1.8197
14.3256,1.6112
14.3256,1.407
14.3266,1.252
14.3316,1.2497
14.3316,1.2494
14.3316,1.2514
14.3326,1.4314
14.3389,1.6386
14.3456,1.8306
14.3461,2.1561
14.3475,2.2021
14.3475,2.1434
14.3475,2.0168
14.3475,1.618
14.3475,1.4295
14.3485,1.2769
14.3485,1.2522
14.3515,1.2497
14.3525,1.2518
14.3525,1.2769
14.3525,1.4222
14.3595,1.8372
14.3595,2.0153
14.3595,2.1531
14.3595,2.1458
14.3607,2.0412
14.3655,1.8497
14.3655,1.6328
14.3665,1.2865
14.3665,1.2533
14.3725,1.2497
14.3725,1.2497
14.3735,1.273
14.3735,1.4234
14.3735,1.6298
14.3795,1.8385
14.3795,2.1706
14.3795,2.2261
14.3795,2.1599
14.3864,1.8556
14.3864,1.6542
14.3864,1.4554
14.3864,1.2878
14.3874,1.2497
14.3926,1.2495
14.3926,1.2516
14.3926,1.2726
14.3934,1.6131
14.3934,1.8106
14.3994,1.9997
14.3994,2.1423
14.4005,2.1496
14.4005,2.0359
14.4064,1.8647
14.4074,1.4562
14.4074,1.2914
14.4074,1.2527
14.4074,1.2494
14.4134,1.2512
14.4134,1.2689
14.4134,1.398
14.4144,1.5987
14.4204,1.9924
14.4204,2.1408
14.4204,2.2038
14.4214,2.1528
14.4214,1.8638
14.4263,1.6611
14.4273,1.4624
14.4279,1.2544
14.4283,1.2499
14.4333,1.2492
14.4333,1.251
14.4343,1.3864
14.4343,1.5966
14.4343,1.7954
14.4396,1.9782
14.4403,2.2021
14.4403,2.1601
14.4403,2.0502
14.4413,1.8792
14.4473,1.4781
14.4473,1.3004
14.4473,1.2539
14.4483,1.2494
14.4573,1.2507
14.4583,1.2634
14.4593,1.3765
14.4593,1.7809
14.4593,1.9799
14.4603,2.1301
14.4612,2.1929
14.4612,2.0517
14.4612,1.8955
14.4672,1.6907
14.4682,1.4841
14.4682,1.2565
14.4682,1.2505
14.4682,1.2495
14.4742,1.261
14.4742,1.3705
14.4742,1.5773
14.4742,1.777
14.4812,2.131
14.4812,2.2083
14.4812,2.1754
14.4822,2.0774
14.4822,1.7037
14.4872,1.503
14.4872,1.321
14.4882,1.258
14.4882,1.2495
14.4882,1.251
14.4947,1.2632
14.4952,1.3671
14.4952,1.7879
14.4952,1.9801
14.5011,2.1306
14.5021,2.1934
14.5021,2.0978
14.5021,1.9302
14.5031,1.7132
14.5082,1.3352
14.5082,1.2593
14.5082,1.2507
14.5091,1.2501
14.5151,1.2619
14.5151,1.3634
14.5151,1.5713
14.5161,1.7706
14.5161,2.1188
14.5211,2.1974
14.5221,2.1762
14.5221,1.9371
14.5221,1.7326
14.5282,1.5295
14.5291,1.3431
14.5291,1.2509
14.5291,1.2499
14.5291,1.2509
14.5350,1.2593
14.5350,1.5585
14.5350,1.7622
14.5360,1.951
14.5360,2.1048
14.5420,2.1826
14.5420,2.0864
14.5430,1.9336
14.5430,1.5364
14.5540,1.3547
14.5550,1.2608
14.5560,1.251
14.5560,1.2505
14.5560,1.2595
14.5570,1.3442
14.5570,1.5477
14.5580,2.1023
14.5580,2.1811
14.5645,2.1014
14.5645,1.9491
14.5650,1.7382
14.5650,1.5345
14.5650,1.2599
14.5710,1.2503
14.5710,1.2495
14.5710,1.2497
14.5710,1.3264
14.5779,1.5319
14.5779,1.729
14.5779,1.9216
14.5789,2.1895
14.5789,2.1914
14.5839,2.0978
14.5839,1.7374
14.5839,1.5334
14.5849,1.3519
14.5849,1.2615
14.5909,1.2501
14.5909,1.2499
14.5919,1.2552
14.5919,1.3165
14.5979,1.7153
14.5989,1.9139
14.5989,2.08
14.5989,2.1777
14.5989,2.1119
14.6049,1.9701
14.6049,1.7629
14.6049,1.5525
14.6049,1.2657
14.6119,1.2516
14.6119,1.2505
14.6119,1.2584
14.6119,1.341
14.6128,1.5407
14.6178,1.7376
14.6178,2.0806
14.6188,2.1783
14.6188,2.1811
14.6254,2.0937
14.6254,1.7462
14.6258,1.5486
14.6258,1.36
14.6258,1.2619
14.6318,1.2499
14.6318,1.2494
14.6318,1.2522
14.6318,1.2863
14.6318,1.6469
14.6388,1.8385
14.6388,2.0177
14.6388,2.1424
14.6388,2.0663
14.6458,1.9193
14.6458,1.7172
14.6458,1.3229
14.6467,1.2554
14.6467,1.2492
14.6517,1.2488
14.6527,1.2501
14.6527,1.2694
14.6527,1.4117
14.6597,1.6071
14.6652,1.9692
14.6667,2.0802
14.6667,2.0924
14.6667,1.8638
14.6667,1.6692
14.6677,1.4498
14.6677,1.287
14.6677,1.2486
14.6727,1.2486
14.6727,1.248
14.6727,1.2486
14.6727,1.3315
14.6737,1.5184
14.6787,1.7204
14.6787,1.8835
14.6797,2.0131
14.6797,1.9401
14.6797,1.8089
14.6856,1.609
14.6856,1.2724
14.6866,1.2499
14.6866,1.248
14.6926,1.2482
14.6936,1.248
14.6936,1.2505
14.6936,1.2824
14.6944,1.4369
14.6996,1.8141
14.6996,1.9319
14.6996,1.9482
14.6996,1.7348
14.7066,1.5417
14.7066,1.3425
14.7066,1.2584
14.7066,1.248
14.7066,1.2482
14.7126,1.248
14.7126,1.2482
14.7126,1.2627
14.7136,1.378
14.7196,1.5704
14.7196,1.7273
14.7206,1.8886
14.7206,1.8154
14.7206,1.687
14.7255,1.4942
14.7265,1.2542
14.7265,1.2482
14.7271,1.248
14.7275,1.2479
14.7335,1.2479
14.7335,1.2482
14.7335,1.2542
14.7345,1.3148
14.7405,1.6834
14.7405,1.8158
14.7405,1.8436
14.7405,1.7727
14.7415,1.4697
14.7465,1.2891
14.7465,1.2516
14.7475,1.2482
14.7475,1.2482
14.7537,1.248
14.7537,1.2479
14.7537,1.2518
14.7545,1.2861
14.7545,1.4389
14.7600,1.6127
14.7605,1.7993
14.7605,1.7361
14.7605,1.6187
14.7664,1.4342
14.7664,1.2503
14.7694,1.248
14.7764,1.248
14.7767,1.2482
14.7784,1.248
14.7784,1.248
14.7784,1.2501
14.7784,1.2752
14.7794,1.5972
14.7804,1.7372
14.7804,1.7787
14.7804,1.72
14.7804,1.4294
14.7875,1.2739
14.7875,1.2507
14.7875,1.248
14.7875,1.2482
14.7884,1.248
14.7940,1.248
14.7944,1.2479
14.7944,1.2664
14.7944,1.3935
14.8009,1.5799
14.8009,1.7157
14.8013,1.7123
14.8013,1.6045
14.8013,1.4241
14.8063,1.2743
14.8073,1.2479
14.8073,1.2479
14.8073,1.2482
14.8142,1.2482
14.8143,1.248
14.8143,1.2492
14.8143,1.2632
14.8153,1.5645
14.8203,1.7299
14.8203,1.7742
14.8203,1.7189
14.8213,1.4267
14.8213,1.2747
14.8275,1.2505
14.8275,1.2479
14.8283,1.248
14.8283,1.248
14.8343,1.2482
14.8343,1.2479
14.8352,1.2602
14.8352,1.3673
14.8352,1.5503
14.8402,1.7026
14.8412,1.7232
14.8412,1.6154
14.8412,1.4445
14.8472,1.2824
14.8482,1.248
14.8482,1.2482
14.8482,1.2482
14.8482,1.248
14.8543,1.248
14.8543,1.249
14.8543,1.2638
14.8552,1.3718
14.8612,1.7151
14.8612,1.7828
14.8612,1.7449
14.8622,1.4704
14.8622,1.2977
14.8672,1.2524
14.8672,1.248
14.8682,1.2482
14.8682,1.2482
14.8682,1.248
14.8741,1.2479
14.8781,1.2662
14.8851,1.3896
14.8861,1.5734
14.8871,1.7251
14.8871,1.7744
14.8871,1.6679
14.8881,1.5025
14.8883,1.3139
14.8883,1.2484
14.8883,1.2479
14.8891,1.2482
14.8891,1.248
14.8951,1.2479
14.8951,1.2495
14.8961,1.2668
14.8961,1.5852
14.8961,1.7423
14.9011,1.8145
14.9021,1.7933
14.9021,1.5366
14.9021,1.3367
14.9085,1.2557
14.9090,1.2484
14.9090,1.2482
14.9090,1.2482
14.9090,1.2479
14.9151,1.2479
14.9151,1.2657
14.9151,1.3919
14.9160,1.5726
14.9160,1.81
14.9222,1.8016
14.9222,1.7119
14.9230,1.5428
14.9230,1.2572
14.9290,1.2486
14.9290,1.2479
14.9300,1.248
14.9300,1.248
14.9300,1.2479
14.9360,1.2492
14.9360,1.2664
14.9360,1.5788
14.9360,1.7316
14.9430,1.81
14.9430,1.8023
14.9430,1.5542
14.9430,1.3545
14.9440,1.2582
14.9489,1.2479
14.9489,1.2479
14.9489,1.2479
14.9499,1.2482
14.9563,1.249
14.9563,1.263
14.9569,1.3727
14.9569,1.5599
14.9569,1.816
14.9619,1.8158
14.9629,1.7151
14.9629,1.5719
14.9629,1.2606
14.9639,1.2492
14.9699,1.2479
14.9699,1.248
14.9699,1.248
14.9699,1.2479
14.9769,1.249
14.9771,1.3735
14.9771,1.579
14.9771,1.7429
14.9779,1.8319
14.9831,1.7337
14.9831,1.5846
14.9838,1.3784
14.9838,1.2636
14.9938,1.2479
14.9948,1.2479
14.9948,1.2479
14.9958,1.248
14.9958,1.2492
14.9966,1.2683
14.9968,1.3877
14.9968,1.7444
14.9968,1.8466
15.0037,1.852
15.0038,1.7577
15.0038,1.4074
15.0038,1.2702
15.0048,1.2501
15.0098,1.248
15.0105,1.2482
15.0108,1.248
15.0108,1.2479
15.0108,1.2492
15.0171,1.395
15.0171,1.5889
15.0178,1.7479
15.0178,1.8614
15.0237,1.7721
15.0247,1.6259
15.0247,1.4344
15.0247,1.2509
15.0247,1.2479
15.0307,1.2479
15.0307,1.2479
15.0307,1.248
15.0317,1.2494
15.0377,1.2696
15.0377,1.3877
15.0377,1.7571
15.0377,1.8651
15.0387,1.8799
15.0440,1.7971
15.0440,1.4639
15.0447,1.2865
15.0447,1.2514
15.0511,1.2479
15.0511,1.248
15.0517,1.248
15.0517,1.2479
15.0517,1.2681
15.0567,1.3992
15.0577,1.5949
15.0577,1.7742
15.0577,1.9092
15.0577,1.8239
15.0646,1.6825
15.0646,1.4849
15.0646,1.2535
15.0646,1.248
15.0716,1.2479
15.0716,1.2482
15.0726,1.248
15.0726,1.2494
15.0726,1.2687
15.0776,1.5835
15.0786,1.759
15.0786,1.8745
15.0786,1.9017
15.0846,1.6907
15.0856,1.4959
15.0856,1.3058
15.0856,1.2533
15.0856,1.2479
15.0916,1.248
15.0916,1.2479
15.0916,1.2477
15.0916,1.2655
15.1015,1.387
15.1055,1.591
15.1065,1.8737
15.1065,1.9047
15.1065,1.8284
15.1065,1.6924
15.1075,1.3125
15.1075,1.2548
15.1075,1.2484
15.1075,1.2479
15.1115,1.248
15.1125,1.2479
15.1125,1.2486
15.1125,1.2638
15.1193,1.5651
15.1195,1.7459
15.1195,1.8531
15.1195,1.8994
15.1195,1.702
15.1255,1.5143
15.1255,1.3137
15.1255,1.2484
15.1265,1.248
15.1325,1.2482
15.1325,1.248
15.1325,1.249
15.1334,1.2638
15.1334,1.3718
15.1384,1.5719
15.1394,1.8824
15.1394,1.9292
15.1394,1.8488
15.1461,1.7252
15.1464,1.3397
15.1464,1.2569
15.1464,1.2486
15.1464,1.2479
15.1524,1.248
15.1524,1.2479
15.1524,1.249
15.1534,1.3868
15.1534,1.5831
15.1595,1.7641
15.1595,1.8914
15.1595,1.8676
15.1604,1.7509
15.1664,1.5606
15.1664,1.3508
15.1674,1.249
15.1674,1.248
15.1674,1.248
15.1729,1.248
15.1733,1.2488
15.1733,1.2645
15.1733,1.383
15.1793,1.7777
15.1803,1.9118
15.1803,1.9559
15.1803,1.8788
15.1813,1.5897
15.1863,1.3898
15.1863,1.2659
15.1873,1.2495
15.1873,1.2479
15.1933,1.248
15.1933,1.2479
15.1943,1.2494
15.1943,1.3999
15.1943,1.594
15.1993,1.7727
15.2003,1.9176
15.2003,1.9247
15.2003,1.8025
15.2013,1.6144
15.2132,1.2732
15.2142,1.2501
15.2152,1.248
15.2152,1.2479
15.2152,1.2479
15.2152,1.249
15.2162,1.267
15.2162,1.3834
15.2162,1.7566
15.2202,1.9009
15.2202,1.9607
15.2202,1.9022
15.2212,1.6199
15.2272,1.4052
15.2272,1.269
15.2272,1.248
15.2282,1.248
15.2282,1.248
15.2332,1.248
15.2342,1.2638
15.2342,1.386
15.2342,1.576
15.2402,1.7584
15.2412,1.9748
15.2412,1.9189
15.2412,1.8091
15.2422,1.6343
15.2472,1.2801
15.2472,1.251
15.2472,1.2484
15.2481,1.2479
15.2481,1.2479
15.2541,1.249
15.2541,1.2621
15.2541,1.569
15.2551,1.7609
15.2615,1.9043
15.2615,1.9673
15.2621,1.8177
15.2621,1.6478
15.2621,1.4294
15.2671,1.2771
15.2683,1.2482
15.2683,1.2477
15.2683,1.2477
15.2741,1.248
15.2751,1.2599
15.2751,1.3637
15.2751,1.5625
15.2761,1.7504
15.2830,1.9776
15.2830,1.9352
15.2830,1.8261
15.2830,1.4586
15.2900,1.2518
15.2900,1.2479
15.2900,1.2479
15.2900,1.248
15.2910,1.249
15.2960,1.3765
15.2960,1.567
15.2970,1.7594
15.2970,1.9148
15.2970,1.9564
15.3030,1.8494
15.3040,1.6806
15.3040,1.4772
15.3040,1.2529
15.3106,1.2482
15.3110,1.2479
15.3110,1.2479
15.3110,1.2486
15.3120,1.2614
15.3193,1.3701
15.3279,1.7513
15.3289,1.9216
15.3299,1.9952
15.3299,1.9671
15.3309,1.7189
15.3309,1.5089
15.3309,1.3157
15.3309,1.2548
15.3320,1.248
15.3320,1.2479
15.3320,1.2479
15.3320,1.249
15.3369,1.3675
15.3369,1.566
15.3379,1.7661
15.3379,1.9253
15.3379,1.9774
15.3439,1.8741
15.3439,1.7191
15.3439,1.324
15.3449,1.2554
15.3449,1.2486
15.3509,1.2479
15.3509,1.2479
15.3509,1.2492
15.3519,1.2617
15.3578,1.3699
15.3578,1.7573
15.3588,1.93
15.3588,2.0116
15.3588,2.0041
15.3639,1.7432
15.3648,1.5405
15.3648,1.3427
15.3648,1.258
15.3708,1.248
15.3718,1.2479
15.3718,1.248
15.3718,1.26
15.3718,1.3714
15.3778,1.5651
15.3778,1.7637
15.3778,2.0237
15.3788,2.0117
15.3848,1.9129
15.3848,1.7551
15.3848,1.3649
15.3858,1.2615
15.3858,1.2497
15.3908,1.248
15.3908,1.2482
15.3918,1.2503
15.3918,1.2758
15.3918,1.444
15.3977,1.8657
15.3987,2.0372
15.3987,2.1333
15.3987,2.1348
15.4047,1.9
15.4057,1.6924
15.4057,1.4907
15.4057,1.257
15.4067,1.2499
15.4117,1.2494
15.4117,1.2499
15.4117,1.3292
15.4127,1.539
15.4187,1.7341
15.4187,1.9337
15.4187,2.2047
15.4197,2.2193
15.4197,2.1432
15.4247,2.0029
15.4247,1.6071
15.4257,1.4174
15.4257,1.2844
15.4356,1.2548
15.4369,1.2544
15.4376,1.2773
15.4386,1.4181
15.4386,1.6266
15.4386,2.0354
15.4396,2.2077
15.4396,2.308
15.4396,2.3256
15.4396,2.1053
15.4456,1.9052
15.4456,1.7065
15.4456,1.3557
15.4456,1.2713
15.4526,1.2619
15.4526,1.2649
15.4526,1.4796
15.4526,1.6964
15.4536,1.9017
15.4589,2.1044
15.4589,2.3866
15.4596,2.413
15.4596,2.3294
15.4656,2.1844
15.4656,1.7886
15.4666,1.6056
15.4666,1.4288
15.4666,1.3103
15.4715,1.2865
15.4725,1.3735
15.4725,1.5428
15.4725,1.7556
15.4785,2.1593
15.4795,2.3337
15.4795,2.4432
15.4795,2.3813
15.4795,2.2503
15.4855,2.0551
15.4855,1.843
15.4855,1.4832
15.4865,1.3506
15.4865,1.2998
15.4925,1.3159
15.4925,1.5644
15.4937,1.7723
15.4937,1.9823
15.4995,2.1775
15.5005,2.4618
15.5005,2.4897
15.5005,2.4079
15.5005,2.2823
15.5065,1.8856
15.5065,1.6934
15.5065,1.501
15.5074,1.3566
15.5134,1.3223
15.5134,1.4095
15.5134,1.5644
15.5144,1.9712
15.5144,2.1773
15.5194,2.3534
15.5194,2.4706
15.5204,2.419
15.5204,2.2906
15.5264,2.0952
15.5270,1.8895
15.5274,1.4993
15.5274,1.3508
15.5274,1.2972
15.5324,1.3054
15.5334,1.5482
15.5334,1.7506
15.5334,1.9589
15.5344,2.1588
15.5441,2.4621
15.5493,2.4961
15.5503,2.4158
15.5513,2.0959
15.5513,1.8897
15.5513,1.684
15.5513,1.4954
15.5523,1.2923
15.5523,1.3086
15.5536,1.3915
15.5536,1.5422
15.5543,1.9566
15.5543,2.1507
15.5605,2.3234
15.5605,2.4496
15.5613,2.4218
15.5613,2.3039
15.5613,2.1094
15.5663,1.8947
15.5673,1.5214
15.5673,1.3697
15.5673,1.3075
15.5733,1.3056
15.5743,1.5267
15.5743,1.7305
15.5743,1.9382
15.5753,2.3078
15.5804,2.4466
15.5804,2.4912
15.5804,2.4183
15.5812,2.1094
15.5812,1.8981
15.5872,1.7007
15.5872,1.5051
15.5882,1.3028
15.5882,1.3032
15.5947,1.3632
15.5952,1.5072
15.5952,1.9184
15.5952,2.1166
15.5952,2.2911
15.6012,2.4696
15.6012,2.4198
15.6012,2.2992
15.6022,2.1038
15.6082,1.7029
15.6082,1.5165
15.6082,1.3581
15.6092,1.2977
15.6092,1.3515
15.6142,1.494
15.6142,1.6898
15.6152,1.8934
15.6152,2.2763
15.6211,2.4085
15.6211,2.4535
15.6221,2.2911
15.6221,2.1072
15.6221,1.8947
15.6281,1.7031
15.6281,1.3499
15.6281,1.287
15.6291,1.2799
15.6291,1.327
15.6351,1.6694
15.6351,1.8704
15.6351,2.0701
15.6351,2.2544
15.6421,2.453
15.6421,2.4034
15.6421,2.293
15.6431,1.8951
15.6431,1.7097
15.6501,1.5216
15.6570,1.366
15.6580,1.2869
15.6590,1.3319
15.6590,1.4644
15.6590,1.6626
15.6590,2.0706
15.6600,2.2568
15.6604,2.3871
15.6620,2.4415
15.6620,2.2971
15.6620,2.1254
15.6620,1.9097
15.6690,1.5162
15.6690,1.3635
15.6690,1.2904
15.6690,1.2827
15.6700,1.458
15.6750,1.6705
15.6750,1.8711
15.6760,2.0633
15.6760,2.3905
15.6770,2.4471
15.6825,2.3971
15.6830,2.296
15.6830,1.9212
15.6830,1.7241
15.6890,1.5314
15.6900,1.3682
15.6900,1.2839
15.6900,1.3244
15.6910,1.4444
15.6960,1.8516
15.6960,2.0438
15.6969,2.2313
15.6969,2.3766
15.7029,2.4128
15.7029,2.3099
15.7029,2.1316
15.7039,1.9139
15.7039,1.5398
15.7089,1.3851
15.7099,1.2974
15.7099,1.3287
15.7099,1.4472
15.7159,1.6375
15.7169,1.8389
15.7169,2.2249
15.7169,2.3727
15.7179,2.4391
15.7229,2.407
15.7229,2.1312
15.7229,1.9244
15.7239,1.7241
15.7239,1.5252
15.7301,1.2923
15.7301,1.2786
15.7301,1.3129
15.7308,1.6169
15.7368,1.8246
15.7378,2.0221
15.7378,2.2066
15.7378,2.4151
15.7378,2.4027
15.7438,2.3041
15.7438,2.1344
15.7438,1.7213
15.7448,1.5325
15.7508,1.3707
15.7508,1.2737
15.7508,1.3032
15.7508,1.4061
15.7518,1.593
15.7568,1.9934
15.7568,2.1762
15.7568,2.3239
15.7578,2.3931
15.7677,2.2825
15.7682,2.1194
15.7697,1.9077
15.7697,1.7127
15.7697,1.3622
15.7705,1.2805
15.7707,1.2692
15.7707,1.3851
15.7707,1.5711
15.7707,1.7804
15.7777,1.9741
15.7777,2.3046
15.7777,2.3734
15.7777,2.3648
15.7847,2.2722
15.7847,1.9161
15.7847,1.7138
15.7847,1.5252
15.7857,1.3673
15.7907,1.2705
15.7917,1.2912
15.7917,1.3851
15.7917,1.567
15.7977,1.9757
15.7987,2.1509
15.7987,2.3016
15.7987,2.3798
15.7987,2.2984
15.8047,2.143
15.8047,1.936
15.8047,1.5464
15.8056,1.3834
15.8117,1.293
15.8117,1.2741
15.8117,1.386
15.8117,1.5617
15.8126,1.7667
15.8176,1.9641
15.8176,2.3063
15.8176,2.3841
15.8186,2.3791
15.8186,2.1475
15.8246,1.945
15.8256,1.7462
15.8256,1.5548
15.8261,1.2874
15.8323,1.2709
15.8326,1.2837
15.8326,1.3602
15.8326,1.7419
15.8326,1.9397
15.8386,2.1319
15.8386,2.2887
15.8386,2.3708
15.8396,2.2932
15.8455,2.1428
15.8455,1.7277
15.8465,1.5422
15.8465,1.3703
15.8465,1.2799
15.8515,1.2762
15.8525,1.3547
15.8525,1.5285
15.8525,1.7427
15.8585,2.1151
15.8595,2.2709
15.8595,2.3569
15.8595,2.3641
15.8605,2.1334
15.8655,1.9322
15.8655,1.723
15.8655,1.3592
15.8665,1.2765
15.8665,1.2621
15.8759,1.2675
15.8804,1.4828
15.8814,1.7022
15.8814,1.8917
15.8814,2.0811
15.8824,2.3433
15.8824,2.3624
15.8824,2.2765
15.8824,2.1273
15.8854,1.7386
15.8864,1.5449
15.8864,1.3637
15.8864,1.2615
15.8924,1.2681
15.8937,1.3225
15.8937,1.4811
15.8944,1.8857
15.8944,2.0894
15.8994,2.2518
15.8994,2.3416
15.9004,2.2829
15.9004,2.1492
15.9064,1.9504
15.9064,1.7397
15.9074,1.384
15.9074,1.2795
15.9074,1.2642
15.9131,1.3148
15.9134,1.48
15.9134,1.6831
15.9134,1.8781
15.9134,2.2326
15.9204,2.3421
15.9204,2.3611
15.9204,2.2908
15.9204,1.9621
15.9274,1.7586
15.9274,1.5565
15.9274,1.282
15.9283,1.2651
15.9283,1.267
15.9333,1.3189
15.9343,1.6778
15.9343,1.8782
15.9343,2.0678
15.9403,2.2343
15.9413,2.3759
15.9413,2.3016
15.9413,2.1723
15.9423,1.9801
15.9473,1.5827
15.9473,1.4016
15.9473,1.2842
15.9473,1.2657
15.9543,1.3101
15.9543,1.4612
15.9543,1.6712
15.9552,1.8569
15.9552,2.2255
15.9605,2.3412
15.9605,2.3734
15.9612,2.1715
15.9612,1.9857
15.9612,1.7749
15.9672,1.5825
15.9672,1.2921
15.9682,1.2668
15.9682,1.266
15.9742,1.2989
15.9742,1.6435
15.9752,1.8454
15.9752,2.0401
15.9752,2.2058
15.9812,2.3558
15.9812,2.296
15.9812,2.1708
15.9822,1.9754
15.9922,1.5818
15.9941,1.4082
15.9941,1.2854
15.9941,1.2634
15.9941,1.2925
15.9951,1.4294
15.9951,1.6319
15.9951,2.0277
15.9951,2.2077
16.0011,2.3286
16.0011,2.359
16.0011,2.1751
16.0021,1.9973
16.0021,1.7881
16.0071,1.597
16.0081,1.2915
16.0081,1.2657
16.0081,1.2645
16.0091,1.2938
16.0166,1.6244
16.0171,1.8299
16.0171,2.3138
16.0171,2.3581
16.0231,2.2966
16.0241,2.1786
16.0241,1.7901
16.0241,1.5957
16.0251,1.4153
16.0300,1.2867
16.0300,1.2627
16.0300,1.288
16.0311,1.4085
16.0370,1.8062
16.0370,2.0022
16.0370,2.1631
16.0380,2.2936
16.0380,2.2928
16.0430,2.1814
16.0440,2.0026
16.0440,1.7993
16.0440,1.4132
16.0500,1.288
16.0510,1.2632
16.0510,1.2614
16.0510,1.3842
16.0510,1.5822
16.0570,1.7824
16.0570,1.9737
16.0570,2.281
16.0580,2.3359
16.0582,2.2872
16.0641,1.9921
16.0641,1.7867
16.0641,1.593
16.0650,1.4031
16.0713,1.2585
16.0713,1.2584
16.0719,1.2722
16.0719,1.3611
16.0719,1.7761
16.0775,1.9679
16.0779,2.1284
16.0779,2.2636
16.0779,2.2791
16.0839,2.1749
16.0849,2.0014
16.0849,1.5966
16.0849,1.4202
16.0849,1.2902
16.0909,1.2604
16.0909,1.2726
16.0909,1.3667
16.0909,1.5606
16.1009,1.7665
16.1029,2.1325
16.1029,2.2677
16.1029,2.3241
16.1029,2.2923
16.1044,2.0162
16.1048,1.8102
16.1069,1.6105
16.1069,1.2996
16.1078,1.2625
16.1108,1.2599
16.1118,1.2739
16.1118,1.5458
16.1118,1.7549
16.1188,1.9502
16.1188,2.1333
16.1188,2.3423
16.1188,2.3086
16.1198,2.1974
16.1248,2.0294
16.1248,1.6345
16.1258,1.447
16.1258,1.2992
16.1318,1.2591
16.1318,1.2726
16.1328,1.3592
16.1328,1.5467
16.1328,1.7511
16.1378,2.1318
16.1388,2.2714
16.1388,2.3408
16.1388,2.206
16.1455,2.0399
16.1457,1.8304
16.1457,1.63
16.1457,1.3047
16.1457,1.2623
16.1517,1.2593
16.1517,1.2711
16.1517,1.5259
16.1527,1.7442
16.1527,1.9508
16.1588,2.1308
16.1588,2.3423
16.1588,2.3153
16.1597,2.2182
16.1657,2.0508
16.1657,1.6611
16.1667,1.4817
16.1667,1.3275
16.1667,1.2687
16.1717,1.275
16.1727,1.3572
16.1727,1.5398
16.1727,1.936
16.1787,2.1274
16.1796,2.2716
16.1796,2.3453
16.1796,2.2302
16.1806,2.0781
16.1856,1.8717
16.1856,1.6703
16.1856,1.3337
16.1866,1.2709
16.1926,1.2629
16.1926,1.2743
16.1926,1.543
16.1936,1.7509
16.1936,1.9427
16.1986,2.1301
16.1996,2.3599
16.1996,2.3436
16.1996,2.2411
16.2006,2.0875
16.2132,1.6896
16.2146,1.4969
16.2149,1.3395
16.2149,1.263
16.2156,1.2735
16.2156,1.3506
16.2156,1.5274
16.2156,1.7337
16.2165,2.116
16.2195,2.2696
16.2195,2.3444
16.2195,2.2514
16.2195,2.104
16.2265,1.9024
16.2265,1.6988
16.2274,1.3435
16.2275,1.2702
16.2275,1.2621
16.2325,1.2715
16.2325,1.5147
16.2335,1.7288
16.2335,1.9246
16.2395,2.104
16.2405,2.3455
16.2405,2.3403
16.2405,2.254
16.2405,2.1106
16.2465,1.7022
16.2465,1.5102
16.2465,1.3489
16.2465,1.2623
16.2475,1.2707
16.2535,1.3334
16.2535,1.5068
16.2535,1.9097
16.2535,2.0946
16.2605,2.2495
16.2605,2.3286
16.2605,2.2677
16.2614,2.1186
16.2614,1.9156
16.2668,1.7084
16.2668,1.3491
16.2674,1.2696
16.2674,1.2582
16.2734,1.2615
16.2744,1.4774
16.2744,1.6789
16.2744,1.8706
16.2744,2.0543
16.2804,2.3106
16.2804,2.3219
16.2804,2.2446
16.2814,2.1128
16.2864,1.7219
16.2874,1.5244
16.2874,1.3482
16.2874,1.2621
16.2884,1.2679
16.2933,1.3272
16.2933,1.4954
16.2943,1.9064
16.2943,2.0958
16.2943,2.2559
16.3003,2.3455
16.3003,2.2926
16.3013,2.1638
16.3013,1.9709
16.3073,1.7633
16.3073,1.4166
16.3083,1.305
16.3083,1.2767
16.3083,1.2884
16.3163,1.5364
16.3193,1.7395
16.3243,1.9392
16.3263,2.3058
16.3263,2.4136
16.3269,2.4406
16.3273,2.3566
16.3273,2.0399
16.3273,1.8357
16.3273,1.6454
16.3283,1.4789
16.3283,1.3086
16.3283,1.3274
16.3342,1.4151
16.3342,1.5795
16.3352,1.9907
16.3352,2.1893
16.3352,2.3532
16.3412,2.4974
16.3412,2.4353
16.3412,2.3003
16.3422,2.092
16.3422,1.7099
16.3482,1.5495
16.3482,1.4085
16.3482,1.3504
16.3492,1.4642
16.3552,1.6309
16.3552,1.8306
16.3562,2.0237
16.3562,2.3959
16.3562,2.4993
16.3617,2.5274
16.3622,2.3359
16.3622,2.1509
16.3622,1.9497
16.3689,1.7665
16.3691,1.4477
16.3691,1.3849
16.3691,1.4063
16.3701,1.4884
16.3752,1.8691
16.3752,2.068
16.3752,2.2581
16.3761,2.4303
16.3821,2.5859
16.3821,2.5223
16.3821,2.3933
16.3831,1.9932
16.3831,1.8047
16.3881,1.6281
16.3891,1.4922
16.3891,1.4344
16.3891,1.5233
16.3891,1.6834
16.3951,1.8964
16.3961,2.2924
16.3961,2.4565
16.3961,2.5743
16.4030,2.5409
16.4030,2.4239
16.4030,2.2431
16.4040,2.0427
16.4040,1.6714
16.4093,1.5287
16.4093,1.4582
16.4100,1.4674
16.4100,1.6909
16.4160,1.9021
16.4160,2.1085
16.4170,2.3011
16.4170,2.5895
16.4170,2.5835
16.4220,2.5668
16.4230,2.26
16.4230,2.0515
16.4230,1.8512
16.4330,1.6692
16.4341,1.4744
16.4350,1.4721
16.4350,1.5475
16.4360,1.6943
16.4362,2.1025
16.4362,2.2894
16.4362,2.4616
16.4370,2.5876
16.4370,2.5797
16.4436,2.4593
16.4439,2.2784
16.4439,1.8736
16.4439,1.6943
16.4499,1.5439
16.4509,1.468
16.4509,1.5411
16.4509,1.693
16.4509,1.8962
16.4570,2.0971
16.4570,2.4578
16.4570,2.5831
16.4579,2.5906
16.4639,2.4483
16.4639,2.2683
16.4649,2.0616
16.4649,1.8692
16.4649,1.5218
16.4704,1.4519
16.4709,1.45
16.4709,1.5152
16.4709,1.8631
16.4776,2.0721
16.4778,2.2675
16.4778,2.5664
16.4778,2.5988
16.4778,2.576
16.4838,2.4665
16.4838,2.0766
16.4838,1.8792
16.4848,1.6894
16.4848,1.534
16.4911,1.4524
16.4911,1.5186
16.4918,1.6489
16.4918,2.0549
16.4978,2.2551
16.4978,2.4364
16.4988,2.5583
16.4988,2.5692
16.4988,2.4603
16.5048,2.2821
16.5048,2.0708
16.5048,1.6941
16.5048,1.5381
16.5118,1.4412
16.5118,1.4187
16.5118,1.6206
16.5128,1.8175
16.5128,2.0277
16.5177,2.3853
16.5177,2.5293
16.5187,2.5919
16.5187,2.5505
16.5247,2.2729
16.5247,2.0592
16.5257,1.8632
16.5257,1.6804
16.5257,1.4432
16.5317,1.4142
16.5317,1.4697
16.5317,1.7987
16.5317,2.0069
16.5327,2.1955
16.5417,2.3688
16.5469,2.5711
16.5477,2.5493
16.5487,2.4434
16.5487,2.2713
16.5487,1.8816
16.5487,1.6922
16.5487,1.5338
16.5497,1.4241
16.5517,1.4781
16.5527,1.6045
16.5527,1.7948
16.5527,2.1933
16.5586,2.3633
16.5596,2.494
16.5596,2.5623
16.5603,2.4441
16.5606,2.2818
16.5656,2.0639
16.5656,1.8567
16.5656,1.5201
16.5666,1.4265
16.5726,1.3956
16.5726,1.5747
16.5726,1.7667
16.5736,1.9748
16.5736,2.1651
16.5786,2.4978
16.5796,2.554
16.5796,2.519
16.5796,2.4312
16.5796,2.0622
16.5866,1.858
16.5866,1.6626
16.5866,1.3881
16.5866,1.3658
16.5935,1.4264
16.5935,1.5443
16.5935,1.9384
16.5945,2.1364
16.5945,2.3256
16.5995,2.4672
16.5995,2.5248
16.6005,2.4303
16.6005,2.2701
16.6065,2.0643
16.6065,1.6846
16.6075,1.5143
16.6075,1.4029
16.6075,1.4175
16.6135,1.5344
16.6135,1.7258
16.6135,1.9373
16.6145,2.3059
16.6205,2.4588
16.6205,2.5313
16.6205,2.5293
16.6215,2.2786
16.6215,2.0676
16.6265,1.8685
16.6265,1.6868
16.6275,1.4112
16.6275,1.3583
16.6275,1.407
16.6334,1.7091
16.6334,1.927
16.6344,2.116
16.6344,2.2984
16.6404,2.5418
16.6414,2.5326
16.6414,2.44
16.6414,2.2836
16.6414,1.8749
16.6474,1.6838
16.6474,1.5195
16.6474,1.4063
16.6474,1.3986
16.6574,1.5149
16.6584,1.6962
16.6584,2.0879
16.6594,2.2863
16.6594,2.4396
16.6604,2.5195
16.6604,2.4252
16.6614,2.2791
16.6614,2.0673
16.6673,1.8602
16.6683,1.5169
16.6683,1.3988
16.6683,1.3587
16.6683,1.5134
16.6743,1.69
16.6743,1.9037
16.6743,2.0916
16.6753,2.4316
16.6753,2.5259
16.6815,2.5315
16.6815,2.4415
16.6815,2.1012
16.6823,1.8865
16.6883,1.6913
16.6883,1.5218
16.6893,1.351
16.6893,1.3763
16.6893,1.4762
16.6953,1.8704
16.6953,2.0639
16.6953,2.2489
16.6953,2.4006
16.7022,2.4987
16.7022,2.4254
16.7022,2.2864
16.7022,2.0796
16.7032,1.6943
16.7082,1.5218
16.7082,1.3872
16.7092,1.362
16.7092,1.4575
16.7152,1.6234
16.7152,1.8361
16.7162,2.2266
16.7162,2.3809
16.7162,2.4796
16.7212,2.4974
16.7222,2.2688
16.7222,2.0733
16.7222,1.8649
16.7232,1.6896
16.7292,1.386
16.7292,1.3352
16.7292,1.3467
16.7292,1.4436
16.7362,1.8276
16.7362,2.0282
16.7362,2.2133
16.7372,2.3629
16.7372,2.5002
16.7441,2.4224
16.7441,2.2889
16.7441,1.8839
16.7451,1.7056
16.7512,1.3823
16.7541,1.3485
16.7581,1.4459
16.7602,1.6079
16.7602,2.0138
16.7602,2.2053
16.7611,2.3622
16.7611,2.4642
16.7611,2.4166
16.7641,2.2906
16.7641,2.1018
16.7651,1.8876
16.7651,1.5246
16.7651,1.3919
16.7711,1.3307
16.7711,1.3431
16.7711,1.6009
16.7721,1.8072
16.7721,1.9994
16.7780,2.3629
16.7780,2.4663
16.7780,2.4978
16.7790,2.4295
16.7850,2.1164
16.7850,1.9052
16.7850,1.7138
16.7860,1.5405
16.7860,1.348
16.7910,1.3598
16.7920,1.4447
16.7920,1.6007
16.7920,2.0063
16.7980,2.2041
16.7990,2.3689
16.7990,2.5171
16.7990,2.4466
16.8000,2.3258
16.8050,2.1366
16.8050,1.7361
16.8050,1.542
16.8060,1.3952
16.8122,1.3341
16.8122,1.4312
16.8130,1.5934
16.8130,1.7907
16.8130,1.9937
16.8179,2.3502
16.8190,2.4698
16.8190,2.5025
16.8190,2.4381
16.8190,2.1237
16.8249,1.9146
16.8259,1.7196
16.8259,1.3982
16.8259,1.3298
16.8329,1.324
16.8329,1.4059
16.8329,1.7678
16.8329,1.9759
16.8339,2.1726
16.8389,2.3395
16.8389,2.5008
16.8399,2.4376
16.8399,2.3187
16.8459,2.1421
16.8459,1.7149
16.8469,1.5089
16.8469,1.3587
16.8469,1.2882
16.8518,1.3437
16.8528,1.4817
16.8528,1.6795
16.8528,2.0654
16.8588,2.2251
16.8601,2.3373
16.8601,2.3742
16.8608,2.2004
16.8608,2.0042
16.8678,1.7817
16.8708,1.5945
16.8764,1.2908
16.8778,1.263
16.8778,1.2595
16.8778,1.3692
16.8788,1.5567
16.8788,1.7464
16.8788,1.9394
16.8803,2.2381
16.8803,2.2872
16.8808,2.2293
16.8808,2.1136
16.8808,1.7187
16.8858,1.5224
16.8868,1.3365
16.8868,1.2614
16.8868,1.251
16.8927,1.2554
16.8940,1.2885
16.8940,1.4432
16.8947,1.8526
16.8947,2.0174
16.8998,2.1509
16.8998,2.1865
16.8998,2.0249
16.9007,1.8413
16.9067,1.6275
16.9067,1.4329
16.9077,1.2527
16.9077,1.2494
16.9077,1.249
16.9127,1.2634
16.9137,1.3859
16.9137,1.5859
16.9137,1.7729
16.9137,2.0763
16.9197,2.1286
16.9207,2.0858
16.9207,1.9654
16.9207,1.572
16.9275,1.3746
16.9276,1.264
16.9276,1.2507
16.9276,1.2486
16.9286,1.2486
16.9336,1.2544
16.9336,1.3159
16.9346,1.6868
16.9346,1.8572
16.9406,1.9904
16.9406,2.0414
16.9416,1.9077
16.9416,1.7326
16.9416,1.524
16.9466,1.257
16.9476,1.2492
16.9476,1.2482
16.9476,1.248
16.9536,1.2505
16.9546,1.2758
16.9546,1.4256
16.9546,1.6137
16.9546,1.9382
