4.5328,1.632
4.5337,1.6868
4.5337,1.6707
4.5347,1.6643
4.5347,1.6877
4.5357,1.6643
4.5357,1.7282
4.5367,1.7562
4.5367,1.6997
4.5367,1.639
4.5377,1.6656
4.5377,1.6491
4.5387,1.6101
4.5387,1.5657
4.5397,1.5542
4.5397,1.597
4.5407,1.627
4.5407,1.621
4.5418,1.7292
4.5428,1.7832
4.5428,1.7894
4.5450,1.7886
4.5458,1.7236
4.5458,1.6426
4.5468,1.5878
4.5522,1.6712
4.5522,1.6161
4.5532,1.5848
4.5532,1.6782
4.5542,1.7993
4.5583,1.8717
4.5592,1.7912
4.5602,1.6951
4.5602,1.69
4.5655,1.7717
4.5655,1.7836
4.5665,1.6364
4.5665,1.5692
4.5675,1.5762
4.5718,1.6394
4.5718,1.7976
4.5728,1.7586
4.5728,1.7324
4.5738,1.7108
4.5787,1.6982
4.5787,1.6879
4.5797,1.7562
4.5807,1.6576
4.5859,1.6157
4.5859,1.5372
4.5870,1.5756
4.5870,1.5278
4.5880,1.5801
4.5973,1.6547
4.6113,1.7451
4.6143,1.7423
4.6153,1.7757
4.6153,1.822
4.6163,1.7354
4.6163,1.7108
4.6173,1.7751
4.6173,1.6892
4.6183,1.7288
4.6183,1.7134
4.6183,1.6917
4.6193,1.6184
4.6193,1.6056
4.6203,1.5779
4.6203,1.6099
4.6214,1.6579
4.6214,1.6696
4.6224,1.6564
4.6224,1.5989
4.6233,1.6388
4.6233,1.7635
4.6233,1.7357
4.6278,1.7738
4.6283,1.7359
4.6283,1.7172
4.6293,1.8122
4.6345,1.7251
4.6355,1.7401
4.6355,1.7631
4.6365,1.7717
4.6365,1.6936
4.6417,1.7423
4.6426,1.7794
4.6426,1.6838
4.6436,1.7059
4.6484,1.6756
4.6484,1.6373
4.6494,1.6759
4.6494,1.5885
4.6504,1.5983
4.6547,1.6607
4.6547,1.6139
4.6557,1.5432
4.6557,1.6264
4.6619,1.6077
4.6627,1.6823
4.6627,1.8021
4.6627,1.8488
4.6637,1.8179
4.6683,1.7288
4.6691,1.7597
4.6691,1.7624
4.6701,1.7305
4.6701,1.7209
4.6751,1.7221
4.6761,1.7522
4.6761,1.7759
4.6761,1.7933
4.6825,1.7738
4.6833,1.7575
4.6833,1.8096
4.6844,1.8469
4.6844,1.8741
4.6885,1.7567
4.6896,1.72
4.6896,1.711
4.6906,1.6598
4.6957,1.6296
4.6966,1.6853
4.6966,1.6422
4.6975,1.6097
4.6975,1.5929
4.7022,1.5285
4.7033,1.6343
4.7033,1.7056
4.7042,1.6789
4.7087,1.7074
4.7098,1.7016
4.7098,1.7359
4.7109,1.6784
4.7198,1.7551
4.7297,1.6506
4.7347,1.7213
4.7357,1.7419
4.7367,1.6476
4.7367,1.5435
4.7377,1.6304
4.7387,1.5835
4.7387,1.5419
4.7397,1.5201
4.7397,1.6441
4.7406,1.6712
4.7406,1.7005
4.7426,1.7076
4.7439,1.7579
4.7446,1.6381
4.7457,1.6921
4.7457,1.6341
4.7466,1.7099
4.7466,1.6857
4.7476,1.6446
4.7476,1.6452
4.7486,1.6705
4.7496,1.629
4.7496,1.5992
4.7506,1.542
4.7506,1.7054
4.7516,1.6949
4.7566,1.6437
4.7566,1.6589
4.7579,1.7086
4.7586,1.7147
4.7606,1.7757
4.7628,1.7869
4.7636,1.7702
4.7636,1.7742
4.7646,1.6471
4.7646,1.6017
4.7706,1.599
4.7706,1.6099
4.7706,1.5602
4.7716,1.611
4.7777,1.6487
4.7777,1.6705
4.7786,1.6289
4.7786,1.6242
4.7795,1.6367
4.7835,1.5902
4.7845,1.5589
4.7845,1.5674
4.7855,1.4552
4.7905,1.4852
4.7915,1.5542
4.7925,1.4753
4.7940,1.5625
4.7945,1.7063
4.7975,1.6221
4.7975,1.672
4.7985,1.6752
4.7985,1.6028
4.8047,1.5985
4.8047,1.6739
4.8057,1.7914
4.8057,1.7245
4.8067,1.756
4.8111,1.9392
4.8120,1.9825
4.8120,1.9866
4.8120,2.0065
4.8130,2.0631
4.8179,2.0588
4.8179,1.9967
4.8190,1.9919
4.8190,2.1177
4.8292,2.104
4.8422,2.0511
4.8422,1.9699
4.8451,1.783
4.8451,1.7209
4.8461,1.7266
4.8461,1.7219
4.8471,1.6849
4.8471,1.6412
4.8481,1.6561
4.8481,1.699
4.8491,1.6924
4.8491,1.6853
4.8491,1.6187
4.8501,1.6615
4.8501,1.6077
4.8511,1.5715
4.8511,1.5203
4.8521,1.5342
4.8521,1.5295
4.8531,1.5792
4.8532,1.558
4.8532,1.6619
4.8587,1.663
4.8587,1.6714
4.8597,1.8006
4.8597,1.8066
4.8597,1.6724
4.8658,1.5578
4.8658,1.459
4.8667,1.4654
4.8667,1.5049
4.8731,1.5124
4.8731,1.5323
4.8740,1.6452
4.8750,1.7404
4.8760,1.8199
4.8793,1.6786
4.8803,1.7333
4.8803,1.7914
4.8803,1.7699
4.8867,1.6542
4.8867,1.5975
4.8877,1.6369
4.8887,1.6519
4.8897,1.6589
4.8930,1.576
4.8930,1.6142
4.8941,1.6163
4.8941,1.6482
4.8999,1.7091
4.9000,1.813
4.9010,1.8269
4.9010,1.7961
4.9010,1.7648
4.9061,1.7099
4.9070,1.6499
4.9070,1.6039
4.9080,1.5662
4.9095,1.6212
4.9132,1.6212
4.9139,1.5975
4.9139,1.7654
4.9139,1.753
4.9243,1.7275
4.9373,1.6275
4.9403,1.6611
4.9413,1.6182
4.9413,1.5912
4.9423,1.6326
4.9423,1.669
4.9433,1.6611
4.9433,1.6506
4.9443,1.6551
4.9443,1.6936
4.9453,1.7147
4.9453,1.7089
4.9463,1.7327
4.9463,1.648
4.9472,1.6677
4.9472,1.6604
4.9472,1.6956
4.9484,1.6656
4.9484,1.7007
4.9493,1.6277
4.9493,1.5546
4.9503,1.5955
4.9534,1.6022
4.9543,1.4978
4.9543,1.5867
4.9553,1.6077
4.9553,1.7069
4.9605,1.7986
4.9613,1.7971
4.9613,1.7447
4.9623,1.7642
4.9676,1.7601
4.9682,1.7412
4.9682,1.6354
4.9692,1.6107
4.9692,1.5874
4.9742,1.6531
4.9759,1.6364
4.9762,1.6694
4.9762,1.7026
4.9812,1.7005
4.9812,1.7446
4.9822,1.6943
4.9834,1.7637
4.9834,1.7732
4.9874,1.7256
4.9885,1.6872
4.9885,1.5574
4.9885,1.6247
4.9947,1.6992
4.9947,1.7033
4.9956,1.6652
4.9956,1.6671
4.9966,1.7624
5.0008,1.8031
5.0016,1.7837
5.0016,1.8379
5.0026,1.8349
5.0026,1.7147
5.0076,1.7976
5.0086,1.7401
5.0096,1.6701
5.0096,1.7468
5.0150,1.8289
5.0160,1.8593
5.0160,1.8434
5.0170,1.8151
5.0170,1.7631
5.0214,1.8059
5.0225,1.8261
5.0225,1.7845
5.0225,1.7652
5.0286,1.7654
5.0286,1.7515
5.0296,1.6373
5.0296,1.6724
5.0306,1.6889
5.0359,1.7506
5.0578,1.7961
5.0588,1.8137
5.0598,1.9292
5.0598,1.8874
5.0608,1.8629
5.0608,1.8891
5.0608,1.7993
5.0618,1.7714
5.0624,1.6892
5.0628,1.6272
5.0628,1.5872
5.0638,1.4132
5.0638,1.4661
5.0648,1.5752
5.0648,1.7701
5.0658,2.0136
5.0658,2.0074
5.0668,1.918
5.0668,1.8499
5.0668,1.8788
5.0678,1.831
5.0678,1.8246
5.0688,1.6506
5.0688,1.6255
5.0698,1.6821
5.0698,1.7222
5.0759,1.7954
5.0768,1.8357
5.0768,1.8319
5.0778,1.7777
5.0778,1.7881
5.0821,1.7592
5.0832,1.7667
5.0832,1.8017
5.0832,1.6615
5.0894,1.6037
5.0894,1.6043
5.0904,1.6379
5.0904,1.6373
5.0914,1.6894
5.0955,1.6508
5.0964,1.6626
5.0964,1.6727
5.0974,1.6846
5.0974,1.6761
5.1028,1.6821
5.1034,1.7277
5.1034,1.6887
5.1044,1.6613
5.1096,1.6124
5.1104,1.681
5.1104,1.6472
5.1117,1.6095
5.1117,1.5244
5.1170,1.5338
5.1175,1.5621
5.1180,1.6448
5.1180,1.6741
5.1234,1.63
5.1243,1.5597
5.1244,1.6067
5.1244,1.7622
5.1254,1.7099
5.1296,1.7457
5.1307,1.6731
5.1307,1.6365
5.1317,1.669
5.1368,1.7166
5.1368,1.6214
5.1378,1.7297
5.1378,1.6857
5.1387,1.6834
5.1430,1.6846
5.1441,1.6879
5.1441,1.6853
5.1441,1.6596
5.1453,1.6654
5.1696,1.608
5.1727,1.576
5.1778,1.6227
5.1801,1.5145
5.1808,1.6904
5.1808,1.6966
5.1808,1.5297
5.1821,1.5852
5.1821,1.7007
5.1828,1.7824
5.1838,1.6958
5.1869,1.702
5.1869,1.72
5.1878,1.7196
5.1878,1.6354
5.1888,1.6148
5.1888,1.605
5.1901,1.639
5.1908,1.6118
5.1918,1.648
5.1937,1.6681
5.1937,1.6836
5.1948,1.7301
5.1948,1.6664
5.1948,1.5134
5.1958,1.6859
5.1958,1.6095
5.1967,1.7239
5.1980,1.7176
5.1990,1.6915
5.2020,1.6649
5.2020,1.7284
5.2031,1.7781
5.2031,1.7459
5.2042,1.6892
5.2042,1.6289
5.2053,1.5876
5.2070,1.66
5.2080,1.6763
5.2090,1.7136
5.2090,1.7046
5.2113,1.6358
5.2125,1.5953
5.2132,1.6043
5.2142,1.6954
5.2181,1.6628
5.2192,1.6362
5.2192,1.6285
5.2211,1.4854
5.2211,1.5454
5.2249,1.56
5.2253,1.6504
5.2273,1.7457
5.2284,1.7569
5.2314,1.7742
5.2323,1.6527
5.2323,1.6169
5.2333,1.6943
5.2343,1.6881
5.2379,1.5992
5.2379,1.6527
5.2390,1.7269
5.2390,1.7496
5.2400,1.6557
5.2449,1.5914
5.2459,1.6305
5.2459,1.6433
5.2473,1.675
5.2559,1.7884
5.2730,1.7491
5.2743,1.687
5.2779,1.7573
5.2789,1.7539
5.2789,1.7185
5.2798,1.7101
5.2798,1.8139
5.2808,1.7404
5.2808,1.6544
5.2818,1.6448
5.2818,1.6167
5.2828,1.5842
5.2828,1.5612
5.2838,1.5509
5.2840,1.5612
5.2851,1.5402
5.2851,1.5464
5.2858,1.6549
5.2858,1.7101
5.2868,1.6891
5.2868,1.8151
5.2878,1.7877
5.2878,1.7935
5.2888,1.7419
5.2888,1.7479
5.2899,1.6275
5.2899,1.6067
5.2928,1.6193
5.2938,1.6934
5.2948,1.8617
5.2950,1.7479
5.2992,1.6979
5.3003,1.6394
5.3003,1.7018
5.3003,1.7965
5.3012,1.7198
5.3063,1.6579
5.3063,1.7273
5.3063,1.7716
5.3079,1.8482
5.3129,1.8676
5.3129,1.8891
5.3140,1.8586
5.3140,1.7624
5.3150,1.7725
5.3192,1.8464
5.3203,1.8175
5.3203,1.6696
5.3203,1.7267
5.3262,1.6827
5.3262,1.6797
5.3272,1.7588
5.3282,1.8062
5.3292,1.78
5.3344,1.6832
5.3354,1.7024
5.3354,1.7056
5.3354,1.6469
5.3364,1.7237
5.3415,1.7228
5.3424,1.7914
5.3424,1.7809
5.3424,1.6934
5.3487,1.7078
5.3487,1.5092
5.3499,1.5347
5.3499,1.5539
5.3508,1.5539
5.3551,1.6004
5.3558,1.5923
5.3558,1.6112
5.3569,1.5614
5.3629,1.492
5.3759,1.5
5.3768,1.5925
5.3798,1.5996
5.3808,1.8767
5.3808,1.8788
5.3818,1.8766
5.3818,1.7386
5.3828,1.7948
5.3828,1.7131
5.3838,1.6414
5.3838,1.7305
5.3848,1.7067
5.3848,1.6067
5.3848,1.5722
5.3858,1.6082
5.3858,1.5717
5.3868,1.5602
5.3868,1.4779
5.3888,1.5383
5.3898,1.7942
5.3898,1.9512
5.3898,2.0144
5.3963,1.8886
5.3973,1.7239
5.3973,1.6752
5.3973,1.7187
5.3982,1.8331
5.4026,1.8152
5.4037,1.75
5.4037,1.6187
5.4047,1.5257
5.4095,1.6097
5.4095,1.548
5.4106,1.552
5.4106,1.5709
5.4119,1.5867
5.4169,1.4489
5.4172,1.5355
5.4172,1.6467
5.4182,1.6184
5.4236,1.5867
5.4246,1.6782
5.4246,1.7367
5.4260,1.6842
5.4266,1.6936
5.4299,1.6568
5.4308,1.6339
5.4308,1.6853
5.4308,1.7284
5.4318,1.7554
5.4371,1.9506
5.4371,2.0224
5.4371,1.9572
5.4381,1.9887
5.4437,2.2009
5.4447,2.1771
5.4447,2.1289
5.4447,1.9926
5.4460,2.2176
5.4503,2.2804
5.4513,2.2542
5.4513,2.2248
5.4524,1.9577
5.4571,1.8638
5.4571,1.7984
5.4582,1.7597
5.4582,1.6885
5.4593,1.6217
5.4636,1.5647
5.4646,1.5555
5.4646,1.7056
5.4646,1.7131
5.4710,1.6819
5.4710,1.6538
5.4720,1.6043
5.4720,1.5908
5.4730,1.5758
5.4786,1.6654
5.4926,1.7434
5.4958,1.7712
5.4958,1.7541
5.4968,1.7939
5.4968,1.7836
5.4978,1.6874
5.4978,1.6949
5.4988,1.5038
5.4988,1.5559
5.4998,1.6559
5.4998,1.6677
5.5008,1.7029
5.5008,1.7026
5.5018,1.7071
5.5020,1.8173
5.5020,1.7402
5.5030,1.6591
5.5040,1.6268
5.5050,1.6199
5.5050,1.6075
5.5061,1.7654
5.5072,1.7871
5.5113,1.8606
5.5121,1.8454
5.5121,1.8711
5.5121,1.8237
5.5186,1.6752
5.5187,1.7292
5.5187,1.7314
5.5198,1.7125
5.5198,1.7852
5.5242,1.8587
5.5252,1.8754
5.5252,1.8462
5.5263,1.8976
5.5263,1.867
5.5315,1.8064
5.5315,1.7414
5.5325,1.711
5.5325,1.6317
5.5388,1.6328
5.5388,1.5797
5.5398,1.59
5.5398,1.6677
5.5408,1.7296
5.5448,1.9094
5.5458,1.8809
5.5458,1.8715
5.5458,1.729
5.5523,1.7361
5.5533,1.6172
5.5533,1.6082
5.5543,1.7552
5.5543,1.771
5.5585,1.84
5.5595,1.8019
5.5595,1.6684
5.5605,1.6264
5.5647,1.617
5.5656,1.6313
5.5666,1.6474
5.5666,1.6707
5.5666,1.7264
5.5719,1.7344
5.5728,1.8827
5.5738,1.9377
5.5748,1.8297
5.5758,1.8428
5.5798,1.8226
5.5808,1.837
5.5818,1.8169
5.5829,1.7791
5.6090,1.7402
5.6110,1.7669
5.6152,1.7879
5.6152,1.7869
5.6162,1.8038
5.6162,1.7852
5.6172,1.7702
5.6172,1.6611
5.6172,1.6035
5.6182,1.6864
5.6182,1.7539
5.6193,1.7667
5.6193,1.7897
5.6203,1.7817
5.6203,1.8083
5.6213,1.7671
5.6213,1.7654
5.6223,1.8332
5.6223,1.8012
5.6223,1.8229
5.6233,1.8074
5.6233,1.7704
5.6253,1.7676
5.6253,1.7656
5.6263,1.7402
5.6263,1.7627
5.6263,1.8432
5.6273,1.8256
5.6273,1.8006
5.6283,1.8542
5.6283,1.7907
5.6293,1.7269
5.6336,1.7537
5.6336,1.6746
5.6347,1.7357
5.6347,1.8278
5.6357,1.8295
5.6400,1.7948
5.6413,1.9195
5.6422,1.9587
5.6430,1.9382
5.6476,2.0057
5.6476,2.0431
5.6486,2.0194
5.6486,1.9652
5.6486,1.8681
5.6533,1.8205
5.6543,1.7423
5.6543,1.6433
5.6543,1.6319
5.6607,1.6022
5.6614,1.6759
5.6614,1.8265
5.6623,1.8306
5.6623,1.9487
5.6667,1.9651
5.6677,1.8445
5.6677,1.8413
5.6687,1.8394
5.6687,1.8655
5.6739,1.795
5.6749,1.795
5.6749,1.8719
5.6759,1.7747
5.6812,1.7579
5.6812,1.8027
5.6825,1.8561
5.6825,1.8895
5.6835,1.951
5.6880,2.0108
5.6880,1.9652
5.6890,1.8226
5.6890,1.7564
5.6963,1.8149
5.7095,1.9469
5.7127,1.9411
5.7127,1.8184
5.7137,1.738
5.7147,1.7879
5.7147,1.7354
5.7147,1.729
5.7157,1.7468
5.7157,1.7007
5.7168,1.7627
5.7169,1.7324
5.7169,1.7446
5.7179,1.8008
5.7179,1.7841
5.7189,1.7564
5.7189,1.7014
5.7189,1.7727
5.7199,1.7357
5.7219,1.6789
5.7221,1.7326
5.7221,1.7605
5.7233,1.7631
5.7288,1.8141
5.7296,1.7704
5.7296,1.7564
5.7306,1.8001
5.7306,1.6028
5.7351,1.654
5.7362,1.7738
5.7362,1.6902
5.7372,1.6176
5.7422,1.7198
5.7430,1.6735
5.7430,1.7927
5.7442,1.9069
5.7442,1.897
5.7492,1.8571
5.7495,1.8038
5.7505,1.7541
5.7505,1.6799
5.7552,1.6349
5.7562,1.6281
5.7562,1.7086
5.7572,1.6789
5.7582,1.7132
5.7620,1.5745
5.7631,1.7408
5.7631,1.7596
5.7631,1.7251
5.7641,1.7097
5.7692,1.7054
5.7692,1.8535
5.7704,1.8464
5.7704,1.7316
5.7768,1.6446
5.7768,1.6562
5.7779,1.5546
5.7779,1.5938
5.7789,1.645
5.7833,1.6921
5.7833,1.7322
5.7843,1.8602
5.7843,1.8295
5.7900,1.7961
5.7910,1.7897
5.7910,1.7592
5.7910,1.6926
5.7920,1.6039
5.7965,1.6182
5.7965,1.7104
5.7975,1.6124
5.7975,1.6514
5.8045,1.7251
5.8184,1.7416
5.8221,1.8719
5.8221,1.8676
5.8231,1.8857
5.8231,1.978
5.8231,1.6658
5.8243,1.6497
5.8252,1.5895
5.8252,1.6197
5.8264,1.5165
5.8264,1.5383
5.8264,1.5908
5.8274,1.7614
5.8274,1.8394
5.8284,1.8512
5.8284,1.7061
5.8294,1.612
5.8294,1.6615
5.8306,1.7215
5.8306,1.8074
5.8317,1.7271
5.8317,1.6289
5.8373,1.711
5.8383,1.6122
5.8383,1.5692
5.8393,1.6112
5.8393,1.611
5.8441,1.6891
5.8450,1.8214
5.8450,1.9054
5.8460,1.9647
5.8513,1.9446
5.8513,1.8207
5.8523,1.804
5.8523,1.6641
5.8533,1.7149
5.8575,1.6628
5.8585,1.5055
5.8585,1.5179
5.8595,1.5593
5.8595,1.7826
5.8649,1.7858
5.8649,1.7734
5.8659,1.7723
5.8660,1.8364
5.8717,1.7794
5.8717,1.6971
5.8727,1.6037
5.8727,1.5882
5.8737,1.6544
5.8783,1.7138
5.8793,1.6964
5.8793,1.7406
5.8803,1.7656
5.8853,1.7654
5.8853,1.7532
5.8864,1.7192
5.8864,1.7046
5.8874,1.6729
5.8915,1.5786
5.8926,1.5471
5.8926,1.5312
5.8936,1.7978
5.8988,1.7712
5.8988,1.7029
5.8999,1.7104
5.8999,1.7524
5.9011,1.7669
5.9051,1.7599
5.9062,1.7676
5.9064,1.7492
5.9064,1.8351
5.9074,1.8441
5.9268,1.8739
5.9310,1.8115
5.9310,1.6951
5.9321,1.7031
5.9321,1.6576
5.9330,1.4982
5.9330,1.5167
5.9330,1.7279
5.9341,1.8014
5.9341,1.7547
5.9352,1.7185
5.9353,1.693
5.9353,1.7837
5.9364,1.8321
5.9364,1.6904
5.9374,1.7022
5.9374,1.6592
5.9374,1.7532
5.9392,1.6334
5.9402,1.6982
5.9402,1.7532
5.9414,1.6465
5.9466,1.6005
5.9468,1.6701
5.9479,1.7273
5.9479,1.8209
5.9479,1.7536
5.9526,1.6088
5.9537,1.6712
5.9537,1.7356
5.9537,1.7588
5.9546,1.7425
5.9596,1.7322
5.9606,1.6619
5.9606,1.6077
5.9616,1.5655
5.9669,1.5908
5.9669,1.6399
5.9679,1.7528
5.9679,1.7496
5.9689,1.7209
5.9734,1.7881
5.9742,1.7802
5.9742,1.8319
5.9755,1.84
5.9809,1.7719
5.9809,1.8186
5.9820,1.9062
5.9820,1.7794
5.9820,1.7224
5.9874,1.5795
5.9874,1.4813
5.9885,1.6386
5.9894,1.7086
5.9941,1.8514
5.9941,1.7599
5.9951,1.7029
5.9951,1.7249
5.9961,1.5576
6.0005,1.5764
6.0005,1.6322
6.0015,1.548
6.0015,1.6688
6.0027,1.5332
6.0077,1.7691
6.0077,2.0453
6.0087,2.002
6.0090,1.9238
6.0144,1.7892
6.0154,1.6148
6.0154,1.5917
6.0154,1.5914
6.0164,1.5822
6.0279,1.5255
6.0374,1.558
6.0394,1.5563
6.0410,1.6133
6.0414,1.7631
6.0414,1.7924
6.0424,1.8032
6.0424,1.7172
6.0436,1.7162
6.0436,1.6898
6.0446,1.765
6.0446,1.7267
6.0456,1.6669
6.0456,1.6302
6.0456,1.5953
6.0466,1.5597
6.0466,1.5606
6.0476,1.5953
6.0476,1.6718
6.0486,1.7682
6.0486,1.7266
6.0496,1.6598
6.0498,1.6364
6.0548,1.5929
6.0559,1.5599
6.0610,1.5381
6.0622,1.618
6.0643,1.6191
6.0643,1.6139
6.0652,1.648
6.0663,1.7916
6.0672,1.7736
6.0702,1.7296
6.0712,1.6634
6.0722,1.6189
6.0722,1.6497
6.0772,1.4395
6.0772,1.5407
6.0782,1.551
6.0792,1.4119
6.0797,1.3654
6.0837,1.4757
6.0851,1.3094
6.0861,1.7048
6.0861,1.6109
6.0902,1.5884
6.0921,1.635
6.0931,1.6411
6.0941,1.6426
6.0951,1.6039
6.0971,1.5705
6.0981,1.5539
6.0991,1.6358
6.0991,1.7779
6.1001,2.0959
6.1043,2.0946
6.1051,2.2167
6.1061,2.3262
6.1071,2.1946
6.1111,2.1076
6.1121,1.9311
6.1131,1.8796
6.1131,1.8291
6.1141,1.7736
6.1181,1.7635
6.1181,1.6592
6.1191,1.5387
6.1191,1.6013
6.1251,1.5884
6.1255,1.7556
6.1261,1.8565
6.1261,1.8552
6.1271,1.7882
6.1331,1.6439
6.1494,1.6058
6.1521,1.6666
6.1531,1.6887
6.1531,1.5754
6.1531,1.5015
6.1541,1.5276
6.1541,1.4762
6.1551,1.5792
6.1551,1.6581
6.1561,1.6799
6.1561,1.6988
6.1561,1.7659
6.1580,1.7239
6.1590,1.6639
6.1600,1.6424
6.1611,1.5441
6.1611,1.5332
6.1620,1.4991
6.1620,1.6131
6.1630,1.5597
6.1630,1.6219
6.1640,1.7423
6.1650,1.7005
6.1660,1.7177
6.1660,1.6789
6.1670,1.726
6.1720,1.7138
6.1730,1.6067
6.1730,1.6195
6.1740,1.4745
6.1742,1.483
6.1790,1.506
6.1790,1.4665
6.1800,1.509
6.1800,1.5715
6.1860,1.8334
6.1860,1.6975
6.1870,1.6904
6.1870,1.7245
6.1870,1.6315
6.1920,1.6214
6.1930,1.5445
6.1930,1.5419
6.1940,1.5602
6.1940,1.602
6.1989,1.5557
6.1999,1.5754
6.1999,1.596
6.2009,1.7712
6.2065,1.7155
6.2081,1.6909
6.2081,1.7356
6.2089,1.6898
6.2089,1.5372
6.2129,1.5299
6.2129,1.5869
6.2139,1.4659
6.2139,1.3834
6.2199,1.4659
6.2203,1.6718
6.2209,1.675
6.2209,1.8548
6.2219,1.9527
6.2259,1.8902
6.2269,1.7762
6.2269,1.7252
6.2279,1.7057
6.2328,1.6564
6.2338,1.7012
6.2338,1.6705
6.2338,1.5629
6.2348,1.5447
6.2398,1.6377
6.2588,1.5657
6.2608,1.5629
6.2641,1.5927
6.2648,1.6658
6.2658,1.6566
6.2673,1.7584
6.2678,1.7509
6.2688,1.7232
6.2707,1.7029
6.2717,1.5827
6.2727,1.5134
6.2737,1.5297
6.2747,1.5514
6.2757,1.6315
6.2767,1.5293
6.2777,1.5672
6.2797,1.7796
6.2807,1.7099
6.2807,1.7144
6.2817,1.7114
6.2829,1.7232
6.2837,1.8096
6.2847,1.7406
6.2857,1.6979
6.2867,1.5705
6.2867,1.581
6.2877,1.5465
6.2887,1.6266
6.2887,1.6951
6.2897,1.6996
6.2897,1.6634
6.2907,1.7468
6.2917,1.861
6.2927,1.777
6.2937,1.6724
6.2947,1.626
6.2947,1.5912
6.2957,1.6129
6.2957,1.5512
6.2967,1.6797
6.3007,1.6054
6.3017,1.633
6.3017,1.6643
6.3027,1.7419
6.3027,1.7284
6.3076,1.6454
6.3086,1.6465
6.3086,1.7731
6.3106,1.7721
6.3146,1.7631
6.3146,1.7026
6.3156,1.7504
6.3166,1.7183
6.3176,1.8034
6.3207,1.6855
6.3216,1.7989
6.3216,1.7922
6.3226,1.7549
6.3276,1.8619
6.3286,1.8546
6.3286,1.8451
6.3296,1.8353
6.3306,1.6307
6.3346,1.605
6.3346,1.533
6.3356,1.6334
6.3356,1.6054
6.3366,1.7185
6.3416,1.7691
6.3416,1.7689
6.3426,1.639
6.3445,1.7892
6.3675,1.7537
6.3685,1.702
6.3725,1.8188
6.3735,1.7725
6.3745,1.8141
6.3756,1.7071
6.3765,1.726
6.3775,1.6926
6.3785,1.5855
6.3795,1.618
6.3795,1.6067
6.3805,1.6034
6.3805,1.576
6.3814,1.7693
6.3814,1.7007
6.3824,1.7402
6.3824,1.7476
6.3834,1.672
6.3844,1.6354
6.3844,1.5428
6.3854,1.5029
6.3854,1.3607
6.3864,1.464
6.3864,1.5246
6.3874,1.5743
6.3874,1.6154
6.3884,1.5878
6.3884,1.6365
6.3894,1.7477
6.3894,1.6611
6.3914,1.7329
6.3924,1.585
6.3960,1.5803
6.3970,1.629
6.3980,1.6583
6.3990,1.6296
6.3990,1.5987
6.4022,1.5327
6.4032,1.5064
6.4042,1.5563
6.4042,1.6242
6.4098,1.7429
6.4102,1.6538
6.4112,1.6412
6.4112,1.6075
6.4112,1.6242
6.4165,1.4052
6.4165,1.4239
6.4175,1.5147
6.4175,1.5512
6.4233,1.5975
6.4244,1.6277
6.4254,1.5317
6.4254,1.4699
6.4265,1.5844
6.4294,1.6375
6.4304,1.6516
6.4304,1.4865
6.4314,1.5409
6.4314,1.4843
6.4364,1.4997
6.4374,1.5362
6.4384,1.6519
6.4384,1.6941
6.4438,1.6724
6.4444,1.5512
6.4454,1.5402
6.4464,1.4935
6.4474,1.5036
6.4496,1.6245
6.4506,1.5987
6.4506,1.6459
6.4516,1.6129
6.4683,1.5417
6.4693,1.5816
6.4723,1.5606
6.4723,1.4815
6.4733,1.627
6.4733,1.7232
6.4744,1.5934
6.4753,1.6958
6.4753,1.726
6.4753,1.7142
6.4763,1.6435
6.4773,1.5587
6.4773,1.5149
6.4783,1.6131
6.4783,1.612
6.4783,1.5186
6.4793,1.5891
6.4793,1.5488
6.4803,1.5077
6.4835,1.6178
6.4846,1.6054
6.4846,1.5409
6.4855,1.7354
6.4907,1.7121
6.4927,1.6412
6.4937,1.633
6.4937,1.5203
6.4949,1.5567
6.4974,1.5908
6.4985,1.5696
6.4985,1.567
6.4995,1.5981
6.5047,1.6283
6.5047,1.6077
6.5058,1.5584
6.5058,1.5735
6.5069,1.6591
6.5109,1.6834
6.5120,1.6748
6.5121,1.6099
6.5121,1.5045
6.5176,1.6165
6.5186,1.602
6.5186,1.5709
6.5196,1.5197
6.5196,1.542
6.5241,1.6489
6.5251,1.6457
6.5251,1.5525
6.5261,1.5679
6.5261,1.7215
6.5314,1.8462
6.5314,1.7446
6.5325,1.7509
6.5325,1.6589
6.5390,1.5597
6.5390,1.5141
6.5400,1.5323
6.5400,1.6094
6.5410,1.5842
6.5444,1.5582
6.5455,1.6793
6.5465,1.6921
6.5465,1.7074
6.5520,1.6883
6.5520,1.6435
6.5531,1.611
6.5531,1.6105
6.5541,1.4828
6.5584,1.4714
6.5584,1.5066
6.5594,1.5261
6.5594,1.6187
6.5655,1.6234
6.5724,1.5524
6.5858,1.6392
6.5881,1.6452
6.5891,1.7284
6.5891,1.7342
6.5900,1.657
6.5900,1.4959
6.5911,1.4455
6.5911,1.4963
6.5921,1.513
6.5921,1.4275
6.5933,1.407
6.5933,1.6362
6.5943,1.7768
6.5943,1.7369
6.5943,1.7959
6.5953,1.7594
6.5953,1.7024
6.5963,1.6711
6.5963,1.5989
6.5973,1.4519
6.5973,1.5285
6.5997,1.5349
6.5997,1.5872
6.6007,1.5812
6.6007,1.5827
6.6017,1.6148
6.6056,1.6714
6.6067,1.7035
6.6067,1.7468
6.6077,1.7716
6.6124,1.7573
6.6131,1.6433
6.6141,1.6604
6.6150,1.6697
6.6160,1.6079
6.6192,1.579
6.6192,1.5475
6.6202,1.5216
6.6202,1.5212
6.6212,1.6789
6.6265,1.6921
6.6265,1.6461
6.6274,1.6514
6.6274,1.8094
6.6329,1.7031
6.6339,1.7507
6.6339,1.5501
6.6351,1.5842
6.6351,1.5323
6.6404,1.6703
6.6404,1.4734
6.6404,1.498
6.6415,1.6105
6.6469,1.7339
6.6469,1.6427
6.6479,1.632
6.6479,1.5996
6.6489,1.5934
6.6532,1.5359
6.6542,1.558
6.6542,1.584
6.6542,1.6373
6.6599,1.536
6.6602,1.5357
6.6609,1.5623
6.6609,1.6281
6.6621,1.7506
6.6665,1.7734
6.6674,1.7577
6.6674,1.666
6.6684,1.5321
6.6684,1.5132
6.6736,1.5006
6.6741,1.5085
6.6747,1.5486
6.6747,1.5353
6.6841,1.491
6.6923,1.518
6.6956,1.5465
6.6966,1.6124
6.6966,1.5874
6.6975,1.7097
6.6975,1.632
6.6985,1.7468
6.6985,1.7044
6.6985,1.6116
6.6995,1.5887
6.6995,1.6442
6.7008,1.5387
6.7008,1.5047
6.7018,1.6101
6.7018,1.5786
6.7028,1.5143
6.7028,1.4498
6.7075,1.5261
6.7083,1.5664
6.7093,1.6557
6.7103,1.602
6.7103,1.5132
6.7138,1.4751
6.7147,1.4723
6.7147,1.4239
6.7147,1.5752
6.7158,1.6549
6.7210,1.5323
6.7210,1.6182
6.7220,1.6658
6.7220,1.6281
6.7282,1.6302
6.7282,1.6909
6.7292,1.6969
6.7292,1.54
6.7304,1.4702
6.7343,1.3866
6.7354,1.2795
6.7354,1.2899
6.7364,1.3954
6.7409,1.3847
6.7421,1.5711
6.7421,1.7654
6.7432,1.7541
6.7432,1.6934
6.7476,1.7537
6.7476,1.8925
6.7487,1.9219
6.7487,1.9247
6.7548,2.0031
6.7548,1.9679
6.7559,1.9214
6.7559,1.8557
6.7569,1.858
6.7613,1.8981
6.7613,1.8734
6.7623,1.936
6.7623,1.8141
6.7633,1.7292
6.7685,1.681
6.7685,1.7573
6.7695,1.6088
6.7695,1.5852
6.7755,1.5522
6.7755,1.5227
6.7765,1.4127
6.7765,1.4706
6.7778,1.3967
6.7816,1.4605
6.7826,1.4594
6.7826,1.543
6.7826,1.5818
6.7906,1.5846
6.8036,1.7202
6.8066,1.6934
6.8066,1.6219
6.8076,1.543
6.8084,1.3853
6.8085,1.4057
6.8085,1.4445
6.8096,1.5786
6.8103,1.7099
6.8108,1.69
6.8116,1.6527
6.8116,1.6774
6.8116,1.6587
6.8126,1.5917
6.8126,1.612
6.8136,1.5518
6.8136,1.5197
6.8146,1.4562
6.8174,1.5629
6.8179,1.6472
6.8179,1.5488
6.8189,1.5345
6.8241,1.5629
6.8261,1.6382
6.8261,1.594
6.8271,1.6135
6.8271,1.6697
6.8310,1.7001
6.8322,1.6703
6.8331,1.6951
6.8331,1.6587
6.8381,1.521
6.8381,1.5711
6.8392,1.5424
6.8392,1.5499
6.8404,1.6906
6.8445,1.6682
6.8456,1.7116
6.8456,1.6825
6.8456,1.6193
6.8515,1.5897
6.8515,1.645
6.8526,1.6478
6.8526,1.6054
6.8536,1.6127
6.8578,1.6105
6.8589,1.5732
6.8589,1.5484
6.8589,1.6034
6.8599,1.6609
6.8651,1.6682
6.8651,1.6611
6.8661,1.7123
6.8661,1.6988
6.8722,1.645
6.8722,1.6791
6.8733,1.6416
6.8733,1.611
6.8745,1.5842
6.8786,1.5173
6.8799,1.4734
6.8799,1.543
6.8799,1.5885
6.8854,1.6765
6.8864,1.7014
6.8864,1.5818
6.8864,1.6405
6.8874,1.798
6.8921,1.6907
6.8921,1.6266
6.8931,1.6015
6.8931,1.54
6.9004,1.53
6.9109,1.4727
6.9145,1.5387
6.9151,1.6499
6.9151,1.7052
6.9161,1.7886
6.9161,1.6994
6.9171,1.6456
6.9171,1.8023
6.9171,1.7142
6.9181,1.618
6.9181,1.5685
6.9193,1.6234
6.9193,1.6497
6.9203,1.6101
6.9203,1.6257
6.9213,1.6101
6.9213,1.6763
6.9213,1.635
6.9266,1.6214
6.9266,1.6172
6.9266,1.6802
6.9276,1.6864
6.9333,1.6628
6.9333,1.6105
6.9343,1.5974
6.9343,1.5974
6.9356,1.5653
6.9394,1.6682
6.9405,1.6733
6.9407,1.6214
6.9414,1.6703
6.9466,1.6726
6.9466,1.6877
6.9477,1.7069
6.9477,1.7935
6.9489,1.7742
6.9529,1.8192
6.9539,1.5996
6.9542,1.5754
6.9542,1.6013
6.9552,1.6697
6.9601,1.8396
6.9601,1.7821
6.9611,1.8019
6.9611,1.7461
6.9672,1.7367
6.9682,1.7817
6.9682,1.6581
6.9692,1.6836
6.9692,1.756
6.9735,1.7472
6.9744,1.8079
6.9744,1.7299
6.9754,1.6047
6.9806,1.7084
6.9817,1.5897
6.9817,1.6909
6.9817,1.6454
6.9827,1.6624
6.9872,1.8197
6.9881,1.7697
6.9881,1.8152
6.9881,1.6945
6.9940,1.6456
6.9946,1.7616
6.9946,1.7607
6.9956,1.8647
6.9956,1.8516
7.0001,1.6992
7.0011,1.6412
7.0011,1.6478
7.0011,1.6619
7.0031,1.6532
7.0203,1.6397
7.0236,1.7734
7.0242,1.7436
7.0250,1.6716
7.0256,1.6516
7.0256,1.6467
7.0256,1.6212
7.0266,1.5542
7.0266,1.4552
7.0278,1.4729
7.0278,1.6887
7.0278,1.7449
7.0288,1.7552
7.0288,1.8137
7.0298,1.7258
7.0298,1.693
7.0308,1.6967
7.0308,1.6881
7.0343,1.6716
7.0354,1.6538
7.0354,1.5972
7.0354,1.5722
7.0407,1.411
7.0424,1.4569
7.0427,1.4987
7.0427,1.4841
7.0439,1.4389
7.0476,1.5814
7.0487,1.7597
7.0488,1.6478
7.0488,1.6002
7.0500,1.575
7.0550,1.5021
7.0552,1.4479
7.0552,1.477
7.0562,1.5932
7.0620,1.5689
7.0662,1.6131
7.0673,1.651
7.0673,1.6951
7.0682,1.6838
7.0682,1.8132
7.0693,1.7646
7.0693,1.6152
7.0703,1.5797
7.0754,1.5019
7.0762,1.4952
7.0762,1.5081
7.0773,1.386
7.0773,1.396
7.0815,1.4277
7.0823,1.5404
7.0833,1.6628
7.0833,1.612
7.0887,1.6144
7.0895,1.5428
7.0895,1.5465
7.0905,1.5936
7.0905,1.6469
7.0949,1.6838
7.0958,1.6536
7.0958,1.597
7.0967,1.581
7.0967,1.5743
7.1017,1.5713
7.1027,1.5143
7.1027,1.6667
7.1037,1.6047
7.1098,1.5615
7.1098,1.5854
7.1109,1.6412
7.1287,1.5441
7.1317,1.4895
7.1328,1.5387
7.1328,1.4423
7.1337,1.7134
7.1337,1.6658
7.1337,1.6262
7.1347,1.5947
7.1347,1.6144
7.1357,1.6924
7.1357,1.6795
7.1367,1.6748
7.1367,1.6401
7.1377,1.5224
7.1377,1.473
7.1377,1.5647
7.1387,1.539
7.1387,1.4972
7.1397,1.5212
7.1397,1.5996
7.1428,1.645
7.1428,1.7106
7.1437,1.7327
7.1437,1.7809
7.1447,1.7245
7.1497,1.6187
7.1497,1.5987
7.1507,1.5737
7.1507,1.4247
7.1570,1.383
7.1581,1.6707
7.1601,1.5486
7.1601,1.5968
7.1611,1.5891
7.1634,1.7446
7.1645,1.7335
7.1645,1.7337
7.1645,1.5441
7.1698,1.5938
7.1707,1.5559
7.1707,1.7267
7.1717,1.7554
7.1717,1.7159
7.1767,1.6658
7.1776,1.626
7.1776,1.6889
7.1776,1.6609
7.1838,1.5544
7.1838,1.6463
7.1849,1.7404
7.1849,1.7447
7.1859,1.6011
7.1901,1.684
7.1911,1.5066
7.1911,1.561
7.1911,1.5987
7.1921,1.4175
7.1971,1.5698
7.1971,1.543
7.1981,1.4723
7.1981,1.6289
7.2044,1.5893
7.2054,1.6622
7.2054,1.6326
7.2064,1.789
7.2064,1.675
7.2106,1.584
7.2117,1.6197
7.2117,1.7007
7.2127,1.6542
7.2178,1.6945
7.2187,1.6999
7.2187,1.6135
7.2197,1.6165
7.2287,1.5769
7.2376,1.6088
7.2416,1.5925
7.2416,1.7446
7.2426,1.8764
7.2426,1.7369
7.2436,1.6812
7.2436,1.6478
7.2446,1.5891
7.2446,1.4839
7.2446,1.5055
7.2456,1.6928
7.2456,1.7076
7.2466,1.5389
7.2466,1.684
7.2476,1.7016
7.2476,1.6647
7.2486,1.7586
7.2486,1.6562
7.2516,1.6446
7.2516,1.7474
7.2526,1.6806
7.2526,1.5244
7.2536,1.6403
7.2583,1.5137
7.2593,1.5518
7.2593,1.6656
7.2603,1.7436
7.2644,1.9307
7.2654,1.9139
7.2664,1.8989
7.2665,2.0376
7.2674,1.6746
7.2714,1.6388
7.2714,1.5805
7.2724,1.6234
7.2724,1.6309
7.2785,1.8451
7.2785,1.8732
7.2794,1.7346
7.2803,1.7684
7.2803,1.6699
7.2847,1.7815
7.2853,1.8556
7.2853,1.8327
7.2863,1.7774
7.2863,1.8385
7.2923,1.6737
7.2933,1.5743
7.2933,1.512
7.2943,1.5762
7.2990,1.6032
7.2998,1.6808
7.2998,1.6934
7.3008,1.6471
7.3008,1.72
7.3059,1.6697
7.3059,1.5567
7.3070,1.6101
7.3070,1.5765
7.3125,1.7151
7.3125,1.7881
7.3135,1.5434
7.3135,1.4924
7.3146,1.4254
7.3186,1.4369
7.3196,1.7671
7.3196,1.777
7.3206,1.7961
7.3259,1.9009
7.3267,1.6043
7.3267,1.6802
7.3277,1.4552
7.3277,1.4935
7.3337,1.4905
7.3467,1.5488
7.3497,1.533
7.3497,1.558
7.3507,1.6058
7.3507,1.6682
7.3517,1.5683
7.3517,2.1291
7.3527,1.9986
7.3527,1.8902
7.3527,1.7177
7.3537,1.5692
7.3537,1.5479
7.3547,1.5927
7.3547,1.5972
7.3557,1.5077
7.3557,1.7071
7.3557,2.1168
7.3593,1.8233
7.3603,1.7672
7.3612,1.6769
7.3612,1.6883
7.3622,1.5285
7.3662,1.4792
7.3672,1.8479
7.3672,1.9347
7.3672,1.9699
7.3733,1.7652
7.3743,1.4564
7.3753,1.4852
7.3763,1.7549
7.3763,1.6999
7.3796,1.5375
7.3806,1.6064
7.3806,1.4697
7.3806,1.6146
7.3816,1.6302
7.3866,1.5514
7.3866,1.5839
7.3876,1.7061
7.3876,1.8623
7.3937,1.6279
7.3946,1.7447
7.3946,1.7367
7.3956,1.6675
7.3956,1.3064
7.4006,1.3542
7.4006,1.425
7.4017,1.5411
7.4017,1.9724
7.4073,1.9349
7.4079,2.0279
7.4079,2.1612
7.4089,2.0826
7.4089,2.2968
7.4139,2.2135
7.4139,1.9422
7.4150,1.6877
7.4150,1.8136
7.4204,1.5764
7.4213,2.2433
7.4213,2.3984
7.4223,2.612
7.4224,2.2921
7.4275,1.8391
7.4275,1.7372
7.4285,1.7901
7.4285,1.5822
7.4285,1.3802
7.4335,1.3971
7.4345,1.372
7.4345,1.5115
7.4355,1.5739
7.4415,1.5424
7.4554,1.4708
7.4594,1.497
7.4604,1.6664
7.4614,1.3834
7.4614,1.3064
7.4614,2.0931
7.4624,2.1603
7.4624,1.7916
7.4634,1.9367
7.4634,1.7309
7.4644,1.4684
7.4644,1.2615
7.4654,1.4455
7.4654,1.2915
7.4654,1.2885
7.4664,1.3035
7.4664,1.464
7.4674,2.2047
7.4684,2.1057
7.4684,2.1291
7.4695,2.1194
7.4695,1.9521
7.4748,1.4944
7.4748,1.3407
7.4758,1.6411
7.4758,1.5227
7.4769,1.5347
7.4809,1.336
7.4818,1.3564
7.4818,1.9195
7.4828,1.9679
7.4884,2.0839
7.4893,2.059
7.4893,1.8389
7.4903,1.9574
7.4913,2.0952
7.4947,1.6859
7.4957,1.569
7.4957,1.4734
7.4967,1.4715
7.5021,1.5762
7.5021,1.6268
7.5031,1.8437
7.5031,1.8754
7.5041,1.5049
7.5082,1.4965
7.5092,1.7596
7.5092,2.2538
7.5092,1.8445
7.5146,1.5762
7.5166,1.5632
7.5168,1.6512
7.5168,1.657
7.5178,1.5621
7.5235,1.3566
7.5235,1.6594
7.5245,1.7614
7.5245,1.9962
7.5255,1.7746
7.5307,1.8034
7.5307,2.0568
7.5317,2.2092
7.5317,1.8051
7.5383,1.7026
7.5383,1.8822
7.5393,1.5441
7.5393,1.4035
7.5403,1.3116
7.5438,1.6495
7.5449,1.9182
7.5449,1.702
7.5449,1.6703
7.5547,1.53
7.5629,1.474
7.5672,1.7206
7.5677,1.8863
7.5682,1.8327
7.5682,1.5782
7.5692,1.5927
7.5692,1.6906
7.5692,2.0035
7.5702,2.1486
7.5702,1.9722
7.5714,2.1421
7.5714,2.1145
7.5714,1.9936
7.5725,1.8739
7.5725,1.5559
7.5735,1.6335
7.5745,1.7772
7.5754,1.8263
7.5779,1.6131
7.5787,2.1164
7.5787,1.9951
7.5797,1.9214
7.5852,1.6975
7.5852,2.1278
7.5863,2.131
7.5863,1.9906
7.5875,2.0933
7.5918,2.1942
7.5928,2.2011
7.5938,2.0459
7.5938,2.0372
7.5984,2.1314
7.5984,2.2473
7.5994,1.9448
7.5994,1.8991
7.6004,1.3737
7.6048,1.4631
7.6058,1.7916
7.6058,1.6817
7.6068,1.8655
7.6120,2.0839
7.6120,2.2461
7.6130,2.0463
7.6130,1.9159
7.6140,1.4022
7.6182,1.6913
7.6193,1.8649
7.6193,1.8464
7.6203,2.5086
7.6203,2.5118
7.6255,2.0386
7.6271,1.8522
7.6275,2.1739
7.6286,1.4682
7.6325,1.8087
7.6335,2.1096
7.6345,1.438
7.6355,1.3352
7.6355,1.4854
7.6390,1.8017
7.6395,2.3956
7.6395,1.9696
7.6406,1.9853
7.6460,1.7262
7.6471,1.7423
7.6471,2.0251
7.6481,2.2304
7.6481,1.9516
7.6524,2.0303
7.6535,1.7987
7.6535,1.9142
7.6546,2.0787
7.6596,1.9435
7.6731,1.8471
7.6761,2.0157
7.6772,2.2049
7.6774,1.762
7.6774,1.7804
7.6785,1.6791
7.6785,2.0078
7.6795,2.1559
7.6795,2.2028
7.6795,1.9954
7.6805,2.032
7.6805,2.0116
7.6815,1.7659
7.6815,1.9911
7.6825,2.1843
7.6826,2.3457
7.6826,2.3153
7.6837,2.2403
7.6875,2.2354
7.6875,2.0076
7.6886,1.8321
7.6886,2.1541
7.6939,2.2908
7.6946,2.1771
7.6946,2.155
7.6956,2.0444
7.6956,2.1623
7.6999,1.9756
7.7009,1.9208
7.7009,1.5524
7.7009,1.7207
7.7072,2.0579
7.7082,1.8662
7.7087,1.5372
7.7092,1.8631
7.7092,1.6116
7.7135,1.5715
7.7146,1.5332
7.7146,1.4745
7.7146,1.8597
7.7158,2.1451
7.7209,2.3121
7.7210,2.1237
7.7210,2.3211
7.7220,2.6414
7.7278,2.6615
7.7278,1.8511
7.7288,1.6585
7.7288,1.2994
7.7298,1.2458
7.7342,1.2887
7.7353,1.6412
7.7353,1.7121
7.7363,1.9626
7.7413,1.795
7.7413,1.9562
7.7424,1.9581
7.7424,1.9051
7.7436,1.8091
7.7476,1.9506
7.7488,1.8773
7.7489,1.8424
7.7499,2.0339
7.7544,1.8452
7.7554,1.7669
7.7554,1.4065
7.7564,1.2861
7.7564,1.6129
7.7611,1.8874
7.7619,1.8383
7.7619,1.9448
7.7628,1.9186
7.7628,1.8651
7.7811,1.8452
7.7841,2.0553
7.7850,2.0973
7.7850,2.2083
7.7860,2.1685
7.7860,1.9562
7.7870,1.8962
7.7870,2.5707
7.7882,2.6135
7.7882,2.6611
7.7892,2.5893
7.7892,2.6483
7.7902,2.5971
7.7902,2.1072
7.7914,1.7016
7.7914,1.7271
7.7923,1.8122
7.7923,2.1108
7.7955,1.9512
7.7955,1.6891
7.7965,1.7864
7.7965,1.6538
7.8026,2.542
7.8026,2.1597
7.8036,2.2399
7.8036,2.6609
7.8048,2.2949
7.8087,1.6962
7.8092,1.7438
7.8092,2.0644
7.8105,2.158
7.8105,1.524
7.8153,1.3785
7.8164,1.4888
7.8164,1.4792
7.8164,1.5415
7.8231,1.6371
7.8240,1.5158
7.8240,1.4676
7.8250,1.4595
7.8250,2.66
7.8293,2.6613
7.8303,2.6579
7.8303,2.3802
7.8313,1.6506
7.8365,2.0041
7.8365,1.96
7.8376,1.7322
7.8376,1.6446
7.8388,1.9632
7.8429,2.1753
7.8438,2.1531
7.8438,2.2971
7.8438,2.488
7.8502,2.6176
7.8503,2.5688
7.8514,2.6065
7.8514,2.1349
7.8514,1.8919
7.8558,1.7046
7.8568,1.9321
7.8568,2.0247
7.8568,2.3123
7.8581,2.4108
7.8631,2.5643
7.8631,2.4117
7.8641,1.9544
7.8641,1.9501
7.8706,1.8044
7.8706,1.9632
7.8717,2.2527
7.8717,2.5516
7.8728,2.6436
7.8906,2.6616
7.8936,2.3946
7.8945,2.0506
7.8958,1.7712
7.8958,1.987
7.8966,1.9576
7.8972,2.1366
7.8976,2.0455
7.8976,2.3688
7.8986,2.0821
7.8986,2.0659
7.8986,2.3961
7.8995,2.3588
7.8995,1.7905
7.9006,1.9384
7.9006,1.8876
7.9016,2.2045
7.9017,1.8392
7.9035,1.8439
7.9047,1.8977
7.9047,2.6298
7.9056,2.4563
7.9056,2.2182
7.9106,1.6418
7.9115,1.5355
7.9115,1.7537
7.9115,1.8721
7.9180,1.5156
7.9190,1.8874
7.9193,1.5604
7.9193,1.6831
7.9203,1.7631
7.9245,2.2748
7.9260,2.6294
7.9265,2.6615
7.9265,2.6611
7.9315,2.6425
7.9315,2.392
7.9325,2.4927
7.9325,2.3624
7.9335,2.3952
7.9377,2.1456
7.9388,2.083
7.9388,2.4981
7.9388,2.4376
7.9450,2.4012
7.9450,2.1998
7.9461,2.4158
7.9461,2.3922
7.9471,2.597
7.9516,2.4691
7.9516,2.3558
7.9526,1.9289
7.9526,1.8443
7.9538,2.4955
7.9578,2.6551
7.9588,2.6084
7.9588,2.0562
7.9600,1.6319
7.9657,1.5494
7.9657,2.2533
7.9667,2.6455
7.9667,2.5649
7.9677,2.1867
7.9719,2.3774
7.9730,2.4383
7.9730,1.6795
7.9739,1.3956
7.9791,1.3182
7.9791,2.3442
7.9801,2.6161
7.9801,2.6063
7.9811,2.407
7.9874,2.1591
8.0008,2.1612
8.0038,1.999
8.0038,2.0001
8.0048,1.8872
8.0050,2.2163
8.0050,1.7971
8.0060,1.2462
8.0060,1.4764
8.0060,2.1192
8.0071,2.3185
8.0081,2.6352
8.0081,2.6616
8.0090,2.6616
8.0090,2.6463
8.0100,2.5306
8.0100,2.4141
8.0100,2.2128
8.0134,2.4614
8.0143,2.11
8.0143,1.8561
8.0143,1.9261
8.0153,2.4813
8.0197,2.558
8.0197,2.6125
8.0207,2.1083
8.0212,2.474
8.0268,2.6534
8.0268,2.6611
8.0279,2.2038
8.0282,1.9206
8.0282,2.1563
8.0334,2.0794
8.0334,2.6108
8.0345,2.6403
8.0345,2.3142
8.0402,1.9002
8.0412,1.9319
8.0412,2.1428
8.0422,2.3487
8.0422,2.4665
8.0464,2.1835
8.0475,1.5563
8.0475,1.5915
8.0475,2.419
8.0484,2.0254
8.0537,2.5658
8.0537,2.6618
8.0547,2.6069
8.0547,1.8771
8.0609,1.603
8.0609,2.561
8.0618,2.5632
8.0618,2.3003
8.0630,2.5866
8.0671,2.4334
8.0723,1.8451
8.0723,1.4228
8.0733,1.5458
8.0743,1.9806
8.0743,2.4001
8.0753,2.5593
8.0753,2.492
8.0763,2.2161
8.0804,2.3494
8.0813,2.5902
8.0813,2.6615
8.0823,2.6609
8.0879,2.6603
8.0879,2.6611
8.0890,2.5889
8.0890,2.0639
8.0900,1.8749
8.0949,2.0701
8.1081,2.3583
8.1111,2.5506
8.1121,2.1329
8.1121,1.864
8.1121,1.8736
8.1134,2.1921
8.1134,2.1338
8.1144,2.2585
8.1144,2.5726
8.1154,2.6613
8.1154,2.6553
8.1154,2.6605
8.1164,2.3905
8.1164,2.1715
8.1174,2.4383
8.1174,2.5606
8.1186,2.648
8.1221,2.5548
8.1228,2.3541
8.1228,2.1931
8.1241,2.0661
8.1250,1.4807
8.1283,2.1814
8.1293,2.3198
8.1293,2.284
8.1304,2.4878
8.1348,2.6613
8.1359,2.0464
8.1369,1.747
8.1369,2.5096
8.1369,2.5471
8.1420,2.5686
8.1423,2.2126
8.1433,2.3913
8.1433,2.6577
8.1433,2.6605
8.1485,2.6181
8.1495,1.7466
8.1495,1.9075
8.1505,1.7687
8.1562,1.7781
8.1573,1.3536
8.1573,1.5038
8.1582,2.0755
8.1582,2.6615
8.1627,2.6615
8.1627,2.6616
8.1638,2.5281
8.1638,2.0159
8.1694,2.1336
8.1703,2.5966
8.1703,2.6611
8.1713,1.7961
8.1713,1.2602
8.1759,1.557
8.1769,2.3571
8.1769,2.6585
8.1779,2.6613
8.1834,2.6618
8.1834,2.0029
8.1846,1.9482
8.1846,2.2396
8.1856,2.0256
8.1899,2.5593
8.1899,2.651
8.1909,2.6611
8.1909,2.6405
8.1919,2.6615
8.1961,2.6485
8.1971,2.0374
8.1971,1.7521
8.1981,1.6757
8.2038,1.7372
8.2049,2.0185
8.2049,2.6583
8.2049,2.6611
8.2059,2.6605
8.2101,2.5291
8.2111,2.1295
8.2111,2.2851
8.2121,2.3196
8.2192,2.6508
8.2323,2.6607
8.2357,2.5437
8.2364,1.8376
8.2364,2.2304
8.2364,2.518
8.2374,2.3656
8.2374,2.4498
8.2384,2.5433
8.2384,2.6436
8.2394,2.6609
8.2394,2.6193
8.2404,1.6962
8.2414,1.8317
8.2423,2.0361
8.2423,1.7654
8.2434,1.5929
8.2434,1.9127
8.2434,2.2495
8.2444,2.6528
8.2444,2.48
8.2455,2.2497
8.2455,2.5203
8.2533,2.1426
8.2533,2.3583
8.2543,2.1061
8.2543,2.6236
8.2553,2.5945
8.2592,2.3106
8.2592,2.5542
8.2602,2.6613
8.2602,2.6609
8.2666,2.6206
8.2666,2.5835
8.2676,2.1316
8.2676,1.8222
8.2686,1.6362
8.2728,1.9534
8.2728,1.9782
8.2738,2.5499
8.2748,2.4334
8.2790,2.6436
8.2800,2.6159
8.2810,2.5473
8.2822,2.6615
8.2822,2.6616
8.2862,2.6618
8.2862,2.083
8.2872,2.2872
8.2872,2.6613
8.2885,2.6549
8.2935,2.6234
8.2935,2.5098
8.2948,2.621
8.2948,2.6176
8.3002,2.4873
8.3012,2.6376
8.3012,2.6607
8.3022,2.0161
8.3022,1.6394
8.3077,1.8827
8.3087,2.2156
8.3097,2.3721
8.3097,2.0217
8.3144,2.0037
8.3144,2.2593
8.3154,2.6616
8.3154,2.6135
8.3166,2.4818
8.3206,2.4843
8.3216,2.6075
8.3216,2.5977
8.3228,2.2561
8.3318,2.2407
8.3412,2.5559
8.3452,2.6615
8.3452,2.5956
8.3463,1.7588
8.3464,1.7836
8.3464,2.1619
8.3475,2.299
8.3475,2.1957
8.3475,2.5081
8.3485,2.1824
8.3485,2.5842
8.3495,2.6613
8.3495,2.6609
8.3505,2.6609
8.3505,2.0091
8.3505,1.7506
8.3516,2.3226
8.3516,2.1533
8.3547,2.0551
8.3556,2.2698
8.3556,2.0967
8.3556,1.4209
8.3619,1.8824
8.3628,2.4631
8.3628,2.0397
8.3638,2.6613
8.3638,2.6611
8.3683,2.6609
8.3683,2.6609
8.3693,2.6609
8.3693,2.6376
8.3750,2.6583
8.3759,2.4912
8.3759,2.1511
8.3769,1.62
8.3769,1.5655
8.3813,1.9319
8.3824,2.0119
8.3824,1.4245
8.3824,1.3574
8.3833,2.554
8.3886,2.6483
8.3886,2.6613
8.3896,2.6609
8.3896,2.6603
8.3953,2.6315
8.3966,2.4509
8.3966,2.5289
8.3977,2.0719
8.3977,2.1451
8.4021,2.0142
8.4032,2.3018
8.4032,2.6611
8.4032,2.6607
8.4092,2.3704
8.4092,1.2645
8.4102,1.246
8.4102,1.392
8.4112,1.4256
8.4154,2.1874
8.4164,2.4265
8.4164,2.4764
8.4164,2.6391
8.4224,2.6605
8.4224,2.6607
8.4235,2.5681
8.4235,1.7494
8.4245,1.2484
8.4289,1.636
8.4299,2.5904
8.4299,2.0832
8.4299,2.5825
8.4311,2.4661
8.4507,2.0791
8.4537,2.4036
8.4547,2.6615
8.4547,2.6616
8.4557,2.6615
8.4557,2.383
8.4567,2.1385
8.4577,2.1263
8.4587,2.1372
8.4589,2.3834
8.4599,2.5773
8.4599,2.6611
8.4610,2.6615
8.4610,2.2973
8.4610,2.0506
8.4620,2.101
8.4620,2.2924
8.4630,2.2988
8.4630,2.1393
8.4641,2.6236
8.4641,2.6607
8.4649,2.656
8.4700,2.2718
8.4700,2.587
8.4711,2.6611
8.4711,2.0305
8.4722,1.414
8.4758,1.5053
8.4768,1.9512
8.4768,2.2872
8.4779,2.3206
8.4781,1.9939
8.4833,2.62
8.4833,2.0624
8.4843,1.7635
8.4843,1.8016
8.4908,2.5358
8.4908,2.6616
8.4918,2.5791
8.4918,2.3961
8.4918,2.6598
8.4962,2.6605
8.4973,1.7822
8.4983,1.2795
8.4983,1.7161
8.5040,2.4046
8.5048,2.551
8.5048,2.2388
8.5059,1.8561
8.5059,1.912
8.5104,2.1719
8.5104,2.1743
8.5115,1.8619
8.5115,2.0221
8.5171,2.4284
8.5171,2.6613
8.5180,2.6256
8.5180,2.392
8.5190,2.1837
8.5234,2.08
8.5245,2.0791
8.5245,1.9922
8.5245,2.6618
8.5255,2.6618
8.5307,2.6618
8.5307,2.6616
8.5307,2.5366
8.5319,2.4574
8.5375,2.5514
8.5375,2.5328
8.5385,1.6996
8.5385,1.2863
8.5395,1.2587
8.5591,1.4048
8.5601,2.6618
8.5633,2.6613
8.5633,2.6609
8.5643,2.6609
8.5646,2.6613
8.5653,2.6609
8.5653,2.5596
8.5653,2.3093
8.5663,2.1066
8.5663,2.3809
8.5673,2.465
8.5673,2.4685
8.5685,2.6343
8.5685,2.4477
8.5685,1.9399
8.5695,2.1904
8.5695,2.1666
8.5710,2.4805
8.5710,2.6616
8.5720,2.3613
8.5720,2.1477
8.5730,1.897
8.5780,1.7856
8.5790,1.78
8.5790,2.1351
8.5790,2.2489
8.5858,2.6571
8.5858,2.6418
8.5868,2.6309
8.5868,2.5167
8.5878,2.4906
8.5922,2.314
8.5930,1.8484
8.5930,2.2043
8.5930,1.9375
8.5990,1.9414
8.5990,2.4573
8.6001,2.6465
8.6010,2.6086
8.6010,2.5186
8.6054,1.9587
8.6063,1.4241
8.6063,2.0751
8.6072,2.5673
8.6124,2.6607
8.6124,2.3671
8.6137,2.2503
8.6137,2.2388
8.6137,2.4108
8.6189,2.5938
8.6189,2.6003
8.6200,2.6489
8.6200,2.5769
8.6211,2.6123
8.6260,2.6483
8.6260,2.6613
8.6270,2.6155
8.6270,2.0457
8.6330,1.9277
8.6330,2.2563
8.6342,2.4368
8.6350,2.4567
8.6363,2.1998
8.6395,2.5711
8.6410,2.6226
8.6410,2.6129
8.6410,2.6583
8.6462,2.3598
8.6471,2.0914
8.6471,2.2501
8.6481,2.6609
8.6481,2.638
8.6547,2.4813
8.6680,2.1931
8.6710,2.647
8.6710,2.3245
8.6720,1.9742
8.6720,1.4742
8.6720,1.6365
8.6733,2.1003
8.6733,2.2368
8.6746,2.2459
8.6753,2.3185
8.6753,2.3665
8.6753,2.1829
8.6763,1.9015
8.6763,1.8614
8.6773,2.0157
8.6773,1.9208
8.6783,1.6125
8.6811,1.9531
8.6811,2.059
8.6821,2.6249
8.6821,2.6123
8.6831,2.5975
8.6870,2.554
8.6881,2.3791
8.6881,2.3778
8.6891,2.1357
8.6940,2.4364
8.6940,2.645
8.6951,2.6558
8.6951,2.5638
8.6963,2.3806
8.7005,2.569
8.7016,2.5401
8.7016,2.3841
8.7026,2.6015
8.7071,2.6011
8.7081,2.3234
8.7081,2.0974
8.7091,2.5516
8.7091,2.3318
8.7138,2.2549
8.7146,2.257
8.7146,2.2101
8.7156,2.1301
8.7156,2.3352
8.7209,2.5668
8.7209,2.6615
8.7218,2.4659
8.7218,2.5707
8.7286,2.6615
8.7286,2.6615
8.7296,2.6616
8.7296,2.6176
8.7306,2.6615
8.7345,2.6555
8.7355,2.6305
8.7355,2.6616
8.7365,2.6616
8.7420,2.6613
8.7420,2.6616
8.7430,2.3532
8.7440,2.1096
8.7440,2.3761
8.7479,2.53
8.7490,2.6326
8.7490,2.3811
8.7490,2.0787
8.7553,2.1216
8.7553,2.2073
8.7566,2.1312
8.7566,2.1837
8.7571,2.0952
8.7656,2.2634
8.7799,2.1522
8.7830,2.1668
8.7842,2.3884
8.7842,2.5351
8.7849,2.4685
8.7849,2.4012
8.7859,2.2576
8.7859,2.446
8.7859,2.2746
8.7869,2.2024
8.7869,2.0618
8.7879,2.0995
8.7879,2.224
8.7889,2.4143
8.7889,2.5917
8.7899,2.5696
8.7906,2.4689
8.7911,2.2628
8.7921,2.392
8.7921,2.3221
8.7931,2.4601
8.7931,2.53
8.7956,2.4914
8.7956,2.4231
8.7966,2.3067
8.7966,2.3429
8.8029,2.4171
8.8029,2.5424
8.8039,2.4561
8.8039,2.4417
8.8049,2.5073
8.8093,2.4083
8.8093,2.2739
8.8103,2.392
8.8103,2.4621
8.8103,2.3708
8.8166,2.209
8.8166,2.2516
8.8166,2.2594
8.8176,2.1691
8.8232,2.3001
8.8245,2.4891
8.8245,2.6065
8.8255,2.528
8.8255,2.548
8.8300,2.4361
8.8300,2.4049
8.8310,2.2118
8.8310,2.2051
8.8367,2.4543
8.8375,2.3451
8.8375,2.3536
8.8385,2.3879
8.8385,2.3959
8.8432,2.3256
8.8432,2.2814
8.8442,2.3898
8.8442,2.4409
8.8504,2.4306
8.8504,2.4201
8.8514,2.3787
8.8514,2.4074
8.8525,2.3234
8.8565,2.2602
8.8576,2.3759
8.8576,2.4171
8.8576,2.2654
8.8587,2.2231
8.8639,2.3069
8.8639,2.3153
8.8639,2.2686
8.8650,2.3607
8.8732,2.2786
8.8869,2.2724
8.8903,2.3414
8.8909,2.3673
8.8909,2.4261
8.8919,2.3631
8.8919,2.3022
8.8932,2.3613
8.8932,2.3916
8.8942,2.3613
8.8942,2.3613
8.8942,2.3041
8.8952,2.4623
8.8952,2.3442
8.8962,2.3262
8.8962,2.3369
8.8972,2.3341
8.8972,2.3149
8.8972,2.2458
8.8984,2.2846
8.8984,2.2737
8.8994,2.2555
8.8994,2.2259
8.9040,2.2608
8.9040,2.4036
8.9050,2.4415
8.9050,2.401
8.9060,2.4006
8.9112,2.398
8.9112,2.3528
8.9122,2.3299
8.9122,2.2975
8.9182,2.2069
8.9192,2.2921
8.9192,2.2893
8.9192,2.3089
8.9202,2.4048
8.9239,2.4224
8.9249,2.3708
8.9249,2.3599
8.9259,2.3421
8.9316,2.3661
8.9316,2.3376
8.9329,2.2287
8.9329,2.2148
8.9329,2.2797
8.9383,2.269
8.9383,2.2143
8.9393,2.2426
8.9393,2.2514
8.9451,2.3194
8.9451,2.3374
8.9461,2.2641
8.9461,2.3044
8.9471,2.3151
8.9511,2.3217
8.9522,2.3401
8.9522,2.2919
8.9522,2.3643
8.9532,2.2341
8.9584,2.2716
8.9584,2.2608
8.9594,2.2928
8.9594,2.2493
8.9655,2.2874
8.9655,2.3714
8.9666,2.4175
8.9666,2.3667
8.9678,2.3388
8.9718,2.2298
8.9730,2.1267
8.9731,2.1132
8.9731,2.0453
8.9809,2.0476
8.9934,2.1908
8.9964,2.2441
8.9977,2.2827
8.9984,2.2593
8.9984,2.2313
8.9984,2.1786
8.9994,2.1848
8.9994,2.2306
9.0005,2.2366
9.0005,2.2167
9.0015,2.0519
9.0015,2.0982
9.0025,2.0774
9.0025,2.0999
9.0035,2.0958
9.0035,2.119
9.0045,2.1449
9.0045,2.1788
9.0077,2.1636
9.0077,2.1633
9.0087,2.1573
9.0087,1.9664
9.0147,1.9285
9.0157,2.1111
9.0157,2.0678
9.0157,1.9729
9.0170,2.0333
9.0210,1.9628
9.0221,2.0485
9.0223,2.0048
9.0223,2.0986
9.0280,2.1344
9.0280,2.0545
9.0290,1.9576
9.0290,1.9182
9.0300,1.9024
9.0344,1.9652
9.0353,1.9846
9.0353,1.8797
9.0363,1.8557
9.0416,2.0763
9.0416,2.0877
9.0426,2.0701
9.0426,2.0903
9.0436,2.1177
9.0481,2.0629
9.0481,2.1509
9.0491,2.0151
9.0491,2.008
9.0503,1.9463
9.0553,1.9508
9.0553,1.9814
9.0553,1.9122
9.0565,1.8361
9.0621,1.8149
9.0631,1.8709
9.0631,1.9206
9.0631,2.0114
9.0641,1.9996
9.0686,2.1083
9.0697,2.0963
9.0697,2.0093
9.0706,1.9399
9.0758,2.0344
9.0800,2.0307
9.0810,1.9392
9.0810,1.8571
9.0820,1.9407
9.0820,2.0108
9.0830,2.0153
9.0830,2.0069
9.0840,2.0547
9.0889,2.0517
9.1029,2.0841
9.1059,2.0549
9.1071,1.8072
9.1079,1.6904
9.1079,1.7877
9.1089,1.7586
9.1089,1.7882
9.1099,1.8818
9.1099,1.924
9.1109,1.8642
9.1109,1.9716
9.1109,2.0162
9.1119,2.0479
9.1119,2.0374
9.1129,2.0386
9.1129,1.9791
9.1139,1.9191
9.1139,1.8229
9.1162,1.774
9.1162,1.6135
9.1173,1.7012
9.1173,1.7517
9.1233,1.7845
9.1243,1.7706
9.1253,1.9109
9.1263,1.9292
9.1263,1.9932
9.1294,2.134
9.1303,2.0851
9.1303,1.9724
9.1315,1.9879
9.1368,1.8936
9.1368,1.7972
9.1378,1.8287
9.1378,1.7534
9.1388,1.783
9.1429,1.8578
9.1438,1.8267
9.1438,1.9341
9.1448,1.9154
9.1448,1.8004
9.1498,1.7534
9.1498,1.9274
9.1508,1.8492
9.1508,1.8038
9.1570,1.7989
9.1580,1.6977
9.1580,1.7511
9.1580,1.8541
9.1590,1.795
9.1636,1.8512
9.1646,1.9379
9.1646,1.9696
9.1646,2.0087
9.1707,1.9086
9.1707,1.9105
9.1718,1.876
9.1718,1.8091
9.1728,1.7836
9.1769,1.7262
9.1778,1.729
9.1778,1.7125
9.1789,1.7044
9.1841,1.675
9.1841,1.6881
9.1851,1.8713
9.1851,1.903
9.1861,1.9172
9.1904,1.8554
9.1914,1.9007
9.1914,1.8512
9.1924,1.8344
9.1924,1.6872
9.2113,1.6491
9.2143,1.7783
9.2143,1.7802
9.2153,1.792
9.2153,1.9802
9.2163,1.9621
9.2163,1.9712
9.2173,1.8745
9.2173,1.8106
9.2173,1.8766
9.2183,1.9231
9.2183,1.7826
9.2193,1.7127
9.2193,1.7217
9.2203,1.7573
9.2203,1.6902
9.2213,1.6547
9.2213,1.5799
9.2240,1.5576
9.2251,1.5584
9.2251,1.6506
9.2260,1.8351
9.2315,2.1734
9.2321,2.0727
9.2321,2.0779
9.2332,1.9857
9.2332,1.8254
9.2378,1.8707
9.2378,1.7187
9.2388,1.6131
9.2388,1.6169
9.2398,1.8012
9.2449,1.7661
9.2449,1.7837
9.2458,1.8151
9.2458,1.7357
9.2520,1.6502
9.2530,1.6354
9.2530,1.5814
9.2530,1.6446
9.2541,1.5839
9.2581,1.5882
9.2590,1.6185
9.2590,1.6641
9.2600,1.6418
9.2656,1.6354
9.2656,1.6607
9.2666,1.7804
9.2666,1.8456
9.2676,1.6868
9.2717,1.5387
9.2727,1.4843
9.2727,1.5947
9.2737,1.5411
9.2790,1.5985
9.2800,1.6921
9.2800,1.7406
9.2810,1.7245
9.2810,1.7044
9.2850,1.7089
9.2860,1.6699
9.2860,1.687
9.2870,1.7288
9.2880,1.7834
9.2929,1.7474
9.2929,1.6979
9.2939,1.6697
9.2939,1.591
9.3000,1.5805
9.3000,1.5767
9.3010,1.5494
9.3010,1.5366
9.3020,1.5929
9.3092,1.6711
9.3139,1.7037
9.3239,1.6956
9.3295,1.6592
9.3299,1.6232
9.3303,1.495
9.3309,1.3484
9.3319,1.2809
9.3330,1.4093
9.3339,1.6375
9.3339,1.6283
9.3339,1.6092
9.3350,1.6647
9.3359,1.5389
9.3359,1.4959
9.3359,1.5572
9.3369,1.6407
9.3369,1.7365
9.3379,1.6703
9.3379,1.6324
9.3389,1.4879
9.3389,1.4929
9.3399,1.5034
9.3409,1.4087
9.3409,1.4286
9.3419,1.5096
9.3419,1.5458
9.3472,1.5364
9.3481,1.6816
9.3481,1.7172
9.3481,1.7429
9.3491,1.8314
9.3537,1.8929
9.3546,1.8653
9.3546,1.8841
9.3556,1.9332
9.3607,1.8662
9.3607,1.8799
9.3618,1.9403
9.3618,2.0761
9.3628,2.0736
9.3665,2.0245
9.3675,1.9381
9.3685,1.6876
9.3695,1.6442
9.3734,1.5514
9.3744,1.5104
9.3754,1.3943
9.3764,1.3364
9.3776,1.3388
9.3804,1.2848
9.3814,1.3064
9.3824,1.3502
9.3824,1.3365
9.3834,1.4213
9.3875,1.4159
9.3875,1.3463
9.3884,1.6214
9.3884,1.6909
9.3948,1.7399
9.3958,1.5756
9.3958,1.4839
9.3958,1.4267
9.3968,1.44
9.4012,1.4609
9.4023,1.6641
9.4023,1.7453
9.4023,1.6984
9.4083,1.6966
9.4083,1.5396
9.4093,1.561
9.4093,1.4654
9.4103,1.4376
9.4212,1.3664
9.4302,1.3829
9.4362,1.338
9.4372,1.4142
9.4382,1.4586
9.4392,1.4785
9.4402,1.479
9.4402,1.5004
9.4412,1.5345
9.4412,1.5437
9.4422,1.546
9.4422,1.5344
9.4432,1.5239
9.4432,1.5143
9.4442,1.3476
9.4442,1.2773
9.4452,1.2694
9.4452,1.2912
9.4452,1.3446
9.4462,1.3643
9.4462,1.2998
9.4472,1.2659
9.4472,1.3847
9.4486,1.4462
9.4486,1.4768
9.4496,1.6163
9.4496,1.6283
9.4558,1.5287
9.4565,1.6311
9.4576,1.7344
9.4585,1.4472
9.4596,1.3159
9.4623,1.4346
9.4623,1.3692
9.4633,1.4132
9.4633,1.4618
9.4686,1.4892
9.4697,1.5501
9.4697,1.489
9.4707,1.4494
9.4707,1.4168
9.4757,1.3714
9.4757,1.3922
9.4766,1.3491
9.4766,1.3352
9.4776,1.3489
9.4826,1.4646
9.4826,1.4704
9.4836,1.4738
9.4836,1.4534
9.4895,1.3607
9.4906,1.4136
9.4906,1.4309
9.4918,1.4564
9.4918,1.4331
9.4962,1.3703
9.4971,1.3328
9.4981,1.317
9.4981,1.2891
9.5036,1.2891
9.5036,1.2632
9.5045,1.3009
9.5045,1.3639
9.5045,1.4337
9.5096,1.4622
9.5096,1.4505
9.5106,1.3577
9.5106,1.263
9.5167,1.3283
9.5170,1.2767
9.5180,1.2632
9.5180,1.3519
9.5180,1.3765
9.5258,1.498
9.5390,1.5962
9.5422,1.3154
9.5435,1.4624
9.5443,1.5692
9.5443,1.606
9.5443,1.534
9.5452,1.4798
9.5452,1.4059
9.5463,1.3718
9.5463,1.3332
9.5473,1.3137
9.5474,1.3116
9.5474,1.3107
9.5485,1.309
9.5485,1.3699
9.5495,1.41
9.5495,1.4635
9.5505,1.4464
9.5505,1.4344
9.5514,1.4166
9.5514,1.3304
9.5524,1.3249
9.5576,1.3433
9.5579,1.3232
9.5591,1.3092
9.5599,1.3026
9.5644,1.3285
9.5644,1.4136
9.5654,1.4729
9.5654,1.5115
9.5664,1.5156
9.5702,1.4438
9.5711,1.4089
9.5711,1.3605
9.5711,1.3491
9.5721,1.3251
9.5773,1.3649
9.5781,1.3337
9.5781,1.3307
9.5791,1.3709
9.5844,1.3234
9.5844,1.3804
9.5855,1.4037
9.5855,1.438
9.5867,1.2962
9.5903,1.3103
9.5914,1.4573
9.5923,1.2685
9.5925,1.2542
9.5981,1.3116
9.5981,1.3587
9.5992,1.3855
9.5992,1.4194
9.6001,1.3448
9.6046,1.3611
9.6046,1.4935
9.6056,1.4489
9.6056,1.459
9.6111,1.4564
9.6114,1.4511
9.6125,1.4119
9.6125,1.3236
9.6135,1.2711
9.6174,1.26
9.6174,1.2608
9.6185,1.2664
9.6185,1.2792
9.6185,1.2779
9.6247,1.2994
9.6247,1.3424
9.6247,1.3392
9.6259,1.2801
9.6344,1.2992
9.6469,1.2764
9.6514,1.2758
9.6524,1.278
9.6524,1.2604
9.6534,1.2509
9.6534,1.2495
9.6544,1.2509
9.6544,1.2482
9.6544,1.2462
9.6554,1.246
9.6554,1.246
9.6564,1.2533
9.6564,1.4415
9.6578,1.4312
9.6584,1.3236
9.6584,1.3347
9.6594,1.3523
9.6594,1.3838
9.6603,1.252
9.6603,1.248
9.6603,1.2685
9.6613,1.4095
9.6645,1.476
9.6654,1.4144
9.6654,1.344
9.6665,1.255
9.6665,1.251
9.6714,1.2488
9.6714,1.2503
9.6725,1.2482
9.6725,1.2507
9.6788,1.2531
9.6796,1.2488
9.6796,1.252
9.6796,1.2567
9.6806,1.2674
9.6849,1.2664
9.6860,1.2591
9.6860,1.2552
9.6869,1.2539
9.6914,1.251
9.6924,1.2516
9.6933,1.2516
9.6933,1.2514
9.6933,1.2484
9.6977,1.2464
9.6987,1.2475
9.6987,1.2516
9.6997,1.2499
9.7054,1.2484
9.7054,1.2492
9.7064,1.2587
9.7064,1.2756
9.7074,1.3602
9.7136,1.3176
9.7136,1.2681
9.7146,1.2546
9.7146,1.2486
9.7156,1.248
9.7195,1.2484
9.7205,1.2494
9.7205,1.2497
9.7215,1.2595
9.7273,1.3279
9.7273,1.3722
9.7283,1.339
9.7283,1.282
9.7293,1.2488
9.7335,1.2492
9.7346,1.2495
9.7346,1.2492
9.7356,1.2475
9.7409,1.2477
9.7579,1.2484
9.7609,1.251
9.7619,1.2548
9.7619,1.2548
9.7629,1.2505
9.7629,1.2679
9.7639,1.2494
9.7639,1.2462
9.7649,1.2458
9.7649,1.2473
9.7659,1.2525
9.7659,1.2477
9.7669,1.2462
9.7669,1.249
9.7679,1.257
9.7679,1.2597
9.7679,1.2677
9.7689,1.2724
9.7689,1.2554
9.7699,1.2501
9.7699,1.2516
9.7699,1.2576
9.7749,1.2497
9.7749,1.2494
9.7758,1.2499
9.7758,1.2482
9.7758,1.2475
9.7809,1.2492
9.7819,1.2524
9.7819,1.2522
9.7819,1.2557
9.7879,1.2542
9.7879,1.2584
9.7889,1.2677
9.7889,1.2563
9.7899,1.2518
9.7942,1.2473
9.7942,1.2458
9.7952,1.2458
9.7962,1.2462
9.8011,1.2465
9.8011,1.2479
9.8022,1.2535
9.8022,1.2625
9.8032,1.2514
9.8069,1.2495
9.8080,1.2539
9.8080,1.2535
9.8089,1.2512
9.8089,1.2479
9.8139,1.248
9.8149,1.2477
9.8149,1.2503
9.8159,1.2501
9.8216,1.2497
9.8221,1.2548
9.8221,1.2582
9.8232,1.26
9.8232,1.2557
9.8277,1.2574
9.8287,1.2527
9.8287,1.2499
9.8297,1.2471
9.8349,1.2477
9.8349,1.2479
9.8359,1.2482
9.8359,1.2462
9.8369,1.246
9.8411,1.2471
9.8421,1.2509
9.8421,1.2501
9.8421,1.2516
9.8483,1.254
9.8483,1.2672
9.8494,1.2734
9.8494,1.2996
9.8505,1.2497
9.8563,1.2495
9.8693,1.2501
9.8727,1.2475
9.8733,1.2467
9.8733,1.2467
9.8743,1.2473
9.8749,1.2486
9.8753,1.252
9.8753,1.2482
9.8763,1.2488
9.8763,1.2469
9.8773,1.2462
9.8773,1.246
9.8773,1.2469
9.8783,1.2465
9.8783,1.2458
9.8793,1.2464
9.8793,1.2462
9.8823,1.2462
9.8823,1.2458
9.8833,1.2464
9.8833,1.2465
9.8843,1.2642
9.8885,1.251
9.8895,1.2479
9.8895,1.2484
9.8905,1.2542
9.8956,1.2503
9.8956,1.248
9.8967,1.2458
9.8967,1.2462
9.8977,1.2467
9.9018,1.2471
9.9027,1.2475
9.9027,1.2479
9.9037,1.2477
9.9037,1.2467
9.9087,1.2484
9.9097,1.248
9.9097,1.2465
9.9097,1.2471
9.9162,1.2458
9.9168,1.2454
9.9168,1.246
9.9178,1.2458
9.9178,1.246
9.9221,1.246
9.9232,1.2499
9.9232,1.2542
9.9242,1.2499
9.9294,1.2582
9.9294,1.2662
9.9304,1.2467
9.9304,1.2462
9.9314,1.246
9.9358,1.2462
9.9368,1.2462
9.9368,1.246
9.9378,1.2469
9.9430,1.2464
9.9430,1.2465
9.9440,1.2473
9.9440,1.2473
9.9450,1.2469
9.9491,1.2471
9.9500,1.2462
9.9500,1.246
9.9511,1.246
9.9511,1.246
9.9561,1.2458
9.9570,1.2458
9.9570,1.246
9.9570,1.2462
9.9730,1.2458
9.9740,1.246
9.9770,1.2464
9.9780,1.3026
9.9780,1.4162
9.9790,1.3868
9.9790,1.5595
9.9800,1.5464
9.9800,1.5308
9.9800,1.4689
9.9810,1.3508
9.9810,1.3099
9.9820,1.2627
9.9830,1.2765
9.9840,1.2617
9.9840,1.2569
9.9850,1.2569
9.9860,1.2484
9.9902,1.2473
9.9909,1.2464
9.9919,1.2464
9.9919,1.246
9.9929,1.2456
9.9959,1.2458
9.9969,1.2458
9.9979,1.2458
9.9979,1.2458
9.9979,1.246
10.0040,1.2462
10.0099,1.2458
10.0109,1.2464
10.0109,1.2471
10.0119,1.2467
10.0119,1.246
10.0129,1.2462
10.0129,1.2462
10.0139,1.246
10.0172,1.2458
10.0182,1.2458
10.0182,1.2458
10.0182,1.2465
10.0237,1.249
10.0247,1.2464
10.0247,1.2458
10.0257,1.2501
10.0257,1.2584
10.0307,1.2565
10.0307,1.2595
10.0318,1.2507
10.0318,1.2477
10.0375,1.2462
10.0375,1.2458
10.0385,1.2458
10.0385,1.2465
10.0395,1.2497
10.0437,1.2503
10.0448,1.2484
10.0448,1.2471
10.0448,1.2479
10.0458,1.2477
10.0507,1.2477
10.0507,1.2477
10.0518,1.2473
10.0518,1.2465
10.0579,1.2462
10.0579,1.2462
10.0590,1.2462
10.0590,1.2462
10.0600,1.2471
10.0642,1.2477
10.0652,1.2469
10.0652,1.2471
10.0662,1.2486
10.0714,1.2469
10.0864,1.2473
10.0945,1.2471
10.0956,1.2456
10.0956,1.2456
10.0965,1.2456
10.0965,1.2458
10.0965,1.2458
10.0975,1.2458
10.0975,1.2475
10.0987,1.2494
10.0987,1.2516
10.0987,1.2544
10.0998,1.2552
10.0998,1.2653
10.1008,1.2535
10.1008,1.251
10.1018,1.2475
10.1018,1.2467
10.1018,1.2475
10.1028,1.2479
10.1028,1.2479
10.1039,1.2462
10.1051,1.2467
10.1051,1.2465
10.1061,1.2467
10.1061,1.2509
10.1071,1.2495
10.1112,1.2492
10.1123,1.2492
10.1123,1.246
10.1132,1.246
10.1183,1.2462
10.1183,1.2467
10.1193,1.2462
10.1193,1.2462
10.1203,1.2462
10.1251,1.2467
10.1257,1.2465
10.1257,1.2462
10.1270,1.2465
10.1318,1.2465
10.1318,1.2458
10.1330,1.246
10.1330,1.2458
10.1340,1.2464
10.1383,1.2484
10.1383,1.2475
10.1393,1.2469
10.1393,1.2465
10.1403,1.2885
10.1445,1.2692
10.1455,1.2516
10.1455,1.258
10.1465,1.2509
10.1521,1.2486
10.1521,1.2488
10.1532,1.2484
10.1532,1.248
10.1542,1.2475
10.1585,1.2465
10.1585,1.2462
10.1596,1.2473
10.1596,1.2477
10.1659,1.2499
10.1661,1.2542
10.1661,1.2531
10.1671,1.2572
10.1671,1.255
10.1717,1.2518
10.1717,1.2477
10.1727,1.2482
10.1727,1.2477
10.1803,1.2462
10.1935,1.2469
10.1975,1.2467
10.1975,1.2464
10.1984,1.2467
10.1984,1.2527
10.1994,1.2479
10.1994,1.2495
10.2007,1.2554
10.2007,1.2458
10.2017,1.2465
10.2017,1.2471
10.2017,1.2465
10.2027,1.2482
10.2027,1.2495
10.2037,1.2617
10.2037,1.2614
10.2046,1.2606
10.2046,1.2544
10.2056,1.2591
10.2056,1.263
10.2056,1.27
10.2072,1.2544
10.2119,1.2494
10.2129,1.2486
10.2129,1.2475
10.2139,1.2488
10.2139,1.248
10.2181,1.2471
10.2191,1.2471
10.2191,1.2484
10.2201,1.2501
10.2252,1.2516
10.2261,1.2507
10.2261,1.2484
10.2271,1.2479
10.2271,1.2479
10.2323,1.2473
10.2323,1.2475
10.2333,1.2465
10.2333,1.2458
10.2333,1.246
10.2386,1.2462
10.2396,1.2458
10.2396,1.2486
10.2405,1.248
10.2462,1.2475
10.2473,1.2469
10.2473,1.2715
10.2483,1.5199
10.2483,1.3622
10.2527,1.26
10.2527,1.2593
10.2537,1.2535
10.2537,1.2475
10.2590,1.2469
10.2600,1.246
10.2600,1.2465
10.2610,1.246
10.2610,1.2469
10.2657,1.2465
10.2657,1.2465
10.2667,1.2467
10.2667,1.2475
10.2727,1.2464
10.2737,1.246
10.2737,1.246
10.2749,1.2458
10.2749,1.2462
10.2791,1.246
10.2802,1.246
10.2802,1.2465
10.2802,1.2467
10.2812,1.2465
10.3007,1.2467
10.3028,1.2475
10.3068,1.248
10.3070,1.2465
10.3078,1.2464
10.3078,1.2458
10.3090,1.2458
10.3090,1.2458
10.3101,1.2458
10.3101,1.246
10.3111,1.246
10.3111,1.246
10.3121,1.2462
10.3121,1.246
10.3121,1.246
10.3131,1.2456
10.3131,1.246
10.3143,1.2473
10.3143,1.2638
10.3143,1.2593
10.3153,1.246
10.3153,1.2464
10.3197,1.246
10.3199,1.2465
10.3209,1.2512
10.3209,1.2507
10.3209,1.2535
10.3256,1.2479
10.3266,1.2467
10.3266,1.2471
10.3276,1.2465
10.3276,1.2464
10.3330,1.2467
10.3339,1.2473
10.3339,1.2462
10.3339,1.246
10.3402,1.2462
10.3415,1.2464
10.3415,1.2464
10.3415,1.2464
10.3425,1.2464
10.3469,1.2484
10.3469,1.248
10.3480,1.2484
10.3480,1.2473
10.3535,1.246
10.3535,1.246
10.3546,1.2458
10.3546,1.246
10.3556,1.2458
10.3598,1.2458
10.3598,1.2456
10.3608,1.2458
10.3608,1.2462
10.3666,1.2464
10.3666,1.2465
10.3676,1.2473
10.3676,1.2464
10.3688,1.2475
10.3739,1.2771
10.3742,1.2548
10.3742,1.2522
10.3752,1.2867
10.3752,1.266
10.3801,1.2471
10.3805,1.246
10.3805,1.246
10.3815,1.2471
10.3874,1.2518
10.3874,1.2555
10.3885,1.2527
10.3885,1.2477
10.3895,1.2469
10.3935,1.2471
10.3947,1.2469
10.4018,1.2464
10.4133,1.246
10.4163,1.2464
10.4163,1.2469
10.4174,1.248
10.4174,1.2477
10.4184,1.248
10.4184,1.2465
10.4194,1.2494
10.4194,1.2499
10.4194,1.2473
10.4206,1.2465
10.4206,1.2462
10.4206,1.2458
10.4216,1.2458
10.4216,1.2458
10.4226,1.246
10.4226,1.246
10.4241,1.2458
10.4252,1.2464
10.4256,1.2492
10.4272,1.2557
10.4279,1.275
10.4279,1.2574
10.4289,1.2546
10.4345,1.2516
10.4345,1.2552
10.4355,1.2533
10.4355,1.2784
10.4365,1.2812
10.4420,1.2477
10.4432,1.2479
10.4440,1.2482
10.4440,1.2482
10.4497,1.2512
10.4497,1.2507
10.4507,1.2484
10.4507,1.2475
10.4517,1.2469
10.4553,1.2464
10.4562,1.2465
10.4571,1.2477
10.4571,1.2484
10.4629,1.2473
10.4629,1.2482
10.4640,1.2492
10.4640,1.2499
10.4651,1.248
10.4692,1.2477
10.4702,1.2475
10.4705,1.2462
10.4705,1.2462
10.4715,1.2462
10.4757,1.2469
10.4767,1.2462
10.4767,1.2458
10.4767,1.2458
10.4836,1.2458
10.4836,1.249
10.4846,1.246
10.4846,1.2471
10.4856,1.2477
10.4895,1.2657
10.4905,1.2561
10.4905,1.2479
10.4915,1.2509
10.4968,1.2477
10.4968,1.2484
10.4979,1.249
10.4979,1.2473
10.4991,1.2471
10.5178,1.248
10.5199,1.2467
10.5229,1.2467
10.5235,1.2516
10.5244,1.2499
10.5244,1.251
10.5250,1.2477
10.5250,1.2473
10.5260,1.2467
10.5260,1.246
10.5270,1.2458
10.5272,1.2464
10.5272,1.2465
10.5282,1.2471
10.5282,1.2477
10.5282,1.2473
10.5292,1.2473
10.5292,1.2479
10.5302,1.2464
10.5312,1.246
10.5312,1.2458
10.5322,1.246
10.5322,1.2458
10.5370,1.246
10.5381,1.2477
10.5381,1.2471
10.5391,1.2465
10.5442,1.2462
10.5442,1.2501
10.5455,1.2535
10.5455,1.2612
10.5465,1.2711
10.5499,1.2674
10.5510,1.2497
10.5510,1.2464
10.5520,1.2458
10.5568,1.246
10.5578,1.246
10.5578,1.2458
10.5588,1.246
10.5588,1.2462
10.5635,1.2464
10.5642,1.246
10.5642,1.2467
10.5652,1.2477
10.5652,1.2505
10.5704,1.2494
10.5704,1.2509
10.5714,1.2625
10.5714,1.2567
10.5782,1.261
10.5782,1.2638
10.5793,1.2653
10.5793,1.3819
10.5803,1.4085
10.5838,1.4151
10.5848,1.5257
10.5848,1.6649
10.5858,1.6277
10.5912,1.4639
10.5912,1.264
10.5923,1.2569
10.5923,1.2518
10.5933,1.248
10.5975,1.2484
10.5986,1.249
10.5986,1.2499
10.5986,1.2518
10.6044,1.2464
10.6044,1.2469
10.6055,1.2482
10.6055,1.251
10.6066,1.2482
10.6151,1.2469
10.6290,1.2469
10.6320,1.2464
10.6326,1.2458
10.6326,1.2475
10.6326,1.2465
10.6336,1.2458
10.6336,1.2469
10.6346,1.248
10.6346,1.248
10.6358,1.2479
10.6358,1.2518
10.6358,1.255
10.6369,1.2625
10.6369,1.2572
10.6379,1.2477
10.6379,1.2465
10.6389,1.246
10.6389,1.2464
10.6389,1.246
10.6399,1.246
10.6408,1.2469
10.6420,1.2486
10.6447,1.2812
10.6447,1.2717
10.6457,1.2587
10.6457,1.2606
10.6516,1.249
10.6516,1.2467
10.6526,1.2467
10.6526,1.2465
10.6539,1.2464
10.6576,1.2471
10.6586,1.2484
10.6598,1.2497
10.6598,1.2497
10.6608,1.2514
10.6648,1.2527
10.6648,1.2494
10.6659,1.2486
10.6660,1.2484
10.6715,1.2486
10.6726,1.2512
10.6726,1.2467
10.6735,1.2462
10.6735,1.249
10.6782,1.2494
10.6790,1.2458
10.6790,1.2469
10.6800,1.2522
10.6853,1.2492
10.6853,1.2582
10.6863,1.2544
10.6863,1.254
10.6873,1.2514
10.6915,1.2589
10.6925,1.2535
10.6925,1.2503
10.6925,1.2479
10.6986,1.2495
10.6986,1.2527
10.6996,1.2555
10.6996,1.2629
10.7006,1.2505
10.7049,1.2475
10.7059,1.2527
10.7062,1.275
10.7062,1.2561
10.7072,1.2518
10.7114,1.2473
10.7124,1.2462
10.7124,1.2464
10.7124,1.2473
10.7194,1.2486
10.7194,1.2475
10.7205,1.2524
10.7254,1.254
10.7379,1.254
10.7421,1.267
10.7421,1.2632
10.7421,1.2591
10.7431,1.2544
10.7431,1.2516
10.7441,1.254
10.7441,1.2505
10.7454,1.2482
10.7454,1.2467
10.7464,1.2462
10.7464,1.2464
10.7464,1.251
10.7474,1.2561
10.7474,1.2563
10.7484,1.2531
10.7484,1.2514
10.7494,1.2685
10.7494,1.2585
10.7519,1.2557
10.7524,1.2486
10.7524,1.2518
10.7534,1.2525
10.7534,1.255
10.7583,1.252
10.7594,1.2529
10.7594,1.2539
10.7604,1.2612
10.7668,1.2657
10.7674,1.2739
10.7674,1.2994
10.7686,1.2968
10.7686,1.2569
10.7730,1.2488
10.7730,1.249
10.7743,1.2484
10.7753,1.2717
10.7798,1.2589
10.7798,1.2507
10.7808,1.251
10.7808,1.2514
10.7818,1.2535
10.7858,1.2835
10.7868,1.2608
10.7868,1.2585
10.7868,1.2645
10.7928,1.2932
10.7928,1.2779
10.7939,1.2696
10.7939,1.264
10.7949,1.2644
10.8001,1.2604
10.8001,1.3118
10.8011,1.386
10.8011,1.4072
10.8011,1.2777
10.8063,1.287
10.8063,1.288
10.8073,1.2942
10.8073,1.3474
10.8135,1.2912
10.8135,1.2657
10.8144,1.2535
10.8144,1.2494
10.8156,1.2494
10.8197,1.2495
10.8209,1.2629
10.8210,1.2647
10.8210,1.2945
10.8265,1.3105
10.8275,1.3217
10.8275,1.3058
10.8275,1.3043
10.8335,1.2666
10.8457,1.2559
10.8489,1.2578
10.8499,1.254
10.8499,1.252
10.8509,1.2567
10.8509,1.2692
10.8509,1.2582
10.8519,1.272
10.8519,1.2735
10.8529,1.2769
10.8529,1.2754
10.8539,1.2739
10.8539,1.2544
10.8539,1.255
10.8551,1.2546
10.8551,1.252
10.8562,1.2467
10.8571,1.2467
10.8604,1.2467
10.8604,1.2464
10.8614,1.251
10.8614,1.2698
10.8624,1.2895
10.8669,1.261
10.8679,1.2713
10.8679,1.2529
10.8689,1.2514
10.8734,1.2563
10.8745,1.26
10.8754,1.267
10.8767,1.2488
10.8767,1.2597
10.8803,1.2492
10.8814,1.2518
10.8814,1.2608
10.8814,1.269
10.8876,1.2645
10.8878,1.2846
10.8878,1.2945
10.8889,1.2576
10.8889,1.2542
10.8938,1.2509
10.8947,1.2488
10.8947,1.2492
10.8947,1.2475
10.8957,1.249
10.9009,1.2507
10.9009,1.2495
10.9019,1.2578
10.9019,1.2567
10.9079,1.291
10.9088,1.3069
10.9088,1.2934
10.9097,1.266
10.9100,1.261
10.9142,1.2572
10.9153,1.2572
10.9153,1.2486
10.9163,1.2467
10.9216,1.2479
10.9216,1.2512
10.9227,1.2874
10.9227,1.2944
10.9237,1.2702
10.9271,1.2555
10.9281,1.2524
10.9281,1.255
10.9291,1.2503
10.9347,1.2488
10.9347,1.2488
10.9357,1.2488
10.9357,1.2488
10.9367,1.251
10.9417,1.2593
10.9554,1.2597
10.9584,1.2494
10.9584,1.257
10.9596,1.2529
10.9596,1.2745
10.9596,1.2874
10.9607,1.2902
10.9607,1.2525
10.9616,1.2606
10.9616,1.2629
10.9627,1.2552
10.9627,1.2503
10.9637,1.2467
10.9637,1.2479
10.9637,1.2509
10.9648,1.3424
10.9648,1.3868
10.9685,1.3148
10.9692,1.2756
10.9692,1.2544
10.9703,1.2509
10.9704,1.2514
10.9744,1.2554
10.9756,1.2576
10.9764,1.2505
10.9764,1.2488
10.9821,1.2512
10.9821,1.2539
10.9831,1.2647
10.9831,1.2627
10.9841,1.2719
10.9883,1.2975
10.9883,1.2711
10.9893,1.2642
10.9903,1.263
10.9903,1.258
10.9953,1.2529
10.9959,1.2499
10.9959,1.2484
10.9969,1.2522
11.0026,1.2797
11.0036,1.3084
11.0036,1.3178
11.0036,1.4159
11.0047,1.3808
11.0091,1.3472
11.0091,1.2962
11.0101,1.2595
11.0101,1.2713
11.0158,1.2554
11.0166,1.2619
11.0166,1.2632
11.0176,1.2531
11.0176,1.2559
11.0221,1.258
11.0230,1.3279
11.0230,1.4654
11.0240,1.2885
11.0293,1.2762
11.0293,1.2595
11.0304,1.2537
11.0304,1.2527
11.0316,1.2533
11.0353,1.2563
11.0363,1.2546
11.0363,1.2527
11.0374,1.2659
11.0375,1.305
11.0425,1.3054
11.0425,1.3075
11.0437,1.3056
11.0437,1.3122
11.0492,1.3564
11.0674,1.2882
11.0684,1.3176
11.0716,1.326
11.0716,1.2974
11.0726,1.2572
11.0726,1.2552
11.0738,1.2524
11.0747,1.2509
11.0747,1.2574
11.0747,1.2514
11.0756,1.2983
11.0756,1.4378
11.0766,1.4082
11.0766,1.3845
11.0779,1.4505
11.0779,1.3244
11.0779,1.2872
11.0789,1.2807
11.0789,1.2585
11.0799,1.3041
11.0799,1.3065
11.0809,1.2805
11.0832,1.2584
11.0839,1.4121
11.0839,1.3812
11.0839,1.3367
11.0849,1.2809
11.0901,1.2685
11.0911,1.2606
11.0921,1.2589
11.0921,1.2477
11.0971,1.2499
11.1019,1.2501
11.1019,1.2494
11.1029,1.2683
11.1029,1.284
11.1039,1.2664
11.1039,1.339
11.1049,1.309
11.1049,1.3137
11.1104,1.3127
11.1104,1.3112
11.1114,1.2689
11.1114,1.2606
11.1124,1.2606
11.1166,1.3017
11.1175,1.2629
11.1175,1.257
11.1186,1.2535
11.1238,1.2469
11.1238,1.2507
11.1248,1.254
11.1248,1.2805
11.1258,1.3305
11.1301,1.4114
11.1309,1.42
11.1309,1.3334
11.1320,1.2689
11.1320,1.257
11.1369,1.2503
11.1379,1.2539
11.1379,1.2932
11.1379,1.3161
11.1444,1.3534
11.1444,1.3178
11.1454,1.3649
11.1454,1.3097
11.1464,1.3095
11.1506,1.2765
11.1514,1.2516
11.1514,1.2546
11.1525,1.2507
11.1577,1.2524
11.1587,1.2527
11.1637,1.2524
11.1767,1.2544
11.1797,1.2615
11.1797,1.2539
11.1807,1.2743
11.1807,1.335
11.1817,1.3296
11.1817,1.3349
11.1817,1.2737
11.1826,1.2509
11.1826,1.254
11.1836,1.2597
11.1836,1.249
11.1846,1.252
11.1846,1.2608
11.1846,1.264
11.1856,1.4129
11.1856,1.4462
11.1866,1.5276
11.1866,1.5771
11.1876,1.5027
11.1938,1.5287
11.1938,1.6529
11.1948,1.7566
11.1948,1.6988
11.1948,1.6502
11.2001,1.6784
11.2001,1.6495
11.2011,1.6859
11.2011,1.6251
11.2068,1.6257
11.2075,1.5314
11.2075,1.4427
11.2085,1.3877
11.2085,1.3247
11.2130,1.2857
11.2141,1.2675
11.2141,1.2698
11.2141,1.2608
11.2202,1.2621
11.2202,1.2574
11.2212,1.2758
11.2212,1.3169
11.2222,1.2844
11.2263,1.2664
11.2272,1.2863
11.2272,1.3116
11.2282,1.3056
11.2282,1.2775
11.2332,1.2732
11.2332,1.2657
11.2342,1.2539
11.2342,1.2509
11.2405,1.2531
11.2414,1.3212
11.2414,1.3945
11.2414,1.3724
11.2424,1.2951
11.2467,1.3604
11.2477,1.306
11.2477,1.3405
11.2487,1.3178
11.2538,1.273
11.2538,1.2557
11.2549,1.2561
11.2549,1.257
11.2558,1.3403
11.2601,1.3859
11.2611,1.4339
11.2611,1.3577
11.2621,1.3307
11.2673,1.3898
11.2673,1.4067
11.2683,1.3778
11.2683,1.2925
11.2703,1.2675
11.2863,1.2629
11.2892,1.26
11.2903,1.2546
11.2903,1.2587
11.2913,1.2557
11.2913,1.2531
11.2923,1.2559
11.2923,1.2602
11.2933,1.2715
11.2933,1.3375
11.2933,1.4187
11.2943,1.3645
11.2943,1.4097
11.2953,1.3202
11.2953,1.2749
11.2963,1.2884
11.2963,1.3613
11.2963,1.4695
11.3012,1.4571
11.3012,1.4132
11.3022,1.4232
11.3022,1.3444
11.3032,1.4147
11.3082,1.4483
11.3082,1.366
11.3095,1.2979
11.3102,1.3332
11.3142,1.3152
11.3154,1.3223
11.3154,1.2818
11.3162,1.281
11.3162,1.2855
11.3213,1.2799
11.3214,1.2739
11.3214,1.2741
11.3225,1.2874
11.3225,1.3005
11.3275,1.3602
11.3285,1.3943
11.3285,1.4234
11.3295,1.3577
11.3353,1.2722
11.3353,1.2638
11.3363,1.3139
11.3363,1.2857
11.3373,1.2681
11.3417,1.2533
11.3427,1.2565
11.3427,1.5111
11.3427,1.5201
11.3483,1.389
11.3495,1.4054
11.3495,1.4567
11.3495,1.4989
11.3506,1.3448
11.3545,1.3911
11.3558,1.3555
11.3568,1.3103
11.3572,1.3437
11.3619,1.4054
11.3619,1.4119
11.3630,1.4273
11.3630,1.4714
11.3641,1.5289
11.3682,1.5529
11.3693,1.4942
11.3693,1.3919
11.3693,1.2949
11.3703,1.3189
11.3755,1.3095
11.3765,1.2882
11.3765,1.3371
11.3777,1.3551
11.3851,1.3849
11.3989,1.3632
11.4019,1.4192
11.4029,1.432
11.4029,1.4781
11.4039,1.47
11.4039,1.4159
11.4049,1.4055
11.4049,1.3742
11.4061,1.2525
11.4071,1.2854
11.4071,1.4241
11.4081,1.3665
11.4081,1.4342
11.4081,1.5089
11.4094,1.5801
11.4094,1.5975
11.4101,1.4985
11.4101,1.489
11.4111,1.438
11.4111,1.4862
11.4124,1.5809
11.4124,1.5117
11.4158,1.4397
11.4168,1.4768
11.4168,1.4864
11.4168,1.4376
11.4180,1.465
11.4230,1.5075
11.4241,1.4451
11.4249,1.4772
11.4252,1.6127
11.4300,1.5224
11.4300,1.482
11.4311,1.4492
11.4311,1.4237
11.4321,1.4545
11.4364,1.44
11.4372,1.4395
11.4372,1.3742
11.4382,1.3287
11.4435,1.3662
11.4435,1.3412
11.4445,1.47
11.4445,1.5314
11.4455,1.4342
11.4498,1.4277
11.4498,1.3474
11.4508,1.2872
11.4508,1.2486
11.4567,1.3649
11.4572,1.3589
11.4582,1.4217
11.4584,1.5435
11.4584,1.5252
11.4637,1.5394
11.4637,1.5407
11.4647,1.5332
11.4647,1.4539
11.4657,1.5619
11.4699,1.5477
11.4710,1.474
11.4710,1.4117
11.4719,1.3665
11.4775,1.3596
11.4775,1.3429
11.4786,1.3011
11.4786,1.369
11.4796,1.3943
11.4838,1.4854
11.4849,1.4187
11.4849,1.3943
11.4859,1.4084
11.4922,1.4687
11.5062,1.4432
11.5085,1.3928
11.5095,1.2919
11.5095,1.2788
11.5105,1.2771
11.5105,1.2848
11.5115,1.2944
11.5115,1.3049
11.5125,1.2842
11.5125,1.2891
11.5135,1.3009
11.5135,1.5132
11.5135,1.5269
11.5147,1.5629
11.5147,1.546
11.5157,1.4365
11.5157,1.3545
11.5167,1.317
11.5177,1.2855
11.5177,1.2917
11.5177,1.3077
11.5187,1.2996
11.5244,1.2957
11.5253,1.4509
11.5253,1.4667
11.5266,1.4775
11.5266,1.5132
11.5317,1.5143
11.5319,1.4179
11.5319,1.3772
11.5330,1.3159
11.5378,1.2818
11.5378,1.2715
11.5388,1.2914
11.5388,1.4177
11.5398,1.4706
11.5445,1.4481
11.5445,1.4012
11.5455,1.4423
11.5455,1.4305
11.5513,1.3279
11.5513,1.252
11.5522,1.2465
11.5522,1.2464
11.5532,1.3377
11.5574,1.6032
11.5585,1.4858
11.5585,1.5668
11.5585,1.5465
11.5595,1.6199
11.5647,1.5525
11.5647,1.5604
11.5659,1.6103
11.5659,1.6002
11.5720,1.4805
11.5720,1.435
11.5730,1.4024
11.5730,1.3954
11.5740,1.3819
11.5780,1.3454
11.5788,1.3624
11.5788,1.3272
11.5798,1.39
11.5854,1.4477
11.5854,1.4899
11.5865,1.5124
11.5865,1.4745
11.5876,1.449
11.5915,1.4631
11.5925,1.3555
11.5925,1.3778
11.5925,1.3868
11.5980,1.345
11.6157,1.3429
11.6187,1.434
11.6189,1.4646
11.6197,1.4288
11.6197,1.3825
11.6207,1.3934
11.6207,1.4436
11.6207,1.4779
11.6220,1.4554
11.6220,1.3752
11.6230,1.311
11.6234,1.2923
11.6240,1.288
11.6240,1.2775
11.6253,1.2672
11.6253,1.2734
11.6260,1.2752
11.6260,1.4063
11.6270,1.5156
11.6270,1.5111
11.6282,1.5364
11.6282,1.5749
11.6325,1.5867
11.6335,1.585
11.6335,1.7087
11.6335,1.5482
11.6345,1.5902
11.6391,1.4693
11.6401,1.4102
11.6401,1.3474
11.6421,1.3971
11.6456,1.5282
11.6464,1.5569
11.6464,1.542
11.6464,1.5222
11.6474,1.4387
11.6522,1.3902
11.6533,1.3679
11.6533,1.3545
11.6533,1.3506
11.6543,1.36
11.6595,1.3523
11.6596,1.432
11.6607,1.4974
11.6607,1.5535
11.6662,1.5385
11.6662,1.5544
11.6672,1.4414
11.6672,1.3825
11.6682,1.3487
11.6725,1.2612
11.6736,1.2582
11.6736,1.2589
11.6746,1.2696
11.6798,1.5464
11.6798,1.5374
11.6808,1.5002
11.6808,1.3671
11.6818,1.6675
11.6861,1.7944
11.6872,1.8241
11.6872,1.6054
11.6872,1.7207
11.6933,1.6628
11.6933,1.5807
11.6944,1.5509
11.6944,1.5389
11.6954,1.4925
11.6990,1.5299
11.7000,1.3757
11.7000,1.438
11.7013,1.4505
11.7013,1.4522
11.7114,1.533
11.7238,1.5044
11.7265,1.4997
11.7269,1.4785
11.7275,1.4164
11.7275,1.3799
11.7285,1.4091
11.7285,1.3889
11.7295,1.3285
11.7297,1.3523
11.7297,1.4016
11.7307,1.4329
11.7307,1.4822
11.7317,1.5124
11.7317,1.513
11.7327,1.4745
11.7327,1.3695
11.7337,1.3596
11.7337,1.3493
11.7337,1.2825
11.7347,1.3257
11.7347,1.3482
11.7399,1.3064
11.7410,1.3484
11.7419,1.348
11.7419,1.4509
11.7428,1.4995
11.7472,1.7354
11.7472,1.6538
11.7482,1.5209
11.7482,1.4104
11.7492,1.3947
11.7537,1.4292
11.7544,1.4346
11.7544,1.4325
11.7544,1.4588
11.7610,1.4099
11.7610,1.3247
11.7621,1.3515
11.7621,1.4489
11.7633,1.4959
11.7677,1.5621
11.7677,1.5865
11.7689,1.4175
11.7689,1.327
11.7739,1.3709
11.7749,1.3109
11.7751,1.276
11.7751,1.2666
11.7762,1.2779
11.7808,1.3645
11.7808,1.515
11.7818,1.5372
11.7818,1.5162
11.7876,1.5128
11.7876,1.4485
11.7887,1.3872
11.7887,1.3131
11.7896,1.3641
11.7942,1.3358
11.7952,1.2979
11.7952,1.266
11.7952,1.4012
11.7962,1.4976
11.8009,1.5197
11.8014,1.5263
11.8014,1.474
11.8026,1.5585
11.8080,1.6193
11.8080,1.6939
11.8090,1.6795
11.8090,1.7534
11.8100,1.7802
11.8189,1.6163
11.8330,1.6294
11.8359,1.7573
11.8359,1.8889
11.8369,1.8089
11.8369,1.8904
11.8369,2.0431
11.8379,2.0851
11.8379,2.059
11.8389,2.0129
11.8389,1.8419
11.8399,1.6457
11.8409,1.4837
11.8409,1.438
11.8409,1.4179
11.8421,1.3851
11.8421,1.3135
11.8432,1.309
11.8432,1.3549
11.8442,1.4376
11.8442,1.5344
11.8442,1.434
11.8452,1.3557
11.8483,1.3701
11.8483,1.4427
11.8494,1.5254
11.8494,1.6146
11.8555,1.4991
11.8565,1.4753
11.8576,1.4924
11.8585,1.4007
11.8585,1.5222
11.8619,1.591
11.8629,1.4849
11.8629,1.4168
11.8639,1.5345
11.8694,1.5974
11.8694,1.4826
11.8705,1.3311
11.8705,1.3622
11.8705,1.3589
11.8755,1.3358
11.8762,1.3334
11.8762,1.2865
11.8772,1.3212
11.8823,1.3819
11.8823,1.711
11.8834,1.5687
11.8834,1.4999
11.8844,1.5454
11.8885,1.5315
11.8885,1.5559
11.8895,1.6052
11.8895,1.5666
11.8905,1.4995
11.8972,1.461
11.8979,1.4267
11.8979,1.4952
11.8989,1.4685
11.9045,1.4804
11.9055,1.5473
11.9055,1.6345
11.9055,1.6137
11.9065,1.5589
11.9109,1.4324
11.9119,1.492
11.9119,1.4629
11.9129,1.3562
11.9185,1.4468
11.9185,1.3699
11.9195,1.3289
11.9195,1.483
11.9195,1.5949
11.9318,1.5505
11.9410,1.4892
11.9437,1.5668
11.9437,1.6268
11.9447,1.7744
11.9447,1.6591
11.9457,1.5034
11.9457,1.4952
11.9467,1.4807
11.9470,1.4558
11.9470,1.4052
11.9480,1.3902
11.9480,1.506
11.9490,1.5741
11.9490,1.5685
11.9500,1.5634
11.9500,1.5949
11.9500,1.5092
11.9523,1.4762
11.9523,1.5334
11.9534,1.57
11.9534,1.4241
11.9544,1.4618
11.9584,1.4787
11.9584,1.5077
11.9594,1.591
11.9594,1.6444
11.9655,1.6979
11.9655,1.648
11.9666,1.585
11.9666,1.5904
11.9675,1.5591
11.9719,1.4948
11.9719,1.5295
11.9731,1.4779
11.9739,1.4247
11.9790,1.5289
11.9790,1.5672
11.9801,1.576
11.9801,1.5824
11.9812,1.6272
11.9856,1.572
11.9863,1.6454
11.9863,1.6568
11.9873,1.5437
11.9873,1.5449
11.9916,1.5017
11.9926,1.4267
11.9926,1.386
11.9936,1.4457
11.9993,1.4912
11.9993,1.5194
12.0004,1.528
12.0004,1.6092
12.0013,1.6594
12.0060,1.4639
12.0070,1.5531
12.0070,1.5527
12.0080,1.4676
12.0136,1.6219
12.0136,1.5257
12.0146,1.5312
12.0146,1.7254
12.0156,1.7341
12.0190,1.6532
12.0190,1.5775
12.0201,1.5557
12.0201,1.5244
12.0265,1.5366
12.0265,1.7453
12.0275,1.8308
12.0275,1.7766
12.0285,1.6349
12.0350,1.6255
12.0486,1.6191
12.0514,1.5591
12.0514,1.53
12.0524,1.6686
12.0532,1.6639
12.0534,1.6253
12.0534,1.5985
12.0545,1.7671
12.0545,1.7622
12.0555,1.8248
12.0555,1.8235
12.0564,1.7376
12.0564,1.6874
12.0574,1.6744
12.0574,1.5957
12.0584,1.5859
12.0584,1.5062
12.0606,1.533
12.0606,1.6092
12.0615,1.627
12.0615,1.7117
12.0626,1.765
12.0669,1.6801
12.0680,1.6589
12.0680,1.6148
12.0680,1.5456
12.0731,1.5542
12.0751,1.5261
12.0751,1.4434
12.0761,1.6257
12.0761,1.6142
12.0804,1.6454
12.0814,1.5906
12.0814,1.7136
12.0814,1.7037
12.0826,1.7009
12.0877,1.7022
12.0878,1.7138
12.0878,1.7086
12.0888,1.6075
12.0945,1.5201
12.0954,1.4999
12.0954,1.3917
12.0964,1.3617
12.0964,1.3707
12.1011,1.4774
12.1064,1.4865
12.1064,1.5218
12.1074,1.5983
12.1074,1.6285
12.1084,1.6727
12.1084,1.6969
12.1094,1.5964
12.1094,1.5653
12.1147,1.4862
12.1155,1.4318
12.1155,1.4655
12.1155,1.4421
12.1216,1.4005
12.1220,1.6752
12.1220,1.6307
12.1232,1.5747
12.1240,1.6071
12.1277,1.6433
12.1287,1.6039
12.1287,1.5248
12.1287,1.5422
12.1297,1.4614
12.1347,1.4826
12.1347,1.4927
12.1357,1.4442
12.1357,1.3945
12.1420,1.4817
12.1430,1.5173
12.1489,1.572
12.1642,1.6776
12.1679,1.7042
12.1689,1.7192
12.1699,1.6735
12.1709,1.6114
12.1709,1.557
12.1719,1.4513
12.1729,1.4509
12.1740,1.4777
12.1749,1.4565
12.1749,1.5165
12.1759,1.5557
12.1769,1.5625
12.1779,1.5741
12.1779,1.6225
12.1789,1.642
12.1789,1.6062
12.1799,1.6296
12.1799,1.5315
12.1799,1.6349
12.1809,1.4796
12.1809,1.5068
12.1819,1.459
12.1819,1.5203
12.1828,1.5355
12.1828,1.5773
12.1838,1.5647
12.1838,1.6531
12.1848,1.7241
12.1899,1.5383
12.1908,1.4922
12.1918,1.4655
12.1918,1.5203
12.1928,1.5381
12.1958,1.5325
12.1968,1.5435
12.1978,1.5465
12.1988,1.5021
12.2028,1.6127
12.2038,1.6553
12.2048,1.6334
12.2058,1.6133
12.2068,1.6244
12.2098,1.5878
12.2108,1.4944
12.2108,1.4789
12.2118,1.4267
12.2158,1.5419
12.2168,1.5657
12.2178,1.5705
12.2188,1.5987
12.2198,1.5589
12.2231,1.6097
12.2237,1.6562
12.2247,1.6437
12.2257,1.699
12.2267,1.5332
12.2297,1.4768
12.2307,1.5503
12.2317,1.6251
12.2327,1.6022
12.2367,1.6155
12.2378,1.6531
12.2387,1.5233
12.2398,1.4727
12.2398,1.5927
12.2437,1.5951
12.2447,1.6131
12.2447,1.6817
12.2457,1.7301
12.2507,1.6223
12.2517,1.4744
12.2527,1.4537
12.2527,1.4864
12.2606,1.5274
12.2816,1.4597
12.2857,1.5235
12.2866,1.5672
12.2876,1.5141
12.2886,1.5542
12.2896,1.5417
12.2906,1.5227
12.2916,1.6607
12.2926,1.6598
12.2936,1.6375
12.2946,1.6707
12.2955,1.6232
12.2965,1.6084
12.2977,1.5345
12.2985,1.5385
12.2985,1.6109
12.2995,1.621
12.3006,1.6759
12.3016,1.6043
12.3016,1.5992
12.3025,1.5925
12.3035,1.6506
12.3045,1.7361
12.3045,1.6512
12.3055,1.6071
12.3065,1.588
12.3075,1.5587
12.3085,1.5404
12.3095,1.5094
12.3105,1.4492
12.3113,1.5482
12.3115,1.5919
12.3115,1.6197
12.3125,1.6319
12.3125,1.7498
12.3135,1.7222
12.3135,1.7277
12.3145,1.7699
12.3145,1.6332
12.3155,1.531
12.3155,1.6137
12.3178,1.6626
12.3178,1.5377
12.3187,1.6022
12.3187,1.7007
12.3197,1.6373
12.3247,1.6842
12.3247,1.7159
12.3257,1.7027
12.3257,1.7209
12.3318,1.6958
12.3318,1.618
12.3318,1.6084
12.3326,1.6656
12.3326,1.6733
12.3376,1.6058
12.3386,1.5942
12.3386,1.549
12.3386,1.5387
12.3446,1.5621
12.3456,1.5968
12.3456,1.5934
12.3456,1.7914
12.3456,1.7809
12.3516,1.687
12.3522,1.5728
12.3526,1.5574
12.3526,1.5479
12.3581,1.615
12.3591,1.6204
12.3591,1.6472
12.3591,1.6452
12.3591,1.5887
12.3673,1.56
12.3801,1.5387
12.3821,1.6624
12.3831,1.7477
12.3831,1.6583
12.3831,1.5899
12.3841,1.6035
12.3841,1.5494
12.3851,1.5257
12.3851,1.4984
12.3860,1.6127
12.3864,1.5773
12.3864,1.5214
12.3870,1.5539
12.3870,1.5152
12.3880,1.4811
12.3880,1.4963
12.3880,1.5435
12.3926,1.6688
12.3930,1.7089
12.3930,1.6647
12.3930,1.4807
12.3940,1.5784
12.3990,1.5786
12.3990,1.6626
12.3990,1.6761
12.3990,1.6512
12.4060,1.6847
12.4060,1.7251
12.4064,1.6384
12.4064,1.6619
12.4070,1.6962
12.4121,1.7174
12.4121,1.5891
12.4121,1.5158
12.4121,1.4254
12.4121,1.4601
12.4191,1.6283
12.4191,1.5649
12.4191,1.5484
12.4191,1.6212
12.4262,1.6292
12.4262,1.5675
12.4262,1.6064
12.4272,1.4869
12.4272,1.4234
12.4323,1.4558
12.4333,1.4192
12.4333,1.4783
12.4343,1.5315
12.4399,1.563
12.4402,1.5167
12.4402,1.5242
12.4412,1.4959
12.4412,1.57
12.4463,1.4944
12.4463,1.6167
12.4463,1.5908
12.4463,1.6587
12.4525,1.7162
12.4535,1.7339
12.4535,1.6855
12.4545,1.7477
12.4545,2.0342
12.4594,2.0834
12.4594,2.2146
12.4594,2.1119
12.4594,2.0215
12.4604,2.065
12.4667,2.2401
12.4667,2.2866
12.4674,2.0406
12.4674,1.9114
12.4744,1.8614
12.4784,1.7326
12.4844,1.5822
12.4864,1.5812
12.4864,1.5246
12.4864,1.5276
12.4874,1.5034
12.4874,1.4856
12.4874,1.5107
12.4874,1.5465
12.4884,1.56
12.4884,1.6934
12.4884,1.6549
12.4884,1.5844
12.4936,1.4774
12.4936,1.4798
12.4936,1.6161
12.4943,1.7277
12.5003,1.6502
12.5003,1.5833
12.5013,1.5872
12.5013,1.5143
12.5023,1.6576
12.5064,1.7474
12.5074,1.7211
12.5084,1.6247
12.5084,1.5782
12.5093,1.5752
12.5143,1.569
12.5143,1.6255
12.5153,1.5539
12.5153,1.5957
12.5213,1.5458
12.5213,1.5344
12.5223,1.6382
12.5223,1.5634
12.5231,1.6853
12.5273,1.648
12.5283,1.6452
12.5283,1.72
12.5283,1.63
12.5342,1.5831
12.5352,1.6234
12.5352,1.5535
12.5352,1.5432
12.5362,1.6185
12.5409,1.5694
12.5412,1.5762
12.5412,1.633
12.5412,1.557
12.5472,1.5385
12.5482,1.717
12.5482,1.7194
12.5492,1.7856
12.5492,1.6596
12.5544,1.4762
12.5544,1.5494
12.5552,1.5544
12.5552,1.6195
12.5552,1.6864
12.5612,1.6714
12.5612,1.7243
12.5622,1.7631
12.5622,1.7526
12.5686,1.7243
12.5691,1.7093
12.5691,1.6887
12.5691,1.6679
12.5701,1.6197
12.5751,1.678
12.5751,1.5617
12.5751,1.4766
12.5761,1.5263
12.5822,1.5415
12.5843,1.717
12.5921,1.8027
12.5941,1.7802
12.5946,1.7333
12.5951,1.6501
12.5951,1.6694
12.5951,1.6375
12.5961,1.5572
12.5961,1.5612
12.5961,1.554
12.5961,1.5647
12.5971,1.5278
12.5971,1.7157
12.6011,1.7071
12.6021,1.7329
12.6021,1.6611
12.6021,1.6742
12.6031,1.7393
12.6090,1.7044
12.6090,1.6834
12.6090,1.62
12.6090,1.6077
12.6160,1.6024
12.6160,1.3934
12.6160,1.5522
12.6170,1.7348
12.6170,1.7434
12.6240,1.7399
12.6240,1.6915
12.6250,1.6583
12.6250,1.6926
12.6310,1.6666
12.6310,1.6891
12.6310,1.6574
12.6320,1.6527
12.6320,1.6069
12.6375,1.6727
12.6375,1.7875
12.6380,1.7873
12.6380,1.7022
12.6440,1.7089
12.6449,1.8871
12.6449,1.9907
12.6449,1.8805
12.6449,1.7502
12.6509,1.7444
12.6509,1.7266
12.6509,1.6911
12.6519,1.5782
12.6519,1.5998
12.6579,1.6778
12.6579,1.6787
12.6589,1.7149
12.6589,1.7219
12.6649,1.7131
12.6649,1.9154
12.6659,1.8209
12.6659,1.7611
12.6659,1.7892
12.6714,1.7198
12.6714,1.7697
12.6714,1.7249
12.6714,1.6881
12.6783,1.5771
12.6783,1.6534
12.6793,1.6502
12.6793,1.7414
12.6793,1.846
12.6843,1.7926
12.6853,1.756
12.6853,1.8239
12.6853,1.8717
12.6953,1.8569
12.6956,1.7468
12.6963,1.6388
12.6973,1.6371
12.6973,1.6365
12.6986,1.7219
12.6986,1.7837
12.6986,1.7684
12.6993,1.7399
12.6993,1.8325
12.7057,1.7971
12.7062,1.8336
12.7062,1.8531
12.7062,1.7552
12.7130,1.6705
12.7130,1.6866
12.7130,1.6161
12.7130,1.6403
12.7140,1.7157
12.7190,1.708
12.7190,1.7502
12.7200,1.72
12.7200,1.8012
12.7264,1.8308
12.7264,1.7281
12.7270,1.7727
12.7270,1.7751
12.7270,1.768
12.7319,1.6748
12.7329,1.6482
12.7329,1.596
12.7329,1.5891
12.7398,1.5602
12.7399,1.6223
12.7399,1.6737
12.7399,1.6917
12.7399,1.6697
12.7461,1.7344
12.7461,1.7129
12.7469,1.5666
12.7469,1.6388
12.7469,1.6388
12.7529,1.5173
12.7529,1.6382
12.7539,1.5589
12.7539,1.5653
12.7599,1.6412
12.7599,1.5936
12.7609,1.5576
12.7609,1.6341
12.7609,1.7202
12.7669,1.7192
12.7669,1.6765
12.7669,1.5599
12.7669,1.5767
12.7738,1.6401
12.7738,1.6148
12.7738,1.5357
12.7748,1.5737
12.7748,1.579
12.7798,1.5625
12.7798,1.5962
12.7808,1.6131
12.7808,1.6264
12.7868,1.6551
12.7868,1.729
12.7878,1.852
12.7878,1.7342
12.7878,1.6592
12.7935,1.5636
12.7938,1.4639
12.7938,1.4792
12.7938,1.6043
12.7948,1.6887
12.8008,1.6831
12.8008,1.627
12.8008,1.6304
12.8008,1.7543
12.8077,1.8145
12.8077,1.7575
12.8077,1.7106
12.8107,1.7586
12.8187,1.7146
12.8193,1.6943
12.8207,1.6546
12.8207,1.5677
12.8211,1.5188
12.8211,1.5075
12.8217,1.5893
12.8217,1.7281
12.8217,1.7877
12.8217,1.8113
12.8274,1.741
12.8277,1.6958
12.8277,1.6988
12.8277,1.5447
12.8337,1.4775
12.8347,1.5184
12.8347,1.5329
12.8347,1.4924
12.8357,1.5559
12.8407,1.6546
12.8407,1.6294
12.8417,1.5949
12.8417,1.6313
12.8417,1.5989
12.8476,1.6626
12.8476,1.6847
12.8486,1.6654
12.8486,1.6504
12.8552,1.6347
12.8552,1.4697
12.8559,1.4738
12.8559,1.501
12.8559,1.5137
12.8609,1.6112
12.8619,1.6486
12.8619,1.6772
12.8619,1.6909
12.8679,1.6928
12.8689,1.6808
12.8689,1.72
12.8689,1.8025
12.8689,1.7187
12.8748,1.6457
12.8748,1.5957
12.8748,1.594
12.8758,1.6418
12.8818,1.6699
12.8818,1.6446
12.8818,1.66
12.8828,1.7146
12.8828,1.7734
12.8878,1.7341
12.8888,1.633
12.8888,1.5925
12.8888,1.525
12.8898,1.3941
12.8948,1.4946
12.8958,1.5278
12.8958,1.6949
12.8958,1.7404
12.9026,1.7281
12.9028,1.6808
12.9028,1.6067
12.9028,1.6772
12.9028,1.5779
12.9088,1.5739
12.9088,1.7027
12.9098,1.7652
12.9098,1.6817
12.9157,1.623
12.9157,1.597
12.9167,1.6229
12.9167,1.629
12.9167,1.6157
12.9267,1.6045
12.9277,1.6472
12.9277,1.7414
12.9277,1.7194
12.9297,1.6666
12.9307,1.588
12.9307,1.672
12.9307,1.7005
12.9317,1.6152
12.9357,1.5165
12.9357,1.5664
12.9357,1.6004
12.9367,1.5475
12.9367,1.705
12.9430,1.6849
12.9430,1.6855
12.9437,1.8526
12.9437,1.7408
12.9502,1.7455
12.9506,1.6786
12.9506,1.7026
12.9506,1.6547
12.9516,1.605
12.9566,1.5822
12.9566,1.5499
12.9566,1.6508
12.9578,1.7189
12.9637,1.6639
12.9637,1.7146
12.9637,1.7691
12.9646,1.8569
12.9646,1.7821
12.9696,1.6682
12.9706,1.6911
12.9706,1.6969
12.9706,1.6994
12.9766,1.6298
12.9776,1.5983
12.9776,1.5614
12.9776,1.5642
12.9776,1.6418
12.9836,1.6997
12.9836,1.6384
12.9836,1.6375
12.9845,1.7502
12.9845,1.7052
12.9906,1.6802
12.9906,1.6656
12.9906,1.6859
12.9915,1.6094
12.9979,1.558
12.9979,1.5209
12.9985,1.4925
12.9985,1.7624
12.9985,1.7131
13.0035,1.6461
13.0045,1.6984
13.0045,1.6941
13.0045,1.7496
13.0105,1.6861
13.0115,1.6139
13.0115,1.5591
13.0125,1.5584
13.0125,1.5743
13.0175,1.5593
13.0175,1.5668
13.0175,1.5915
13.0185,1.6544
13.0249,1.6135
13.0249,1.6418
13.0254,1.581
13.0254,1.6694
13.0254,1.6637
13.0315,1.6671
13.0400,1.6726
13.0414,1.6388
13.0414,1.5314
13.0414,1.453
13.0424,1.4714
13.0424,1.5597
13.0424,1.5773
13.0424,1.6403
13.0454,1.6568
13.0454,1.6787
13.0454,1.7269
13.0464,1.6484
13.0464,1.7586
13.0518,1.6315
13.0518,1.6005
13.0524,1.6947
13.0524,1.6257
13.0590,1.5589
13.0593,1.5552
13.0593,1.5456
13.0593,1.5419
13.0593,1.5816
13.0653,1.6095
13.0653,1.5825
13.0653,1.6039
13.0653,1.5115
13.0723,1.4665
13.0723,1.6082
13.0729,1.5593
13.0733,1.5392
13.0733,1.4714
13.0783,1.5308
13.0783,1.5488
13.0793,1.5962
13.0793,1.6502
13.0793,1.6332
13.0853,1.5548
13.0863,1.5569
13.0863,1.5966
13.0863,1.6405
13.0933,1.6994
13.0933,1.7717
13.0933,1.9101
13.0933,1.9004
13.0943,1.8931
13.0992,1.9547
13.0992,1.9797
13.1002,1.9347
13.1002,1.9692
13.1067,2.0892
13.1102,2.0796
13.1102,1.9937
13.1102,2.0149
13.1112,1.9527
13.1122,1.8156
13.1132,1.6919
13.1132,1.6191
13.1132,1.62
13.1202,1.608
13.1202,1.5584
13.1202,1.4659
13.1202,1.6002
13.1212,1.684
13.1262,1.6399
13.1262,1.4993
13.1262,1.5561
13.1272,1.6307
13.1272,1.6077
13.1332,1.5687
13.1332,1.5128
13.1341,1.4719
13.1341,1.566
13.1401,1.6439
13.1411,1.6622
13.1411,1.6311
13.1411,1.7787
13.1411,1.7526
13.1471,1.7395
13.1471,1.6576
13.1471,1.5355
13.1471,1.5344
13.1551,1.5816
13.1581,1.6534
13.1631,1.5861
13.1647,1.6242
13.1651,1.6092
13.1651,1.7033
13.1651,1.6686
13.1651,1.6686
13.1651,1.7251
13.1678,1.6649
13.1681,1.6874
13.1681,1.6842
13.1681,1.6517
13.1681,1.6375
13.1741,1.7161
13.1741,1.6568
13.1741,1.5805
13.1750,1.5449
13.1750,1.6019
13.1810,1.5597
13.1810,1.6232
13.1820,1.6217
13.1820,1.7065
13.1880,1.7247
13.1890,1.6671
13.1890,1.6746
13.1897,1.5795
13.1900,1.5325
13.1950,1.6352
13.1950,1.6002
13.1950,1.6435
13.1960,1.6574
13.2020,1.6566
13.2020,1.7284
13.2020,1.7402
13.2020,1.7481
13.2030,1.7393
13.2080,1.7592
13.2080,1.8104
13.2089,1.7667
13.2089,1.6525
13.2155,1.6015
13.2159,1.6619
13.2159,1.5949
13.2159,1.5953
13.2169,1.5585
13.2219,1.7513
13.2219,1.7241
13.2219,1.6726
13.2229,1.6412
13.2229,1.5651
13.2289,1.5846
13.2289,1.6137
13.2289,1.7102
13.2299,1.6982
13.2359,1.5848
13.2359,1.5769
13.2359,1.4744
13.2369,1.5782
13.2369,1.7296
13.2419,1.7886
13.2429,1.8421
13.2429,1.8458
13.2429,1.7652
13.2488,1.7596
13.2498,1.7785
13.2498,1.7404
13.2498,1.7029
13.2508,1.6424
13.2558,1.59
13.2562,1.6045
13.2562,1.6371
13.2568,1.6154
13.2638,1.6692
13.2688,1.7067
13.2698,1.774
13.2708,1.8481
13.2708,1.8512
13.2708,1.8181
13.2718,1.7348
13.2718,1.7003
13.2718,1.5719
13.2728,1.5535
13.2768,1.5576
13.2768,1.6208
13.2768,1.6262
13.2768,1.7427
13.2838,1.5585
13.2838,1.6806
13.2838,1.8312
13.2847,1.8737
13.2847,1.8524
13.2900,1.7929
13.2907,1.7097
13.2907,1.7849
13.2907,1.7209
13.2967,1.6373
13.2967,1.7191
13.2977,1.6949
13.2977,1.7097
13.2977,1.7474
13.3037,1.744
13.3037,1.7695
13.3037,1.7852
13.3047,1.8634
13.3107,1.8036
13.3107,1.7776
13.3107,1.7959
13.3117,1.8237
13.3117,1.6416
13.3167,1.603
13.3175,1.6416
13.3175,1.7822
13.3175,1.723
13.3175,1.6919
13.3241,1.8057
13.3241,1.9219
13.3241,1.8886
13.3241,1.8402
13.3407,1.858
13.3407,1.7442
13.3407,1.7734
13.3407,1.7541
13.3407,1.7142
13.3407,1.5833
13.3407,1.6703
13.3407,1.7774
13.3407,1.8451
13.3407,1.8741
13.3407,1.8627
13.3407,1.8912
13.3407,1.8511
13.3407,1.6707
13.3407,1.7177
13.3407,1.6992
13.3407,1.6557
13.3407,1.6544
13.3573,1.5996
13.3573,1.6662
13.3573,1.7879
13.3573,1.7903
13.3573,1.6628
13.3573,1.6109
13.3573,1.6007
13.3573,1.7389
13.3573,1.7963
13.3573,1.7112
13.3752,1.6236
13.3814,1.5705
13.3833,1.5437
13.3833,1.63
13.3833,1.6971
13.3833,1.7363
13.3833,1.678
13.3833,1.6782
13.3833,1.7134
13.3866,1.7316
13.3866,1.6896
13.3866,1.7395
13.3866,1.6819
13.3917,1.4856
13.3917,1.3894
13.3917,1.3592
13.3917,1.4187
13.3917,1.4509
13.3917,1.6069
13.3917,1.6853
13.3917,1.7183
13.3917,1.8542
13.4068,1.9568
13.4068,1.8212
13.4078,1.7041
13.4078,1.6517
13.4078,1.6941
13.4128,1.6495
13.4138,1.6724
13.4138,1.6155
13.4138,1.564
13.4138,1.6041
13.4208,1.6322
13.4208,1.5775
13.4208,1.588
13.4208,1.6504
13.4278,1.7024
13.4278,1.6969
13.4288,1.6679
13.4288,1.5897
13.4288,1.5188
13.4338,1.5092
13.4348,1.482
13.4348,1.5447
13.4348,1.518
13.4407,1.4826
13.4417,1.5435
13.4417,1.7172
13.4417,1.7078
13.4427,1.7326
13.4477,1.7005
13.4477,1.7194
13.4477,1.7149
13.4477,1.6439
13.4547,1.6546
13.4547,1.6275
13.4547,1.551
13.4557,1.6371
13.4563,1.6041
13.4607,1.6337
13.4607,1.6894
13.4617,1.6559
13.4617,1.7018
13.4617,1.7813
13.4677,1.7817
13.4687,1.7614
13.4687,1.5835
13.4687,1.5482
13.4746,1.518
13.4756,1.5269
13.4756,1.485
13.4756,1.4787
13.4766,1.4112
13.4816,1.5008
13.4816,1.5525
13.4826,1.4687
13.4826,1.7144
13.4916,1.7905
13.4967,1.7971
13.4983,1.8282
13.4986,1.7502
13.4986,1.6907
13.4986,1.7117
13.4986,1.6917
13.4996,1.6696
13.4996,1.6585
13.5016,1.6221
13.5016,1.6919
13.5026,1.69
13.5026,1.7132
13.5026,1.7119
13.5086,1.7384
13.5086,1.6759
13.5086,1.6107
13.5086,1.563
13.5096,1.5749
13.5155,1.624
13.5155,1.5617
13.5155,1.4102
13.5165,1.4625
13.5225,1.5705
13.5225,1.6107
13.5236,1.648
13.5236,1.6367
13.5245,1.7674
13.5285,1.8327
13.5295,1.6339
13.5295,1.5799
13.5295,1.6926
13.5355,1.6611
13.5365,1.6139
13.5365,1.78
13.5365,1.7269
13.5375,1.6307
13.5425,1.6844
13.5425,1.7513
13.5425,1.7768
13.5435,1.7363
13.5496,1.8569
13.5496,1.7689
13.5496,1.741
13.5504,1.6707
13.5504,1.533
13.5554,1.5128
13.5564,1.5278
13.5564,1.6184
13.5564,1.6364
13.5574,1.7132
13.5624,1.7671
13.5635,1.7781
13.5635,1.7695
13.5635,1.5944
13.5694,1.5021
13.5704,1.4772
13.5704,1.5047
13.5704,1.5644
13.5714,1.5479
13.5764,1.6315
13.5764,1.6139
13.5764,1.573
13.5774,1.6028
13.5834,1.6812
13.5834,1.7534
13.5844,1.7575
13.5844,1.7695
13.5844,1.8524
13.5899,1.9028
13.5903,1.7517
13.5903,1.7491
13.5903,1.5546
13.5973,1.5165
13.6007,1.5015
13.6053,1.5012
13.6073,1.4772
13.6079,1.539
13.6083,1.4931
13.6083,1.7134
13.6083,1.7567
13.6083,1.5422
13.6083,1.4507
13.6104,1.542
13.6104,1.545
13.6104,1.485
13.6113,1.4537
13.6173,1.4856
13.6173,1.4247
13.6183,1.5162
13.6183,1.5154
13.6189,1.6424
13.6242,1.7532
13.6242,1.6026
13.6242,1.6302
13.6252,1.7886
13.6310,1.9118
13.6312,1.8691
13.6312,1.8497
13.6312,1.477
13.6312,1.6005
13.6372,1.4421
13.6372,1.5734
13.6372,1.5782
13.6382,1.5782
13.6444,1.6744
13.6444,1.6088
13.6444,1.6075
13.6452,1.5719
13.6452,1.4325
13.6502,1.2552
13.6502,1.3626
13.6512,1.3887
13.6512,1.588
13.6512,1.4897
13.6578,1.6274
13.6582,1.7254
13.6582,1.6727
13.6582,1.4421
13.6651,1.5668
13.6651,1.5872
13.6651,1.6669
13.6651,1.75
13.6661,1.8991
13.6711,1.6675
13.6711,1.5537
13.6721,1.444
13.6721,1.3682
13.6781,1.275
13.6781,1.7181
13.6791,1.7275
13.6791,1.7834
13.6791,1.807
13.6841,1.7011
13.6851,1.5535
13.6851,1.5068
13.6851,1.7267
13.6911,1.5889
13.6921,1.6129
13.6921,1.4595
13.6931,1.441
13.6934,1.3311
13.6981,1.3064
13.6981,1.2608
13.6990,1.3934
13.6990,1.6456
13.6990,1.5004
13.7080,1.4554
13.7160,1.5737
13.7170,1.6435
13.7170,1.8066
13.7180,1.9626
13.7180,1.942
13.7180,2.0575
13.7189,1.5158
13.7190,1.4802
13.7190,1.6079
13.7190,1.6564
13.7200,1.9677
13.7200,1.8901
13.7260,1.8404
13.7260,1.5464
13.7260,1.5137
13.7270,2.2084
13.7270,2.3088
13.7320,2.525
13.7320,2.044
13.7330,1.3285
13.7330,1.266
13.7396,1.2482
13.7399,1.2535
13.7399,1.5385
13.7399,1.2983
13.7409,1.5955
13.7459,1.2477
13.7459,1.3114
13.7459,1.5137
13.7459,1.3469
13.7469,1.5837
13.7530,1.5574
13.7530,1.4275
13.7530,1.2837
13.7539,1.4054
13.7599,1.6881
13.7599,1.6039
13.7609,1.7957
13.7609,1.6735
13.7609,1.4275
13.7659,1.2458
13.7669,1.246
13.7669,1.4466
13.7669,2.2919
13.7729,1.8353
13.7738,1.5004
13.7738,1.2664
13.7748,1.2659
13.7748,1.3227
13.7798,1.3238
13.7798,1.5773
13.7808,1.2546
13.7808,1.246
13.7868,1.2458
13.7868,1.2465
13.7878,1.4785
13.7878,2.1458
13.7878,2.2761
13.7928,1.8497
13.7938,1.4249
13.7938,1.2458
13.7938,1.2591
13.7938,1.4451
13.7998,1.3294
13.8008,1.2561
13.8008,1.5132
13.8008,1.7806
13.8078,1.2462
13.8078,1.2469
13.8078,1.2469
13.8088,1.2462
13.8088,1.2467
13.8137,1.2475
13.8137,1.6022
13.8147,2.1858
13.8147,1.9641
13.8217,2.0072
13.8267,1.7455
13.8287,1.9495
13.8287,1.482
13.8287,1.3041
13.8287,1.6215
13.8297,1.4005
13.8297,1.4256
13.8297,1.2479
13.8346,1.2464
13.8347,1.2458
13.8347,1.2503
13.8347,1.2593
13.8357,1.3474
13.8407,2.347
13.8407,2.164
13.8407,1.8216
13.8417,1.3988
13.8417,1.2494
13.8476,1.4232
13.8476,1.4609
13.8487,1.2467
13.8487,1.7164
13.8546,2.0509
13.8546,1.8771
13.8556,1.8361
13.8556,1.5897
13.8561,1.3572
13.8616,1.4545
13.8616,1.246
13.8616,1.4282
13.8626,1.8385
13.8687,2.0378
13.8687,1.8121
13.8687,1.4532
13.8696,1.4127
13.8696,1.2464
13.8746,1.248
13.8746,1.2482
13.8756,1.2464
13.8756,1.3395
13.8816,1.2462
13.8816,1.2462
13.8826,1.3056
13.8826,2.6097
13.8826,2.5705
13.8875,1.8638
13.8885,1.6787
13.8885,1.2497
13.8895,1.4029
13.8895,1.7723
13.8955,1.3825
13.8955,1.6054
13.8955,1.3958
13.8955,1.2464
13.9025,1.2462
13.9025,1.2458
13.9025,1.2505
13.9035,1.3234
13.9035,1.7232
13.9085,1.2465
13.9085,1.2696
13.9095,1.4792
13.9095,1.9388
13.9155,2.0196
13.9165,1.6703
13.9165,1.2959
13.9165,1.5597
13.9175,1.2544
13.9225,1.2458
13.9228,1.246
13.9228,1.2458
13.9234,1.3245
13.9294,1.6797
13.9314,1.3015
13.9384,1.2482
13.9404,1.2458
13.9404,1.2471
13.9414,1.246
13.9414,1.596
13.9414,1.9279
13.9414,1.5777
13.9424,1.2458
13.9428,1.2464
13.9428,1.246
13.9434,1.3384
13.9434,2.0935
13.9494,2.0622
13.9504,2.0768
13.9504,1.4121
13.9504,1.2932
13.9514,1.2475
13.9567,1.2477
13.9567,1.2479
13.9574,1.2465
13.9574,1.3812
13.9633,1.9996
13.9633,1.4393
13.9633,1.2464
13.9643,1.3585
13.9643,1.3853
13.9693,1.2464
13.9693,1.2462
13.9703,1.2464
13.9703,1.2462
13.9763,1.332
13.9763,1.3129
13.9773,1.2465
13.9773,1.6223
13.9773,2.1507
13.9833,1.9975
13.9833,1.6572
13.9833,1.5389
13.9833,1.6476
13.9843,1.287
13.9903,1.2462
13.9903,1.2458
13.9903,1.3187
13.9913,1.7286
13.9973,1.6626
13.9973,1.2462
13.9982,1.2458
13.9982,1.2479
13.9982,2.2101
14.0032,1.6838
14.0042,1.4549
14.0042,1.4029
14.0042,1.3073
14.0102,1.4714
14.0112,1.416
14.0112,1.5599
14.0112,1.3358
14.0122,1.2522
14.0172,1.2458
14.0172,1.2462
14.0172,1.2465
14.0182,1.2462
14.0245,1.246
14.0245,1.5934
14.0252,1.753
14.0252,1.6746
14.0252,1.5126
14.0302,1.252
14.0312,1.246
14.0312,1.246
14.0312,1.2469
14.0322,1.2739
14.0371,1.2464
14.0412,1.2462
14.0481,1.2458
14.0501,1.2535
14.0501,1.4352
14.0501,1.6696
14.0512,1.966
14.0512,1.3641
14.0512,1.2951
14.0512,1.4775
14.0521,1.2464
14.0521,1.2467
14.0521,1.2486
14.0584,1.2464
14.0584,1.246
14.0591,1.246
14.0591,1.2799
14.0591,1.2494
14.0641,1.2554
14.0651,1.7305
14.0651,1.9947
14.0651,1.8796
14.0720,1.5595
14.0721,1.3703
14.0721,1.246
14.0721,1.246
14.0730,1.246
14.0780,1.2464
14.0780,1.2677
14.0780,1.4018
14.0790,1.2818
14.0790,1.2462
14.0870,1.2471
14.0870,1.3604
14.0870,1.3864
14.0870,1.258
14.0940,1.3105
14.0940,1.2462
14.0940,1.2462
14.0950,1.2479
14.0950,1.2539
14.1000,1.3647
14.1000,1.2456
14.1010,1.3881
14.1010,1.8214
14.1074,1.8051
14.1074,1.3341
14.1080,1.2464
14.1080,1.6401
14.1080,1.9311
14.1129,2.0369
14.1169,1.2578
14.1169,1.2505
14.1169,1.2462
14.1199,1.2852
14.1209,1.2465
14.1209,1.2465
14.1209,1.2899
14.1219,1.2659
14.1269,1.2484
14.1269,1.2488
14.1279,1.2477
14.1279,2.3648
14.1279,2.1559
14.1339,1.8456
14.1339,1.2462
14.1349,1.2518
14.1349,1.6341
14.1413,1.9131
14.1413,1.3922
14.1419,1.4097
14.1419,1.2465
14.1419,1.2494
14.1468,1.248
14.1508,1.2464
14.1588,1.2465
14.1598,1.2477
14.1608,1.2482
14.1608,1.2471
14.1608,1.2469
14.1608,1.246
14.1618,1.2615
14.1618,2.2943
14.1618,2.0286
14.1618,1.4091
14.1628,1.246
14.1678,1.2749
14.1678,1.6615
14.1688,1.3394
14.1688,1.4952
14.1688,1.2599
14.1738,1.246
14.1738,1.2458
14.1748,1.2458
14.1748,1.2625
14.1748,1.4157
14.1813,1.2486
14.1818,1.2469
14.1818,1.2469
14.1818,1.2462
14.1877,1.2458
14.1887,2.2896
14.1887,1.9523
14.1894,1.9559
14.1897,1.6664
14.1947,1.246
14.1947,1.2464
14.1957,1.2465
14.1958,1.486
14.2017,1.3467
14.2017,1.2486
14.2017,1.2477
14.2027,1.2473
14.2027,1.2469
14.2077,1.2977
14.2087,1.3559
14.2087,1.5045
14.2087,1.657
14.2154,1.5402
14.2157,1.3849
14.2157,1.9197
14.2157,1.4207
14.2167,1.2462
14.2217,1.246
14.2217,1.246
14.2217,1.3073
14.2228,1.2854
14.2228,1.2563
14.2288,1.2475
14.2288,1.2756
14.2288,1.2462
14.2296,1.2462
14.2356,1.2484
14.2356,1.5214
14.2366,1.5587
14.2366,1.2465
14.2366,1.2464
14.2416,1.246
14.2426,1.3317
14.2426,1.3174
14.2426,1.575
14.2486,1.482
14.2496,1.2953
14.2496,1.3214
14.2496,1.246
14.2496,1.2465
14.2556,1.246
14.2561,1.36
14.2561,1.3065
14.2566,1.2467
14.2635,1.2462
14.2695,1.4715
14.2705,2.1449
14.2715,1.8835
14.2715,1.246
14.2715,1.2797
14.2715,1.3133
14.2725,1.255
14.2728,1.2465
14.2728,1.2479
14.2755,1.2473
14.2765,1.3472
14.2765,1.3712
14.2765,1.5074
14.2835,1.401
14.2835,1.2464
14.2835,1.2479
14.2835,1.2473
14.2845,1.3845
14.2896,1.5833
14.2896,1.2465
14.2905,1.2473
14.2905,1.2464
14.2964,1.5042
14.2964,1.4567
14.2964,1.6457
14.2974,1.3742
14.2974,1.6112
14.3024,1.6517
14.3034,1.4937
14.3034,1.2659
14.3034,1.2462
14.3102,1.2465
14.3104,1.2465
14.3104,1.2462
14.3104,1.2865
14.3104,1.375
14.3164,1.3967
14.3164,1.2535
14.3164,1.5128
14.3174,1.7642
14.3174,1.6559
14.3234,1.246
14.3234,1.2467
14.3234,1.2473
14.3244,1.246
14.3304,1.2456
14.3304,1.2462
14.3314,1.246
14.3314,1.2464
14.3314,1.246
14.3363,1.365
14.3373,1.7417
14.3373,1.7339
14.3373,1.2479
14.3433,1.2464
14.3443,1.2467
14.3443,1.3103
14.3443,2.2443
14.3453,1.7498
14.3503,1.9418
14.3503,2.0963
14.3503,1.552
14.3513,1.3922
14.3573,1.7384
14.3573,1.5169
14.3583,1.2499
14.3583,1.2469
14.3583,1.2465
14.3633,1.362
14.3643,1.4537
14.3643,1.3125
14.3643,1.2471
14.3653,1.2574
14.3722,1.2477
14.3812,1.63
14.3822,2.4951
14.3832,2.65
14.3832,2.4518
14.3832,1.4179
14.3832,1.246
14.3843,1.2462
14.3843,1.2458
14.3843,1.2462
14.3852,1.2799
14.3852,1.2465
14.3852,1.2464
14.3914,1.246
14.3914,1.2473
14.3914,1.2467
14.3922,1.2462
14.3922,1.2486
14.3972,1.2533
14.3972,1.3967
14.3982,1.5859
14.3982,1.9519
14.4042,1.6741
14.4052,1.2651
14.4052,1.2642
14.4052,1.2458
14.4062,1.246
14.4082,1.2473
14.4082,1.2722
14.4082,1.246
14.4082,1.443
14.4082,1.3369
14.4082,1.2469
14.4082,1.2469
14.4082,1.2837
14.4082,2.1308
14.4252,2.2968
14.4252,1.3799
14.4252,1.6954
14.4259,1.4196
14.4259,1.4747
14.4309,1.3011
14.4319,1.2546
14.4319,1.2467
14.4319,1.246
14.4378,1.2464
14.4388,1.2465
14.4388,1.2462
14.4394,1.246
14.4398,1.248
14.4448,1.2469
14.4448,1.3752
14.4448,2.1664
14.4458,1.6384
14.4518,1.9478
14.4518,1.9118
14.4518,1.3549
14.4528,1.246
14.4528,1.2462
14.4578,1.2458
14.4578,1.2458
14.4588,1.246
14.4588,1.2462
14.4588,1.2464
14.4648,1.2458
14.4648,1.3737
14.4658,1.6073
14.4658,1.3885
14.4787,1.2467
14.4792,1.2467
14.4809,1.3575
14.4809,1.2719
14.4809,1.255
14.4817,1.5327
14.4817,1.7269
14.4817,1.7408
14.4817,1.7009
14.4858,1.4946
14.4858,1.2465
14.4858,1.246
14.4858,1.246
14.4867,1.2458
14.4920,1.246
14.4920,1.2464
14.4927,1.248
14.4927,1.2717
14.4987,1.3004
14.4987,1.2524
14.4997,1.2462
14.4997,1.2465
14.4997,1.381
14.5054,1.8001
14.5057,1.2824
14.5057,1.3369
14.5067,1.4644
14.5067,1.7644
14.5126,1.6427
14.5126,1.9311
14.5126,2.0144
14.5126,1.2597
14.5196,1.2464
14.5196,1.2465
14.5196,1.2462
14.5196,1.2475
14.5206,1.2464
14.5258,1.4871
14.5258,1.563
14.5266,1.2458
14.5266,1.3345
14.5326,1.2861
14.5326,1.2458
14.5336,2.0039
14.5336,2.0237
14.5336,1.7027
14.5386,1.3073
14.5396,1.2462
14.5396,1.2462
14.5396,1.2572
14.5456,1.3178
14.5466,1.2464
14.5466,1.2458
14.5476,1.2469
14.5476,1.2475
14.5525,2.467
14.5525,1.9697
14.5525,1.4547
14.5535,1.249
14.5535,1.2467
14.5595,1.2777
14.5595,1.3947
14.5595,1.4775
14.5605,2.3196
14.5667,2.0402
14.5667,1.4172
14.5667,1.2977
14.5675,1.246
14.5675,1.2465
14.5725,1.2464
14.5725,1.246
14.5735,1.246
14.5735,1.2458
14.5815,1.2464
14.5904,1.3611
14.5914,1.4687
14.5924,1.9392
14.5934,1.6834
14.5934,1.4762
14.5934,1.2469
14.5934,1.246
14.5944,1.2465
14.5944,1.2597
14.5944,1.5285
14.5944,1.468
14.5954,1.2497
14.5954,1.2471
14.5994,1.2471
14.5994,1.2574
14.5994,1.4963
14.6004,1.2505
14.6004,1.2698
14.6064,1.3195
14.6064,1.4125
14.6074,2.0515
14.6074,2.0027
14.6133,1.8267
14.6143,1.482
14.6143,1.3019
14.6143,1.2486
14.6143,1.2464
14.6203,1.2462
14.6203,1.2469
14.6203,1.2458
14.6203,1.2473
14.6272,1.2494
14.6272,1.2471
14.6272,1.2479
14.6282,1.2477
14.6282,1.4552
14.6334,1.7067
14.6334,1.7691
14.6334,2.4608
14.6342,1.4102
14.6402,1.2458
14.6402,1.2458
14.6402,1.2458
14.6412,1.246
14.6412,1.246
14.6468,1.249
14.6472,1.2464
14.6472,1.3973
14.6472,1.2645
14.6472,1.2464
14.6532,1.2475
14.6542,1.2602
14.6542,1.4691
14.6542,1.9317
14.6601,1.7159
14.6611,1.3684
14.6611,1.2795
14.6611,1.2524
14.6621,1.2477
14.6671,1.2467
14.6671,1.2464
14.6671,1.2467
14.6681,1.246
14.6743,1.2477
14.6743,1.2464
14.6743,1.2649
14.6751,1.2477
14.6751,1.2675
14.6801,1.6328
14.6811,1.8794
14.6811,2.3153
14.6811,1.9231
14.6871,1.4929
14.6881,1.3217
14.6881,1.257
14.6881,1.246
14.6891,1.246
14.7010,1.2464
14.7013,1.2458
14.7031,1.2458
14.7031,1.2464
14.7031,1.2475
14.7040,1.9448
14.7040,1.8745
14.7040,1.5689
14.7040,1.546
14.7082,1.4472
14.7082,1.3069
14.7082,1.2486
14.7090,1.2467
14.7090,1.246
14.7144,1.4367
14.7144,1.6868
14.7150,1.6699
14.7150,1.2514
14.7210,1.2462
14.7210,1.2473
14.7220,1.2475
14.7220,1.2464
14.7220,1.2495
14.7280,1.2477
14.7280,1.2467
14.7280,1.2677
14.7280,1.5038
14.7347,1.2509
14.7349,1.6009
14.7349,1.465
14.7349,1.5784
14.7349,1.4805
14.7412,1.909
14.7412,1.402
14.7412,1.2458
14.7419,1.2458
14.7419,1.5681
14.7479,1.4104
14.7479,1.4727
14.7489,1.275
14.7489,1.2469
14.7549,1.2467
14.7549,1.2471
14.7560,1.2482
14.7560,1.2458
14.7560,1.6559
14.7616,2.1286
14.7619,1.5602
14.7619,1.2467
14.7619,1.324
14.7679,1.4614
14.7689,1.3253
14.7689,1.2464
14.7689,1.2462
14.7689,1.2462
14.7748,1.2467
14.7748,1.2458
14.7758,1.2471
14.7758,1.2717
14.7818,1.2929
14.7818,1.66
14.7818,1.365
14.7828,1.2606
14.7828,1.2685
14.7878,1.573
14.7888,1.6349
14.7888,1.5627
14.7894,1.2527
14.7898,1.2555
14.7948,1.3853
14.7958,1.7279
14.7958,1.3253
14.7958,1.2501
14.8048,1.2467
14.8101,1.246
14.8117,1.2469
14.8117,1.2475
14.8117,1.2469
14.8117,1.2471
14.8127,1.2893
14.8127,1.2666
14.8127,1.3257
14.8177,1.5396
14.8177,1.7151
14.8177,2.0828
14.8177,1.6649
14.8187,1.3759
14.8237,1.4749
14.8237,1.2777
14.8237,1.2488
14.8247,1.2675
14.8307,1.2531
14.8312,1.246
14.8312,1.248
14.8317,1.2482
14.8317,1.2471
14.8367,1.2464
14.8367,1.2482
14.8377,1.3097
14.8377,1.7635
14.8377,2.1691
14.8443,1.4385
14.8447,1.246
14.8447,1.2462
14.8447,1.3988
14.8506,1.3365
14.8516,1.2509
14.8516,1.5342
14.8516,1.395
14.8516,1.246
14.8576,1.2469
14.8576,1.248
14.8576,1.2469
14.8586,1.2473
14.8646,1.2488
14.8646,1.2471
14.8646,1.3898
14.8656,1.9844
14.8656,2.3641
14.8706,2.182
14.8706,1.6705
14.8716,1.7119
14.8716,2.3434
14.8776,1.2977
14.8786,1.48
14.8786,1.356
14.8786,1.246
14.8786,1.2467
14.8845,1.2458
14.8845,1.2456
14.8845,1.2462
14.8845,1.2467
14.8855,1.2464
14.8915,1.2462
14.8915,1.2471
14.8915,1.2465
14.8925,1.2462
14.8985,1.2469
14.8985,1.2488
14.8985,1.503
14.8995,1.7018
14.8995,1.792
14.9045,1.2495
14.9055,1.246
14.9055,1.246
14.9060,1.6752
14.9122,1.2464
14.9155,1.2471
14.9195,1.2475
14.9221,1.2465
14.9225,1.2509
14.9225,1.3039
14.9225,1.2842
14.9234,1.246
14.9234,1.246
14.9256,1.2462
14.9256,1.2495
14.9256,1.246
14.9256,1.4774
14.9265,1.6731
14.9318,1.8203
14.9318,1.8968
14.9324,1.272
14.9324,1.2482
14.9324,1.2462
14.9384,1.2467
14.9394,1.2471
14.9394,1.3412
14.9394,1.6885
14.9454,1.2692
14.9464,1.2467
14.9464,1.246
14.9464,1.6148
14.9464,1.8499
14.9524,1.3405
14.9524,2.1646
14.9524,2.5227
14.9524,2.0054
14.9593,2.1657
14.9593,1.8574
14.9593,2.0463
14.9593,1.248
14.9603,1.2542
14.9653,1.246
14.9653,1.2458
14.9663,1.2458
14.9663,1.248
14.9723,1.2492
14.9723,1.248
14.9733,1.2464
14.9733,1.5968
14.9733,2.2411
14.9790,1.7762
14.9793,1.8066
14.9793,1.2724
14.9793,1.2458
14.9793,1.2462
14.9863,1.2495
14.9863,1.7772
14.9863,1.8254
14.9863,1.6277
14.9933,1.2462
14.9933,1.246
14.9933,1.2473
14.9933,1.248
14.9943,1.2482
14.9992,1.2465
14.9992,1.288
14.9992,2.449
15.0002,2.0279
15.0066,1.4595
15.0066,1.4369
15.0066,1.3281
15.0072,1.4159
15.0072,1.7269
15.0122,1.753
15.0132,1.2469
15.0132,1.2462
15.0132,1.246
15.0192,1.2458
15.0202,1.2465
15.0202,1.2495
15.0202,1.2518
15.0202,1.249
15.0312,2.4905
15.0332,2.4839
15.0342,1.8061
15.0342,1.3926
15.0342,1.2831
15.0342,1.246
15.0351,1.246
15.0351,1.2464
15.0351,1.2464
15.0401,1.2456
15.0401,1.2482
15.0401,1.246
15.0411,1.2507
15.0411,1.2464
15.0461,1.2471
15.0471,1.246
15.0471,1.2464
15.0471,1.246
15.0531,1.246
15.0542,1.2464
15.0542,1.2539
15.0542,1.2606
15.0542,1.2505
15.0601,1.5803
15.0601,2.0961
15.0601,1.3705
15.0601,1.4067
15.0671,1.3352
15.0671,1.4783
15.0671,1.6651
15.0671,1.6195
15.0681,1.2533
15.0730,1.2904
15.0730,1.5509
15.0740,1.2509
15.0740,1.3814
15.0740,1.7102
15.0805,1.5614
15.0810,1.2458
15.0810,1.2464
15.0810,1.2464
15.0877,1.246
15.0880,1.2666
15.0880,1.5315
15.0880,1.8565
15.0880,1.3474
15.0940,1.2467
15.0940,1.246
15.0940,1.2456
15.0940,1.2469
15.1010,1.2467
15.1010,1.2464
15.1010,1.2473
15.1010,1.2458
15.1020,1.4474
15.1073,1.5374
15.1073,1.2464
15.1080,1.2464
15.1080,1.2469
15.1139,1.329
15.1139,1.3144
15.1149,1.246
15.1149,1.2544
15.1149,1.2464
15.1199,1.2467
15.1229,1.2465
15.1229,1.2467
15.1239,1.2477
15.1239,1.2458
15.1279,1.4412
15.1279,1.5134
15.1279,1.2471
15.1279,1.246
15.1359,1.8312
15.1389,1.7016
15.1439,1.2484
15.1458,1.4912
15.1458,2.0963
15.1458,1.9926
15.1458,1.8717
15.1468,1.5377
15.1468,1.2464
15.1484,1.2467
15.1484,1.2465
15.1488,1.2467
15.1488,1.2462
15.1488,1.2512
15.1548,1.2462
15.1548,1.2477
15.1548,1.2488
15.1548,1.2584
15.1618,1.2505
15.1618,1.5047
15.1618,1.5216
15.1618,2.0258
15.1628,2.4494
15.1678,2.6615
15.1678,2.5716
15.1688,2.0547
15.1688,1.5456
15.1688,1.2465
15.1752,1.2471
15.1752,1.2572
15.1758,1.2464
15.1758,1.2467
15.1818,1.248
15.1828,1.2467
15.1828,1.2477
15.1828,1.2488
15.1828,1.2482
15.1887,1.246
15.1887,1.3375
15.1893,1.6682
15.1893,1.2895
15.1957,1.2464
15.1957,1.3452
15.1957,1.7457
15.1957,1.7828
15.1967,1.4948
15.2017,1.8901
15.2017,1.3343
15.2027,1.246
15.2027,1.2464
15.2087,1.2494
15.2087,1.246
15.2097,1.2479
15.2097,1.3909
15.2097,1.3174
15.2157,1.2462
15.2157,1.261
15.2157,1.4039
15.2157,1.2467
15.2157,1.2462
15.2226,1.2458
15.2226,1.5359
15.2226,1.3962
15.2236,2.0146
15.2296,1.2788
15.2296,1.246
15.2296,1.2473
15.2306,1.2482
15.2306,1.4265
15.2356,1.8666
15.2366,1.8299
15.2366,2.3764
15.2366,1.2957
15.2426,1.2473
15.2436,1.2467
15.2456,1.2599
15.2536,2.275
15.2556,1.6656
15.2556,1.3778
15.2562,1.2494
15.2566,1.2462
15.2566,1.3937
15.2566,1.6452
15.2576,1.2458
15.2576,1.246
15.2576,1.2467
15.2576,1.2477
15.2625,1.2473
15.2625,1.8428
15.2635,2.5932
15.2635,2.3909
15.2635,1.8662
15.2701,1.6823
15.2705,1.2514
15.2705,1.2467
15.2705,1.2464
15.2767,1.2469
15.2775,1.2484
15.2775,1.2492
15.2775,1.432
15.2785,1.9156
15.2835,2.0072
15.2835,1.714
15.2845,1.8396
15.2845,1.377
15.2905,1.2559
15.2905,1.2465
15.2905,1.2469
15.2905,1.2464
15.2905,1.2469
15.2964,2.1912
15.2974,1.957
15.2974,1.2458
15.2974,1.2458
15.3034,1.2467
15.3044,1.2469
15.3044,1.2469
15.3044,1.2878
15.3044,1.4513
15.3104,1.4404
15.3104,1.2464
15.3104,1.4027
15.3114,1.9619
15.3114,2.5653
15.3174,2.2439
15.3178,1.2533
15.3178,1.2462
15.3184,1.2471
15.3244,1.2462
15.3244,1.2473
15.3254,1.2471
15.3254,1.2473
15.3254,1.2537
15.3304,1.2927
15.3314,1.2464
15.3314,1.2473
15.3314,1.9336
15.3381,1.8171
15.3383,1.7127
15.3383,1.699
15.3383,1.2458
15.3383,1.246
15.3443,1.246
15.3443,1.3259
15.3443,1.2505
15.3453,1.2501
15.3513,1.248
15.3513,1.2464
15.3513,1.2462
15.3523,1.2765
15.3523,1.27
15.3633,1.3819
15.3643,1.2479
15.3653,1.248
15.3663,1.2479
15.3665,2.3594
15.3665,2.4498
15.3665,2.1179
15.3673,1.6199
15.3673,1.2469
15.3722,1.2458
15.3722,1.2462
15.3726,1.2465
15.3732,1.2477
15.3732,1.6741
15.3784,1.4183
15.3784,1.2486
15.3784,1.2473
15.3794,1.2494
15.3857,1.2471
15.3857,1.246
15.3865,1.584
15.3865,2.1856
15.3865,2.1081
15.3919,2.1976
15.3919,1.4012
15.3925,1.2462
15.3925,1.2499
15.3991,1.246
15.3991,1.5565
15.3995,1.534
15.3995,1.246
15.3995,1.9952
15.4055,2.6037
15.4055,2.2917
15.4059,1.2602
15.4059,1.2475
15.4065,1.2462
15.4125,1.2467
15.4125,1.2473
15.4125,1.246
15.4135,1.6167
15.4196,2.5302
15.4196,1.9941
15.4206,1.4528
15.4206,1.6022
15.4206,1.4067
15.4257,1.2464
15.4257,1.2467
15.4267,1.246
15.4267,1.2464
15.4331,1.2464
15.4331,1.2473
15.4338,1.3506
15.4338,1.2934
15.4338,1.2462
15.4394,1.2473
15.4398,1.2479
15.4398,1.2479
15.4398,1.9795
15.4466,1.9366
15.4468,1.4399
15.4468,1.5694
15.4478,2.3324
15.4478,2.1018
15.4528,1.2679
15.4528,1.2464
15.4528,1.2477
15.4528,1.2484
15.4538,1.2795
15.4598,1.3373
15.4598,1.4625
15.4598,1.3654
15.4608,1.2465
15.4718,1.2694
15.4742,1.4584
15.4742,1.2494
15.4748,1.249
15.4748,1.8188
15.4748,1.9403
15.4748,1.4309
15.4758,1.4522
15.4758,1.2702
15.4806,1.2458
15.4809,1.2469
15.4809,1.249
15.4809,1.2584
15.4819,1.249
15.4870,1.2839
15.4870,1.2458
15.4870,1.246
15.4870,1.2465
15.4931,1.3605
15.4941,1.4498
15.4941,1.7961
15.4941,1.4849
15.4941,1.2462
15.5002,1.2462
15.5002,1.246
15.5011,1.2462
15.5011,1.5291
15.5011,1.4805
15.5071,1.4526
15.5071,1.2456
15.5081,1.3122
15.5081,1.2593
15.5140,1.2473
15.5140,1.2634
15.5150,1.2458
15.5150,1.2462
15.5150,1.2462
15.5210,1.2638
15.5210,1.2462
15.5210,1.246
15.5210,1.4584
15.5271,1.3302
15.5281,1.246
15.5281,1.2458
15.5281,1.2458
15.5281,1.2475
15.5342,1.246
15.5342,1.306
15.5349,1.7104
15.5352,1.2501
15.5430,1.2524
15.5433,1.4884
15.5433,1.2542
15.5433,1.3262
15.5443,1.3857
15.5493,1.9712
15.5493,1.6035
15.5493,1.2544
15.5503,1.5602
15.5503,1.7472
15.5563,1.3317
15.5563,1.4384
15.5563,1.338
15.5573,1.2608
15.5635,1.3305
15.5635,1.3245
15.5643,1.345
15.5643,1.3204
15.5643,1.4106
15.5698,1.2683
15.5704,1.2465
15.5704,1.246
15.5704,1.2458
15.5773,1.2471
15.5827,1.2499
15.5843,1.2467
15.5843,1.2464
15.5843,1.2458
15.5854,1.2465
15.5854,1.2465
15.5854,1.2471
15.5854,1.2467
15.5893,1.251
15.5903,1.2465
15.5903,1.2458
15.5903,1.264
15.5903,1.329
15.5964,1.2818
15.5964,1.246
15.5973,1.5171
15.5973,1.2514
15.5973,1.2959
15.6035,1.2473
15.6035,1.246
15.6043,1.2484
15.6043,1.2552
15.6103,1.2462
15.6109,1.7946
15.6109,1.2465
15.6113,1.2462
15.6113,1.2495
15.6168,1.3795
15.6168,1.2567
15.6175,1.2464
15.6175,1.2456
15.6239,1.2484
15.6239,1.276
15.6239,1.2645
15.6246,1.2614
15.6246,1.248
15.6297,1.2494
15.6306,1.2475
15.6306,1.2546
15.6306,1.2681
15.6366,1.2464
15.6366,1.246
15.6376,1.246
15.6376,1.2484
15.6376,1.2482
15.6427,1.2465
15.6437,1.2464
15.6437,1.2584
15.6437,1.2497
15.6447,1.246
15.6507,1.2486
15.6507,1.2458
15.6507,1.2458
15.6507,1.2458
15.6578,1.2475
15.6578,1.2516
15.6578,1.2525
15.6578,1.2529
15.6588,1.2458
15.6640,1.2464
15.6640,1.2554
15.6640,1.2488
15.6640,1.2501
15.6710,1.2582
15.6710,1.2557
15.6710,1.2482
15.6720,1.2492
15.6720,1.2505
15.6770,1.2469
15.6770,1.2467
15.6780,1.2919
15.6780,1.3349
15.6850,1.3409
15.6934,1.2749
15.6963,1.3922
15.6963,1.246
15.6969,1.2458
15.6969,1.2464
15.6969,1.249
15.6979,1.2475
15.6979,1.2621
15.6979,1.2525
15.6989,1.2555
15.6989,1.2473
15.6989,1.2499
15.6989,1.3026
15.7051,1.266
15.7051,1.2518
15.7060,1.2668
15.7064,1.2477
15.7070,1.3911
15.7110,1.2735
15.7110,1.2467
15.7120,1.2777
15.7120,1.2651
15.7184,1.2465
15.7184,1.2505
15.7190,1.2488
15.7193,1.246
15.7193,1.2488
15.7240,1.248
15.7250,1.2527
15.7260,1.2524
15.7260,1.2569
15.7311,1.2702
15.7321,1.26
15.7321,1.249
15.7331,1.246
15.7331,1.246
15.7382,1.2482
15.7382,1.249
15.7392,1.254
15.7392,1.2677
15.7392,1.2518
15.7452,1.2559
15.7452,1.2593
15.7462,1.2546
15.7462,1.2565
15.7524,1.2514
15.7524,1.2494
15.7532,1.2482
15.7532,1.2479
15.7542,1.2482
15.7582,1.2484
15.7592,1.2505
15.7592,1.2527
15.7592,1.2589
15.7657,1.3191
15.7657,1.2855
15.7663,1.2659
15.7663,1.2563
15.7663,1.3647
15.7714,1.3071
15.7725,1.2465
15.7725,1.2479
15.7725,1.2576
15.7791,1.2469
15.7795,1.2469
15.7795,1.2885
15.7795,1.2587
15.7795,1.2595
15.7853,1.2497
15.7856,1.2707
15.7856,1.2522
15.7856,1.2614
15.7856,1.2467
15.7986,1.2505
15.7995,1.248
15.8005,1.2467
15.8005,1.2516
15.8013,1.257
15.8015,1.2557
15.8015,1.2722
15.8015,1.2524
15.8015,1.26
15.8059,1.3214
15.8065,1.2784
15.8065,1.252
15.8065,1.2465
15.8126,1.2509
15.8126,1.2479
15.8136,1.2505
15.8136,1.2465
15.8136,1.2465
15.8187,1.2497
15.8197,1.2572
15.8197,1.2945
15.8197,1.272
15.8258,1.279
15.8266,1.2803
15.8266,1.2617
15.8266,1.2494
15.8266,1.2479
15.8327,1.2492
15.8327,1.2462
15.8327,1.2486
15.8327,1.2542
15.8327,1.2467
15.8397,1.2505
15.8397,1.2529
15.8397,1.2574
15.8397,1.2612
15.8468,1.2516
15.8468,1.2512
15.8468,1.2522
15.8468,1.2516
15.8468,1.2488
15.8528,1.2464
15.8528,1.2458
15.8538,1.246
15.8538,1.2484
15.8599,1.2507
15.8599,1.2542
15.8609,1.2758
15.8609,1.2597
15.8609,1.2542
15.8663,1.272
15.8668,1.2807
15.8668,1.2623
15.8668,1.2632
15.8734,1.251
15.8738,1.2482
15.8738,1.2514
15.8738,1.2488
15.8748,1.2471
15.8798,1.2492
15.8801,1.2797
15.8808,1.2469
15.8814,1.27
15.8818,1.2795
15.8868,1.2554
15.8868,1.2552
15.8868,1.2529
15.8868,1.2464
15.8929,1.2462
15.8939,1.2477
15.8939,1.2492
15.8939,1.2488
15.8949,1.2527
15.9058,1.2649
15.9078,1.267
15.9080,1.2557
15.9080,1.2552
15.9088,1.2659
15.9088,1.2728
15.9088,1.2619
15.9088,1.2642
15.9098,1.2629
15.9128,1.2501
15.9138,1.2494
15.9138,1.2518
15.9138,1.2518
15.9198,1.2518
15.9208,1.2544
15.9208,1.2632
15.9208,1.2705
15.9208,1.2569
15.9268,1.2685
15.9268,1.2531
15.9268,1.2589
15.9268,1.2537
15.9278,1.2572
15.9338,1.2554
15.9338,1.2495
15.9338,1.2514
15.9348,1.2655
15.9408,1.2559
15.9408,1.2884
15.9408,1.2735
15.9417,1.3335
15.9417,1.2715
15.9467,1.2914
15.9467,1.311
15.9477,1.258
15.9477,1.267
15.9537,1.2732
15.9537,1.3195
15.9547,1.2664
15.9547,1.2546
15.9547,1.2569
15.9603,1.2767
15.9607,1.2563
15.9607,1.2788
15.9607,1.3135
15.9674,1.2775
15.9677,1.3776
15.9677,1.2878
15.9677,1.314
15.9677,1.2614
15.9737,1.254
15.9737,1.3202
15.9737,1.2814
15.9747,1.2906
15.9747,1.3549
15.9806,1.4181
15.9806,1.3242
15.9806,1.3337
15.9816,1.4147
15.9876,1.3319
15.9876,1.3146
15.9886,1.2899
15.9886,1.383
15.9886,1.2867
15.9936,1.2668
15.9946,1.2604
15.9946,1.2612
15.9946,1.2857
16.0011,1.2717
16.0011,1.2662
16.0017,1.3611
16.0017,1.2921
16.0017,1.2784
16.0078,1.3009
16.0158,1.281
16.0178,1.2923
16.0178,1.2499
16.0178,1.2505
16.0188,1.2507
16.0188,1.2625
16.0188,1.2861
16.0188,1.3011
16.0208,1.3913
16.0208,1.4187
16.0208,1.4434
16.0208,1.3035
16.0218,1.2805
16.0278,1.2743
16.0278,1.2795
16.0278,1.2902
16.0288,1.2942
16.0349,1.2812
16.0349,1.2582
16.0349,1.2741
16.0349,1.2632
16.0359,1.27
16.0408,1.3221
16.0408,1.2775
16.0418,1.2749
16.0418,1.3604
16.0482,1.3765
16.0482,1.2865
16.0482,1.3002
16.0488,1.2651
16.0488,1.2569
16.0544,1.3439
16.0548,1.2885
16.0548,1.258
16.0548,1.2814
16.0608,1.2884
16.0618,1.3542
16.0618,1.3095
16.0618,1.2878
16.0618,1.4999
16.0678,1.281
16.0678,1.2649
16.0678,1.3017
16.0678,1.2572
16.0688,1.2955
16.0748,1.2964
16.0748,1.2495
16.0748,1.3275
16.0748,1.2707
16.0819,1.2784
16.0819,1.3095
16.0819,1.3504
16.0828,1.3358
16.0828,1.3392
16.0879,1.3277
16.0879,1.3193
16.0879,1.2612
16.0891,1.3084
16.0952,1.2563
16.0952,1.2554
16.0952,1.2522
16.0960,1.2557
16.0960,1.2874
16.1011,1.318
16.1011,1.3272
16.1021,1.3457
16.1021,1.3463
16.1084,1.4237
16.1084,1.4085
16.1092,1.4952
16.1094,1.5964
16.1094,1.5644
16.1212,1.6347
16.1232,1.759
16.1252,1.7564
16.1262,1.7657
16.1262,1.8533
16.1262,1.8209
16.1262,1.8944
16.1272,1.8516
16.1272,1.7339
16.1292,1.6277
16.1292,1.3493
16.1292,1.2932
16.1292,1.3656
16.1292,1.2927
16.1351,1.2649
16.1351,1.2685
16.1351,1.2679
16.1361,1.3465
16.1421,1.3943
16.1421,1.4382
16.1421,1.4303
16.1431,1.3752
16.1431,1.3275
16.1481,1.2921
16.1491,1.276
16.1491,1.3022
16.1491,1.291
16.1551,1.2734
16.1561,1.2677
16.1566,1.4106
16.1571,1.48
16.1571,1.4905
16.1621,1.3785
16.1621,1.3472
16.1621,1.3139
16.1631,1.3407
16.1631,1.4815
16.1691,1.3838
16.1691,1.3562
16.1691,1.318
16.1700,1.3553
16.1763,1.2891
16.1763,1.4307
16.1770,1.3227
16.1770,1.279
16.1770,1.4322
16.1821,1.5377
16.1821,1.5201
16.1831,1.525
16.1831,1.4599
16.1892,1.3827
16.1892,1.4067
16.1902,1.3101
16.1902,1.3349
16.1902,1.2719
16.1952,1.2692
16.1962,1.3437
16.1962,1.3564
16.1962,1.3795
16.2023,1.4436
16.2033,1.3802
16.2033,1.3879
16.2033,1.4513
16.2043,1.3851
16.2093,1.3902
16.2093,1.4102
16.2093,1.4744
16.2093,1.4567
16.2103,1.3941
16.2163,1.3776
16.2163,1.4682
16.2163,1.5107
16.2173,1.5394
16.2236,1.4464
16.2313,1.3349
16.2333,1.3592
16.2333,1.5122
16.2333,1.5615
16.2333,1.5359
16.2343,1.446
16.2343,1.3358
16.2343,1.2767
16.2368,1.2578
16.2368,1.2936
16.2374,1.4779
16.2374,1.5128
16.2374,1.4931
16.2424,1.5366
16.2434,1.4492
16.2434,1.4301
16.2434,1.4633
16.2495,1.5098
16.2505,1.5135
16.2505,1.4442
16.2505,1.4408
16.2505,1.4044
16.2565,1.4185
16.2565,1.3731
16.2565,1.3547
16.2575,1.4462
16.2575,1.4537
16.2651,1.4939
16.2655,1.4665
16.2655,1.4483
16.2655,1.4852
16.2725,1.4843
16.2725,1.3709
16.2725,1.3883
16.2725,1.368
16.2734,1.4039
16.2784,1.3583
16.2784,1.4102
16.2784,1.4389
16.2794,1.5207
16.2854,1.4562
16.2854,1.5443
16.2864,1.5443
16.2864,1.5728
16.2864,1.5469
16.2923,1.5134
16.2924,1.5199
16.2924,1.4415
16.2924,1.521
16.2993,1.5094
16.2994,1.7063
16.2994,1.6883
16.3004,1.5074
16.3004,1.4537
16.3057,1.4749
16.3057,1.5057
16.3057,1.4273
16.3057,1.608
16.3065,1.4584
16.3127,1.4438
16.3127,1.4657
16.3135,1.4151
16.3135,1.4894
16.3199,1.5846
16.3199,1.6202
16.3205,1.6531
16.3205,1.6594
16.3205,1.6369
16.3264,1.6606
16.3264,1.6242
16.3264,1.6426
16.3274,1.6377
16.3344,1.5053
16.3374,1.5409
16.3438,1.5422
16.3454,1.5554
16.3454,1.552
16.3454,1.5278
16.3454,1.5542
16.3454,1.6617
16.3454,1.6827
16.3467,1.6939
16.3467,1.648
16.3467,1.5505
16.3474,1.6092
16.3474,1.5546
16.3524,1.5413
16.3534,1.4869
16.3534,1.546
16.3534,1.4927
16.3544,1.4854
16.3603,1.5737
16.3603,1.5203
16.3603,1.5019
16.3603,1.4819
16.3673,1.6742
16.3673,1.7033
16.3673,1.6928
16.3673,1.5923
16.3683,1.4777
16.3734,1.5062
16.3744,1.4404
16.3744,1.5087
16.3744,1.4507
16.3804,1.5454
16.3804,1.5681
16.3814,1.5887
16.3814,1.5921
16.3814,1.5145
16.3864,1.5164
16.3874,1.5951
16.3874,1.6448
16.3874,1.491
16.3934,1.443
16.3944,1.5164
16.3944,1.4177
16.3944,1.2899
16.3944,1.3885
16.4004,1.6433
16.4004,1.6829
16.4014,1.7337
16.4014,1.5655
16.4014,1.3958
16.4074,1.3977
16.4074,1.3827
16.4084,1.3739
16.4084,1.335
16.4146,1.3763
16.4146,1.3767
16.4155,1.4267
16.4155,1.4635
16.4155,1.4714
16.4206,1.5152
16.4215,1.5488
16.4215,1.5705
16.4215,1.6542
16.4283,1.5597
16.4286,1.554
16.4286,1.512
16.4286,1.486
16.4296,1.5355
16.4346,1.4342
16.4346,1.3139
16.4356,1.3491
16.4356,1.4862
16.4418,1.4965
16.4446,1.5349
16.4526,1.576
16.4536,1.6765
16.4536,1.6017
16.4546,1.5293
16.4546,1.573
16.4552,1.4995
16.4556,1.4601
16.4556,1.4618
16.4556,1.5499
16.4556,1.6129
16.4566,1.6019
16.4566,1.5692
16.4625,1.536
16.4627,1.5445
16.4627,1.6167
16.4627,1.4888
16.4637,1.4279
16.4687,1.4869
16.4692,1.4689
16.4692,1.3806
16.4697,1.4264
16.4759,1.4535
16.4759,1.4496
16.4759,1.545
16.4767,1.4779
16.4767,1.6015
16.4823,1.6482
16.4826,1.6058
16.4826,1.5745
16.4836,1.5749
16.4894,1.5426
16.4896,1.5449
16.4896,1.5321
16.4896,1.4445
16.4906,1.4869
16.4957,1.4689
16.4957,1.4607
16.4957,1.464
16.4957,1.6784
16.4967,1.6114
16.5029,1.6236
16.5029,1.6722
16.5029,1.6167
16.5037,1.6756
16.5098,1.4305
16.5098,1.5895
16.5108,1.5081
16.5108,1.6566
16.5108,1.6011
16.5164,1.4819
16.5169,1.5822
16.5169,1.6409
16.5169,1.6664
16.5230,1.7346
16.5240,1.7517
16.5243,1.8212
16.5243,1.6013
16.5250,1.4445
16.5300,1.3497
16.5300,1.2938
16.5300,1.5882
16.5310,1.5059
16.5371,1.5769
16.5371,1.4967
16.5371,1.5567
16.5381,1.4991
16.5381,1.5432
16.5431,1.5524
16.5431,1.5557
16.5441,1.6546
16.5441,1.6949
16.5441,1.6727
16.5580,1.6107
16.5590,1.6052
16.5600,1.6583
16.5600,1.6726
16.5600,1.6034
16.5600,1.5724
16.5610,1.5874
16.5610,1.6787
16.5610,1.6821
16.5642,1.7346
16.5642,1.6684
16.5642,1.6448
16.5642,1.6681
16.5711,1.6476
16.5711,1.561
16.5711,1.5149
16.5711,1.5362
16.5721,1.614
16.5771,1.5996
16.5771,1.6617
16.5781,1.6135
16.5781,1.6452
16.5845,1.7496
16.5845,1.7689
16.5851,1.687
16.5851,1.7599
16.5851,1.5889
16.5901,1.516
16.5911,1.4948
16.5911,1.3022
16.5911,1.2653
16.5911,1.3485
16.5980,1.5074
16.5980,1.6219
16.5980,1.6305
16.5980,1.7005
16.6050,1.6439
16.6050,1.5696
16.6057,1.6054
16.6060,1.6114
16.6060,1.6671
16.6113,1.6185
16.6113,1.5623
16.6120,1.4929
16.6120,1.5225
16.6180,1.5694
16.6180,1.5914
16.6190,1.611
16.6190,1.6047
16.6190,1.6169
16.6240,1.629
16.6250,1.6345
16.6250,1.6075
16.6250,1.5379
16.6309,1.5542
16.6319,1.5632
16.6319,1.5229
16.6319,1.5143
16.6329,1.5259
16.6379,1.5111
16.6379,1.573
16.6379,1.5604
16.6509,1.5773
16.6509,1.609
16.6519,1.635
16.6519,1.5617
16.6519,1.5509
16.6519,1.5578
16.6529,1.6174
16.6529,1.5546
16.6529,1.5274
16.6539,1.4933
16.6539,1.5807
16.6590,1.5689
16.6641,1.6064
16.6703,1.7089
16.6712,1.7419
16.6712,1.6615
16.6722,1.4316
16.6722,1.488
16.6722,1.3962
16.6732,1.4367
16.6732,1.399
16.6732,1.4547
16.6732,1.5049
16.6742,1.5953
16.6792,1.609
16.6792,1.7929
16.6792,1.8887
16.6792,1.8916
16.6802,1.957
16.6855,2.0414
16.6855,2.1734
16.6862,2.1709
16.6862,2.1132
16.6862,2.1147
16.6926,2.0669
16.6926,2.0168
16.6932,1.9426
16.6932,1.9174
16.6991,1.8029
16.7001,1.6615
16.7001,1.6313
16.7001,1.7018
16.7001,1.6656
16.7061,1.711
16.7061,1.5122
16.7071,1.5953
16.7071,1.6422
16.7131,1.5426
16.7131,1.5655
16.7131,1.6065
16.7141,1.5878
16.7141,1.6131
16.7191,1.6637
16.7191,1.7371
16.7201,1.7727
16.7201,1.8447
16.7261,1.7989
16.7261,1.7116
16.7271,1.621
16.7271,1.4258
16.7271,1.3727
16.7330,1.507
16.7330,1.5222
16.7330,1.3622
16.7330,1.5535
16.7330,1.5293
16.7401,1.5089
16.7401,1.56
16.7401,1.5411
16.7401,1.5642
16.7470,1.663
16.7470,1.7777
16.7470,1.825
16.7480,1.6919
16.7480,1.6326
16.7530,1.5297
16.7540,1.5293
16.7540,1.5854
16.7540,1.6272
16.7600,1.6337
16.7610,1.6088
16.7610,1.6819
16.7610,1.6576
16.7610,1.7185
16.7670,1.7762
16.7670,1.7487
16.7670,1.6191
16.7680,1.7035
16.7744,1.7395
16.7789,1.6249
16.7799,1.5469
16.7809,1.5831
16.7809,1.4852
16.7809,1.434
16.7809,1.6799
16.7819,1.7286
16.7819,1.6823
16.7819,1.6622
16.7869,1.6712
16.7879,1.6167
16.7879,1.7016
16.7879,1.6442
16.7939,1.6917
16.7949,1.6626
16.7949,1.6384
16.7949,1.6491
16.7959,1.6806
16.8009,1.7029
16.8014,1.7787
16.8019,1.8147
16.8019,1.8017
16.8080,1.7376
16.8080,1.6849
16.8088,1.6426
16.8088,1.6609
16.8088,1.6589
16.8138,1.5705
16.8148,1.5585
16.8148,1.5214
16.8148,1.5499
16.8208,1.6064
16.8208,1.6615
16.8218,1.7708
16.8218,1.7136
16.8223,1.7361
16.8278,1.7916
16.8278,1.7018
16.8278,1.7024
16.8278,1.6309
16.8288,1.678
16.8348,1.7671
16.8348,1.7228
16.8348,1.8829
16.8348,1.9178
16.8419,1.8704
16.8419,1.6746
16.8419,1.6334
16.8428,1.4361
