121.3234,1.7447
121.3234,1.4922
121.3234,1.3122
121.3234,1.2495
121.3244,1.2469
121.3244,1.2473
121.3244,1.2608
121.3244,1.4408
121.3314,1.8355
121.3314,1.9324
121.3324,2.3491
121.3324,2.4623
121.3404,2.4383
121.3414,2.2964
121.3414,1.8387
121.3424,1.251
121.3434,1.2497
121.3454,1.2467
121.3454,1.2473
121.3454,1.2889
121.3454,1.3718
121.3454,1.4618
121.3454,1.3399
121.3464,1.5895
121.3464,2.0523
121.3512,2.3146
121.3512,2.3483
121.3522,1.6862
121.3522,1.9937
121.3522,2.0686
121.3582,1.7162
121.3582,1.257
121.3582,1.4168
121.3582,1.6062
121.3582,1.6343
121.3652,1.7809
121.3652,1.8511
121.3652,2.1378
121.3652,2.3515
121.3725,1.9328
121.3725,1.5657
121.3725,1.341
121.3725,1.2518
121.3725,1.248
121.3788,1.2469
121.3788,1.2595
121.3788,1.6894
121.3788,1.8471
121.3861,1.9371
121.3861,2.0114
121.3861,1.6981
121.3861,1.8526
121.3861,2.0142
121.3921,2.0791
121.3921,1.7603
121.3921,1.4757
121.3921,1.4961
121.3991,1.5074
121.3991,1.2514
121.3991,1.2807
121.3991,1.3947
121.4001,1.6851
121.4099,1.9484
121.4109,1.9712
121.4109,2.3129
121.4109,2.4171
121.4109,2.1938
121.4179,1.9519
121.4259,1.7708
121.4269,1.5177
121.4289,1.3911
121.4309,1.2563
121.4378,1.2507
121.4378,1.4822
121.4378,1.4271
121.4399,1.6544
121.4399,1.9208
121.4399,2.2478
121.4399,2.1409
121.4408,2.0693
121.4408,1.7806
121.4408,2.1794
121.4408,1.8227
121.4408,1.626
121.4408,1.6114
121.4418,1.284
121.4418,1.2842
121.4418,1.4927
121.4418,1.7061
121.4464,1.8863
121.4464,1.8942
121.4464,2.2126
121.4464,2.4141
121.4472,2.3727
121.4529,2.4228
121.4529,2.3298
121.4529,1.7828
121.4529,1.6305
121.4529,1.3191
121.4599,1.2522
121.4599,1.2887
121.4599,1.5392
121.4599,1.8391
121.4671,1.9028
121.4671,2.1644
121.4671,2.4933
121.4671,2.5426
121.4671,2.5685
121.4733,2.3684
121.4733,1.9808
121.4733,1.7881
121.4733,1.5522
121.4807,1.2507
121.4807,1.2756
121.4807,1.3658
121.4807,1.8368
121.4807,2.0693
121.4868,2.2084
121.4868,2.4659
121.4868,2.632
121.4868,2.6348
121.4942,2.54
121.4942,2.2883
121.4942,1.6493
121.4942,1.5719
121.4942,1.3125
121.5000,1.2492
121.5000,1.372
121.5000,1.509
121.5000,1.6523
121.5000,1.9291
121.5070,2.4286
121.5070,2.6562
121.5070,2.6616
121.5070,2.6071
121.5141,2.1829
121.5181,1.6887
121.5261,1.5728
121.5341,1.6122
121.5360,1.2501
121.5370,1.2739
121.5370,1.3862
121.5370,1.6645
121.5381,1.8021
121.5381,1.9167
121.5381,2.1447
121.5381,2.5257
121.5391,2.5426
121.5391,2.3119
121.5391,2.0091
121.5391,1.359
121.5401,1.3645
121.5401,1.249
121.5401,1.2464
121.5410,1.2497
121.5410,1.3116
121.5410,1.9028
121.5420,2.1775
121.5470,2.002
121.5470,2.3309
121.5470,2.4573
121.5480,2.4636
121.5480,2.1074
121.5540,1.8059
121.5550,1.702
121.5550,1.2681
121.5550,1.2604
121.5610,1.2552
121.5610,1.2659
121.5620,1.6577
121.5620,1.7792
121.5620,1.9296
121.5679,2.0793
121.5679,2.5765
121.5679,2.4678
121.5679,2.1044
121.5749,1.9036
121.5749,2.101
121.5749,1.7909
121.5749,1.3641
121.5760,1.2567
121.5809,1.2947
121.5809,1.5124
121.5819,1.6907
121.5819,1.7789
121.5879,2.2649
121.5879,2.5238
121.5879,2.5611
121.5879,2.512
121.5889,2.0659
121.5939,1.7305
121.5939,1.789
121.5949,1.3206
121.5949,1.2471
121.5949,1.2501
121.6009,1.4052
121.6019,1.4745
121.6019,1.8518
121.6019,2.1578
121.6088,2.2328
121.6088,2.5752
121.6088,2.5656
121.6099,2.3847
121.6099,2.005
121.6149,1.7012
121.6149,1.7494
121.6158,1.3317
121.6158,1.2479
121.6218,1.2687
121.6218,1.3553
121.6218,1.464
121.6228,1.6375
121.6228,1.7989
121.6298,2.2317
121.6378,2.4454
121.6408,2.5199
121.6408,2.2159
121.6408,1.8822
121.6408,1.5642
121.6408,1.2576
121.6418,1.2467
121.6418,1.248
121.6418,1.2647
121.6418,1.6816
121.6418,1.7871
121.6418,1.9371
121.6427,1.9971
121.6487,2.3939
121.6487,2.278
121.6497,2.0402
121.6497,1.9324
121.6557,1.4631
121.6557,1.4849
121.6557,1.2681
121.6567,1.2471
121.6567,1.2636
121.6627,1.5844
121.6627,1.7869
121.6627,1.9999
121.6627,2.1012
121.6694,2.2373
121.6694,2.2039
121.6694,2.1524
121.6694,1.5449
121.6694,1.4309
121.6760,1.3062
121.6771,1.3615
121.6781,1.2585
121.6781,1.288
121.6845,1.5623
121.6845,2.0279
121.6845,2.1183
121.6845,2.3543
121.6845,2.2956
121.6911,2.1608
121.6911,2.0821
121.6911,1.6996
121.6918,1.4802
121.6918,1.3947
121.6978,1.3326
121.6978,1.3185
121.6978,1.5074
121.6978,1.771
121.7055,2.0577
121.7055,1.8046
121.7055,1.9255
121.7061,2.05
121.7061,2.0892
121.7114,1.8959
121.7124,1.6975
121.7124,1.5179
121.7124,1.305
121.7187,1.2977
121.7187,1.2709
121.7187,1.2627
121.7187,1.5488
121.7195,1.7944
121.7252,1.9624
121.7252,1.8239
121.7252,1.8316
121.7252,1.735
121.7324,1.6469
121.7324,1.7716
121.7324,1.7537
121.7324,1.4952
121.7334,1.2756
121.7408,1.2484
121.7458,1.2569
121.7478,1.4504
121.7478,1.9114
121.7488,2.0198
121.7488,1.9776
121.7488,2.0584
121.7488,2.2026
121.7498,2.0296
121.7528,1.8291
121.7528,1.6566
121.7528,1.3701
121.7528,1.2775
121.7528,1.2662
121.7590,1.3476
121.7590,1.4766
121.7590,1.5955
121.7590,1.8666
121.7656,2.0434
121.7656,1.9776
121.7656,2.1083
121.7666,2.1031
121.7666,1.9628
121.7719,1.8027
121.7727,1.6004
121.7727,1.4828
121.7727,1.4005
121.7796,1.3298
121.7796,1.2968
121.7796,1.4665
121.7796,1.7412
121.7796,1.9011
121.7859,1.9694
121.7859,1.9883
121.7859,2.1441
121.7859,1.9531
121.7859,1.7897
121.7918,1.7699
121.7928,1.6553
121.7928,1.3866
121.7928,1.3005
121.7992,1.2634
121.8002,1.528
121.8002,1.6928
121.8002,1.8696
121.8002,1.8932
121.8065,2.1642
121.8065,2.1687
121.8065,2.0793
121.8065,2.0134
121.8136,1.7663
121.8136,1.4965
121.8146,1.2655
121.8146,1.255
121.8146,1.2499
121.8203,1.2557
121.8203,1.3305
121.8203,1.521
121.8213,1.9831
121.8270,2.0194
121.8270,1.9943
121.8270,2.0543
121.8270,1.9403
121.8277,1.8257
121.8324,1.7376
121.8334,1.4586
121.8334,1.2825
121.8334,1.255
121.8334,1.2777
121.8394,1.5797
121.8404,1.7875
121.8404,1.867
121.8404,1.8119
121.8474,1.8059
121.8484,1.9917
121.8504,1.9064
121.8544,1.636
121.8564,1.4249
121.8564,1.2803
121.8564,1.2546
121.8564,1.2747
121.8573,1.2959
121.8611,1.4487
121.8611,1.7125
121.8611,2.0121
121.8611,1.9634
121.8611,1.9454
121.8672,2.0153
121.8672,1.9806
121.8672,1.8379
121.8672,1.7487
121.8745,1.3202
121.8745,1.2527
121.8745,1.252
121.8745,1.2567
121.8745,1.3598
121.8808,1.6553
121.8808,1.7286
121.8808,1.8574
121.8808,2.0654
121.8818,2.026
121.8877,1.9512
121.8877,1.8091
121.8877,1.5405
121.8877,1.4119
121.8949,1.4024
121.8949,1.3054
121.8949,1.3202
121.8958,1.288
121.8958,1.3686
121.9014,1.8681
121.9014,2.0367
121.9020,2.0116
121.9020,1.9654
121.9086,1.8837
121.9086,1.7614
121.9086,1.6103
121.9093,1.3035
121.9093,1.2629
121.9151,1.2529
121.9151,1.2702
121.9151,1.3594
121.9151,1.5569
121.9215,1.9442
121.9215,2.2362
121.9215,2.4704
121.9225,2.4308
121.9225,2.489
121.9275,2.4415
121.9285,2.0787
121.9285,1.9066
121.9285,1.5865
121.9285,1.4599
121.9345,1.5209
121.9355,1.6512
121.9355,1.6836
121.9355,1.8381
121.9428,1.8709
121.9428,2.0123
121.9428,2.0447
121.9428,2.1882
121.9428,1.9637
121.9491,1.8741
121.9491,2.0228
121.9491,1.5895
121.9491,1.3956
121.9560,1.2719
121.9631,1.2482
121.9660,1.2604
121.9660,1.3529
121.9660,1.5351
121.9660,1.8619
121.9660,1.8672
121.9670,2.0014
121.9670,2.1469
121.9690,1.9268
121.9690,1.8171
121.9690,1.5865
121.9700,1.459
121.9700,1.2587
121.9756,1.2612
121.9756,1.2775
121.9756,1.5932
121.9763,1.8546
121.9763,2.0275
121.9823,2.0779
121.9823,2.1138
121.9833,2.0892
121.9833,2.0239
121.9902,1.8591
121.9906,1.6223
121.9906,1.4228
121.9906,1.2921
121.9906,1.2539
121.9962,1.2927
121.9962,1.467
121.9962,1.383
121.9962,1.5439
122.0035,1.9247
122.0035,1.9294
122.0035,2.0614
122.0045,2.2662
122.0045,2.2536
122.0092,2.1085
122.0092,2.0817
122.0102,1.9952
122.0102,1.3694
122.0167,1.2582
122.0167,1.248
122.0167,1.3124
122.0167,1.5387
122.0167,1.6834
122.0229,1.7346
122.0229,2.1025
122.0229,2.2795
122.0229,2.3189
122.0229,2.2418
122.0299,1.8392
122.0299,1.8171
122.0336,1.6844
122.0336,1.327
122.0374,1.2548
122.0374,1.2696
122.0374,1.3227
122.0374,1.3907
122.0374,1.8323
122.0437,1.9949
122.0437,2.0628
122.0437,2.0742
122.0437,2.0305
122.0508,1.9784
122.0508,1.9341
122.0508,1.6964
122.0508,1.2925
122.0508,1.2525
122.0570,1.2492
122.0570,1.2737
122.0570,1.4119
122.0570,1.5149
122.0640,1.6731
122.0709,1.9879
122.0719,2.047
122.0739,2.1841
122.0739,2.1548
122.0739,2.0573
122.0739,1.7824
122.0739,1.5177
122.0750,1.2887
122.0750,1.2689
122.0770,1.305
122.0770,1.3009
122.0770,1.4811
122.0770,1.6454
122.0845,1.7757
122.0845,2.0267
122.0845,2.2452
122.0852,2.1944
122.0852,2.0492
122.0905,1.9412
122.0905,1.6005
122.0905,1.3086
122.0905,1.2494
122.0981,1.2471
122.0981,1.2945
122.0981,1.3935
122.0981,1.663
122.0981,1.8014
122.1045,2.1749
122.1045,2.2484
122.1045,2.1978
122.1045,2.1029
122.1110,2.101
122.1110,1.8869
122.1115,1.7682
122.1115,1.4931
122.1115,1.2533
122.1178,1.2606
122.1178,1.2777
122.1178,1.3309
122.1178,1.7736
122.1178,1.9553
122.1237,2.2343
122.1247,2.3909
122.1247,2.2339
122.1247,2.1813
122.1319,2.107
122.1319,1.6568
122.1319,1.4031
122.1319,1.2578
122.1319,1.2531
122.1383,1.3806
122.1383,1.474
122.1383,1.6215
122.1383,1.8786
122.1446,2.1184
122.1456,2.2298
122.1456,2.2544
122.1456,2.2581
122.1456,2.1168
122.1510,1.8539
122.1510,1.5514
122.1510,1.2644
122.1518,1.2512
122.1588,1.2831
122.1588,1.3277
122.1588,1.4959
122.1588,1.9849
122.1588,2.1237
122.1651,2.2827
122.1651,2.2977
122.1651,2.1691
122.1651,2.0519
122.1660,1.9426
122.1730,1.5925
122.1740,1.3707
122.1780,1.2959
122.1830,1.3304
122.1850,1.3354
122.1860,1.4436
122.1860,1.5666
122.1860,1.7761
122.1860,2.1496
122.1860,2.2159
122.1860,2.2428
122.1870,2.2268
122.1870,1.9714
122.1927,1.8775
122.1927,1.7067
122.1927,1.372
122.1933,1.249
122.1933,1.2604
122.1987,1.2559
122.1987,1.2687
122.1987,1.8992
122.1997,2.077
122.2060,2.1537
122.2060,2.2375
122.2060,2.0794
122.2060,2.1231
122.2060,2.0087
122.2122,1.6866
122.2122,1.3579
122.2122,1.2495
122.2122,1.2516
122.2122,1.2657
122.2182,1.2865
122.2192,1.4235
122.2192,1.6407
122.2192,2.0875
122.2263,2.3076
122.2271,2.1584
122.2271,1.9006
122.2271,2.0367
122.2281,1.8171
122.2323,1.618
122.2323,1.3457
122.2331,1.2499
122.2331,1.26
122.2398,1.2779
122.2398,1.3564
122.2398,1.6883
122.2398,1.9294
122.2398,2.1451
122.2461,2.3703
122.2461,2.2881
122.2461,2.0734
122.2461,1.996
122.2532,1.8788
122.2532,1.3191
122.2532,1.2494
122.2532,1.2469
122.2540,1.2537
122.2593,1.2762
122.2593,1.4449
122.2593,1.6619
122.2593,2.2304
122.2593,2.2913
122.2663,2.1835
122.2663,2.1565
122.2663,1.9516
122.2663,1.9457
122.2738,1.7661
122.2738,1.4082
122.2738,1.254
122.2738,1.333
122.2738,1.3187
122.2801,1.2655
122.2801,1.3947
122.2801,1.8527
122.2801,2.0956
122.2885,2.2585
122.2925,2.3277
122.2935,2.3236
122.2955,2.1374
122.2955,1.5527
122.2955,1.3019
122.2955,1.2531
122.2955,1.2505
122.2965,1.2608
122.3004,1.2829
122.3004,1.4545
122.3004,1.6703
122.3004,2.1786
122.3004,2.2431
122.3071,2.2827
122.3071,2.0243
122.3077,1.9564
122.3077,1.8216
122.3077,1.5267
122.3136,1.2649
122.3136,1.2514
122.3136,1.2608
122.3136,1.2685
122.3214,1.5134
122.3214,1.6874
122.3214,1.9133
122.3214,2.1565
122.3214,2.1854
122.3270,2.1494
122.3270,2.0172
122.3280,1.9506
122.3280,1.7731
122.3347,1.4663
122.3350,1.2668
122.3350,1.2505
122.3350,1.2542
122.3350,1.2816
122.3404,1.573
122.3404,1.9225
122.3415,2.2193
122.3415,2.2424
122.3484,2.2116
122.3484,2.1766
122.3484,2.0442
122.3484,1.9684
122.3484,1.5068
122.3547,1.2535
122.3547,1.2495
122.3547,1.2584
122.3547,1.3763
122.3547,1.6191
122.3607,1.7631
122.3607,1.9371
122.3617,2.1828
122.3617,2.2519
122.3683,2.1458
122.3683,2.1175
122.3693,2.0296
122.3693,1.8336
122.3693,1.4369
122.3749,1.2471
122.3749,1.2479
122.3749,1.255
122.3749,1.3172
122.3824,1.7209
122.3824,1.921
122.3824,1.9986
122.3824,2.1923
122.3824,2.2088
122.3886,2.0292
122.3886,1.9236
122.3886,1.9045
122.3886,1.5164
122.3959,1.317
122.4009,1.2572
122.4060,1.2668
122.4070,1.2814
122.4080,1.4271
122.4090,1.5902
122.4090,2.1226
122.4090,2.2594
122.4090,2.2308
122.4090,2.2564
122.4101,2.0688
122.4101,1.798
122.4101,1.4425
122.4101,1.2462
122.4177,1.2503
122.4177,1.2902
122.4177,1.3727
122.4177,1.6656
122.4177,2.0869
122.4242,2.1179
122.4242,2.3734
122.4242,2.3288
122.4242,2.2564
122.4307,2.1241
122.4307,1.7957
122.4307,1.6114
122.4317,1.2929
122.4317,1.2584
122.4373,1.2914
122.4373,1.3335
122.4373,1.4753
122.4373,1.7335
122.4449,2.1012
122.4449,2.2189
122.4449,2.326
122.4449,2.1601
122.4449,1.9906
122.4511,1.9244
122.4511,1.7736
122.4511,1.267
122.4511,1.2516
122.4511,1.254
122.4572,1.2739
122.4572,1.3883
122.4582,1.5342
122.4583,1.8327
122.4647,1.9778
122.4647,2.0536
122.4647,2.0763
122.4647,2.2191
122.4647,2.1456
122.4709,1.6969
122.4709,1.492
122.4709,1.2595
122.4709,1.2569
122.4779,1.275
122.4779,1.3572
122.4779,1.5302
122.4779,1.9
122.4789,2.0907
122.4842,2.2675
122.4849,2.3303
122.4849,2.0654
122.4849,1.9943
122.4921,1.9156
122.4922,1.6729
122.4922,1.2591
122.4922,1.2499
122.4922,1.2503
122.4981,1.2649
122.4981,1.4757
122.4981,1.6669
122.4981,1.9071
122.4981,2.0764
122.5082,2.4111
122.5123,2.3363
122.5143,2.1882
122.5143,2.1098
122.5143,1.8812
122.5143,1.5499
122.5143,1.2726
122.5154,1.2467
122.5154,1.2494
122.5187,1.2509
122.5187,1.2555
122.5187,1.5164
122.5187,1.8359
122.5261,2.2193
122.5261,2.2285
122.5261,1.9592
122.5261,1.84
122.5261,1.9009
122.5321,1.9219
122.5321,1.54
122.5331,1.281
122.5341,1.2775
122.5395,1.3289
122.5395,1.4918
122.5395,1.6802
122.5395,1.8827
122.5395,2.3434
122.5459,2.3862
122.5459,2.2932
122.5459,2.1119
122.5459,1.9621
122.5459,1.6952
122.5521,1.5897
122.5521,1.3255
122.5521,1.2522
122.5531,1.264
122.5600,1.2822
122.5600,1.7939
122.5600,2.0241
122.5600,2.0191
122.5600,2.0982
122.5660,1.9313
122.5660,1.8826
122.5660,1.8524
122.5660,1.7764
122.5736,1.5025
122.5736,1.266
122.5736,1.2473
122.5736,1.2471
122.5736,1.2557
122.5799,1.3082
122.5799,1.482
122.5799,1.8096
122.5799,1.9416
122.5869,2.0746
122.5869,2.0674
122.5874,2.4183
122.5874,2.4846
122.5874,2.0639
122.5929,2.0294
122.5929,1.7736
122.5929,1.6531
122.5929,1.6804
122.5929,1.7357
122.6000,2.1604
122.6000,2.3243
122.6000,2.525
122.6000,2.5896
122.6076,2.5514
122.6076,2.3598
122.6076,2.1867
122.6076,1.9131
122.6085,1.7054
122.6158,1.4702
122.6209,1.3412
122.6229,1.378
122.6239,1.4504
122.6239,1.3523
122.6239,1.4586
122.6239,1.6816
122.6249,1.8203
122.6250,2.0303
122.6274,2.0305
122.6274,1.9064
122.6274,1.8186
122.6274,1.7402
122.6343,1.2621
122.6353,1.2469
122.6353,1.2471
122.6353,1.2544
122.6353,1.2794
122.6406,1.4085
122.6406,1.5503
122.6406,1.7549
122.6406,2.0264
122.6406,2.1243
122.6476,2.1316
122.6476,2.0269
122.6476,1.9609
122.6476,1.7386
122.6551,1.5334
122.6551,1.2574
122.6551,1.2645
122.6551,1.2713
122.6559,1.3679
122.6615,1.7866
122.6615,1.9975
122.6615,2.1672
122.6615,2.3408
122.6686,2.2429
122.6686,2.1233
122.6686,2.0136
122.6686,1.8649
122.6686,1.5617
122.6746,1.441
122.6746,1.3281
122.6746,1.2612
122.6746,1.2627
122.6820,1.3435
122.6830,1.5437
122.6840,1.9936
122.6840,2.1488
122.6840,2.1854
122.6884,2.1218
122.6884,1.9587
122.6884,1.8222
122.6884,1.611
122.6884,1.2518
122.6944,1.2473
122.6944,1.2501
122.6954,1.2587
122.6954,1.4196
122.7020,1.5987
122.7020,1.8302
122.7020,1.9864
122.7030,2.1638
122.7030,1.9898
122.7087,1.8353
122.7087,1.981
122.7087,1.8074
122.7094,1.5788
122.7156,1.3009
122.7156,1.2953
122.7156,1.3517
122.7156,1.4354
122.7166,1.5649
122.7246,1.9733
122.7306,2.1908
122.7316,2.3719
122.7326,2.3718
122.7326,2.2287
122.7326,2.176
122.7326,2.0357
122.7326,1.8002
122.7326,1.2509
122.7356,1.2486
122.7356,1.2486
122.7366,1.2475
122.7366,1.3144
122.7366,1.512
122.7416,1.7607
122.7426,1.9581
122.7426,2.1173
122.7426,2.1124
122.7490,2.0755
122.7500,1.9636
122.7500,1.6296
122.7500,1.3377
122.7500,1.2531
122.7561,1.251
122.7561,1.279
122.7561,1.32
122.7561,1.4999
122.7629,1.6579
122.7629,2.0479
122.7629,2.1736
122.7629,2.2313
122.7629,1.9255
122.7690,1.8085
122.7690,1.6675
122.7690,1.4657
122.7690,1.2657
122.7766,1.2805
122.7766,1.311
122.7766,1.3802
122.7772,1.6806
122.7772,1.7414
122.7825,1.8392
122.7825,2.0399
122.7825,2.3532
122.7835,2.5814
122.7835,2.5898
122.7895,2.5467
122.7895,1.7226
122.7895,1.4438
122.7895,1.2749
122.7971,1.2486
122.7971,1.2516
122.7971,1.254
122.7971,1.4325
122.7971,1.6547
122.8034,2.0429
122.8034,2.2248
122.8034,2.2904
122.8034,2.092
122.8098,1.9763
122.8108,1.9238
122.8108,1.6821
122.8108,1.2599
122.8118,1.252
122.8168,1.2576
122.8168,1.2865
122.8168,1.4637
122.8168,1.7007
122.8238,1.9195
122.8240,2.1385
122.8240,2.3268
122.8240,2.2098
122.8240,2.1809
122.8340,2.0916
122.8390,1.7078
122.8410,1.5319
122.8430,1.2816
122.8430,1.2525
122.8430,1.3864
122.8430,1.4168
122.8430,1.4504
122.8440,1.6043
122.8440,1.9139
122.8440,2.1756
122.8440,2.5025
122.8440,2.4171
122.8440,2.2488
122.8503,1.9026
122.8503,1.5741
122.8503,1.2499
122.8503,1.2467
122.8577,1.2467
122.8577,1.2499
122.8577,1.4834
122.8577,1.7335
122.8577,1.9328
122.8640,2.0616
122.8640,2.2846
122.8640,2.1376
122.8640,2.0982
122.8712,2.0121
122.8712,1.7438
122.8712,1.4766
122.8712,1.2589
122.8712,1.248
122.8774,1.257
122.8774,1.2786
122.8774,1.4057
122.8774,1.5792
122.8774,1.9726
122.8834,2.1438
122.8844,2.1826
122.8844,2.125
122.8844,2.0217
122.8913,1.9534
122.8913,1.6981
122.8913,1.2679
122.8913,1.2569
122.8913,1.2745
122.8973,1.3056
122.8973,1.4755
122.8973,1.546
122.8973,1.6881
122.9043,1.9405
122.9043,1.9516
122.9043,1.7933
122.9043,1.7236
122.9053,1.6277
122.9113,1.6411
122.9113,1.5651
122.9113,1.275
122.9113,1.2473
122.9185,1.2544
122.9185,1.2657
122.9185,1.4168
122.9185,2.0011
122.9185,2.0551
122.9246,2.1854
122.9246,2.2707
122.9246,2.116
122.9246,2.0748
122.9246,1.9647
122.9307,1.6585
122.9307,1.2696
122.9318,1.2615
122.9318,1.2561
122.9378,1.2726
122.9409,1.4162
122.9459,1.5899
122.9500,1.8552
122.9520,2.0611
122.9520,2.2741
122.9530,2.2759
122.9530,2.1841
122.9530,2.0515
122.9530,1.8587
122.9530,1.7108
122.9530,1.4174
122.9540,1.2659
122.9540,1.303
122.9587,1.2782
122.9587,1.3197
122.9587,1.5908
122.9587,1.8179
122.9656,1.9906
122.9659,2.0549
122.9659,2.0772
122.9659,2.0294
122.9669,1.8469
122.9718,1.5829
122.9718,1.2475
122.9718,1.2464
122.9718,1.2464
122.9718,1.2482
122.9779,1.5422
122.9789,1.6424
122.9789,1.8059
122.9789,1.9857
122.9864,2.1816
122.9864,2.2519
122.9864,2.1338
122.9864,2.0911
122.9864,1.8811
122.9928,1.629
122.9928,1.3482
122.9928,1.2552
122.9928,1.2902
122.9993,1.3225
122.9993,1.5045
122.9993,1.9159
122.9993,2.131
122.9993,2.2958
123.0053,2.3853
123.0053,2.482
123.0053,2.464
123.0063,2.3335
123.0130,2.0811
123.0130,1.2617
123.0130,1.2464
123.0130,1.2465
123.0130,1.2467
123.0181,1.2674
123.0191,1.4226
123.0191,1.6825
123.0191,1.9954
123.0201,2.1741
123.0253,2.1931
123.0253,2.1053
123.0263,2.0097
123.0263,1.7221
123.0335,1.5323
123.0335,1.3377
123.0335,1.2479
123.0335,1.254
123.0335,1.2597
123.0393,1.2869
123.0393,1.6851
123.0393,1.8561
123.0393,2.254
123.0471,2.3849
123.0481,2.1496
123.0531,1.9705
123.0581,1.9013
123.0612,1.795
123.0612,1.3343
123.0612,1.2668
123.0612,1.2595
123.0612,1.2889
123.0612,1.4194
123.0612,1.5857
123.0623,1.8271
123.0623,2.0335
123.0623,2.3836
123.0655,2.4657
123.0665,2.5025
123.0665,2.3054
123.0665,2.0834
123.0665,1.5447
123.0727,1.2782
123.0727,1.249
123.0737,1.2497
123.0737,1.2807
123.0811,1.3084
123.0812,1.5902
123.0812,1.8291
123.0812,1.9988
123.0812,2.1464
123.0867,2.1865
123.0867,2.0357
123.0867,1.8878
123.0867,1.7687
123.0941,1.341
123.0941,1.2509
123.0941,1.2484
123.0941,1.2584
123.0941,1.3045
123.1004,1.4781
123.1004,1.6581
123.1004,1.9052
123.1004,2.2075
123.1076,2.2141
123.1080,2.0738
123.1080,1.7029
123.1080,1.5145
123.1080,1.4449
123.1135,1.4927
123.1135,1.2741
123.1135,1.3214
123.1135,1.2968
123.1135,1.5338
123.1206,1.8486
123.1206,2.1233
123.1206,2.3547
123.1206,2.4211
123.1278,2.2443
123.1278,2.2503
123.1278,2.2551
123.1278,2.0187
123.1278,1.3997
123.1343,1.2552
123.1343,1.2518
123.1343,1.2529
123.1343,1.2719
123.1432,1.3405
123.1432,2.1389
123.1432,2.3189
123.1432,2.3056
123.1432,2.0331
123.1487,1.9043
123.1487,1.7483
123.1487,1.6058
123.1498,1.2525
123.1566,1.2522
123.1586,1.2644
123.1637,1.2752
123.1698,1.3103
123.1709,1.5758
123.1719,1.8788
123.1719,2.0491
123.1719,2.1179
123.1719,1.9996
123.1719,1.9084
123.1719,1.7215
123.1730,1.4708
123.1730,1.3236
123.1730,1.2482
123.1772,1.3416
123.1772,1.375
123.1772,1.3712
123.1772,1.4063
123.1772,1.9838
123.1831,2.0643
123.1831,2.1987
123.1831,2.4008
123.1831,2.1558
123.1903,2.0689
123.1903,1.9577
123.1903,1.6474
123.1903,1.2719
123.1903,1.2544
123.1968,1.2895
123.1968,1.3748
123.1968,1.4145
123.1968,1.5687
123.2039,1.9396
123.2039,2.2579
123.2039,2.2651
123.2039,2.1535
123.2039,2.1205
123.2103,1.9493
123.2103,1.8162
123.2103,1.498
123.2103,1.2546
123.2103,1.2501
123.2164,1.2497
123.2174,1.2567
123.2174,1.3118
123.2174,1.7937
123.2247,2.0854
123.2247,2.2984
123.2247,2.1244
123.2247,2.0759
123.2247,1.9557
123.2301,1.8214
123.2311,1.2942
123.2311,1.2475
123.2311,1.2471
123.2380,1.248
123.2380,1.2861
123.2380,1.4445
123.2380,1.6379
123.2380,1.8434
123.2443,2.2776
123.2443,2.4863
123.2443,2.3905
123.2443,2.0956
123.2508,2.1503
123.2515,1.9799
123.2515,1.8556
123.2515,1.6092
123.2515,1.5653
123.2576,1.5569
123.2576,1.5642
123.2576,2.1884
123.2576,2.2791
123.2576,2.5098
123.2646,2.4987
123.2646,2.4501
123.2676,2.3009
123.2756,2.1786
123.2766,1.9917
123.2786,1.5518
123.2786,1.2522
123.2786,1.2469
123.2796,1.2497
123.2796,1.2574
123.2796,1.3542
123.2796,1.5415
123.2796,1.9594
123.2856,2.1331
123.2856,2.2019
123.2856,2.1623
123.2856,1.9748
123.2856,1.8136
123.2915,1.5904
123.2915,1.3665
123.2915,1.249
123.2915,1.2501
123.2988,1.2576
123.2988,1.2705
123.2988,1.4205
123.2998,1.7371
123.2998,2.0929
123.3052,2.284
123.3052,2.3084
123.3052,2.1393
123.3052,1.9501
123.3052,1.8422
123.3112,1.3634
123.3112,1.252
123.3122,1.2574
123.3122,1.2591
123.3188,1.3244
123.3188,1.4685
123.3188,1.5505
123.3188,2.0138
123.3188,2.2264
123.3255,2.2728
123.3255,2.2518
123.3255,2.0022
123.3262,1.9202
123.3322,1.69
123.3322,1.4935
123.3322,1.2484
123.3322,1.2499
123.3322,1.266
123.3388,1.3107
123.3388,1.6928
123.3388,1.9367
123.3388,2.1033
123.3461,2.2413
123.3461,2.1773
123.3461,2.1008
123.3461,1.9922
123.3471,1.9255
123.3520,1.4496
123.3520,1.2782
123.3529,1.255
123.3529,1.2572
123.3529,1.2859
123.3589,1.3279
123.3589,1.4412
123.3589,1.7307
123.3599,2.0721
123.3664,2.2189
123.3664,2.2926
123.3672,2.1801
123.3672,2.1252
123.3672,1.942
123.3727,1.6024
123.3735,1.2544
123.3735,1.2561
123.3735,1.2824
123.3844,1.2949
123.3905,1.5715
123.3905,1.7474
123.3924,2.0117
123.3934,2.1229
123.3934,2.1304
123.3934,2.0258
123.3934,1.8722
123.3934,1.7007
123.3944,1.6637
123.3944,1.318
123.3944,1.2554
123.3954,1.2719
123.3954,1.2608
123.3994,1.4502
123.3994,1.6637
123.3994,2.0057
123.3994,2.1987
123.4004,2.218
123.4064,2.134
123.4064,2.0318
123.4064,1.8473
123.4064,1.6896
123.4138,1.3189
123.4138,1.3013
123.4138,1.2554
123.4138,1.2572
123.4138,1.2597
123.4197,1.5306
123.4197,1.8428
123.4197,2.0065
123.4197,1.9832
123.4272,2.0914
123.4272,2.1858
123.4272,2.0918
123.4272,2.0706
123.4272,1.7037
123.4331,1.3635
123.4331,1.2514
123.4331,1.2492
123.4331,1.2651
123.4406,1.3585
123.4406,1.5124
123.4406,2.092
123.4406,2.3029
123.4406,2.3524
123.4467,2.3592
123.4467,2.0883
123.4467,2.0138
123.4467,1.9564
123.4467,1.7524
123.4537,1.2621
123.4537,1.251
123.4537,1.2606
123.4537,1.3568
123.4611,1.5409
123.4611,1.7858
123.4611,1.9772
123.4611,2.1531
123.4611,2.2197
123.4670,2.161
123.4670,2.0772
123.4678,1.8366
123.4678,1.6396
123.4746,1.332
123.4746,1.2617
123.4746,1.2522
123.4746,1.2653
123.4746,1.3275
123.4808,1.5565
123.4808,2.0446
123.4808,2.2182
123.4808,2.3648
123.4878,2.2729
123.4918,2.1773
123.4968,1.9864
123.4988,1.846
123.4988,1.4419
123.4988,1.2825
123.4988,1.2801
123.4998,1.4204
123.4998,1.4877
123.4998,1.4912
123.5009,1.6862
123.5009,2.0785
123.5009,2.2782
123.5020,2.3281
123.5087,2.3011
123.5087,2.0941
123.5087,1.7254
123.5087,1.4391
123.5087,1.3337
123.5148,1.2475
123.5148,1.2484
123.5148,1.2492
123.5158,1.273
123.5221,1.7601
123.5221,1.9677
123.5221,2.1318
123.5221,2.1934
123.5221,2.1273
123.5281,1.9309
123.5281,1.8597
123.5281,1.7806
123.5281,1.3011
123.5354,1.2525
123.5354,1.2499
123.5354,1.254
123.5354,1.3176
123.5354,1.3553
123.5418,1.4657
123.5418,1.7824
123.5418,2.2133
123.5418,2.3264
123.5418,2.2737
123.5479,2.0378
123.5479,1.8467
123.5479,1.6328
123.5489,1.3977
123.5552,1.2587
123.5552,1.3272
123.5562,1.3847
123.5562,1.429
123.5562,1.7987
123.5620,1.936
123.5620,2.1066
123.5620,2.1625
123.5627,2.0943
123.5688,1.9915
123.5688,1.9088
123.5688,1.7663
123.5688,1.3124
123.5688,1.2475
123.5755,1.2471
123.5755,1.2542
123.5755,1.3433
123.5763,1.4798
123.5823,1.6583
123.5823,1.8439
123.5823,2.0956
123.5823,2.0961
123.5823,2.0594
123.5888,2.05
123.5888,1.6696
123.5888,1.3795
123.5888,1.3851
123.5888,1.2818
123.5968,1.3037
123.6009,1.2705
123.6060,1.4245
123.6080,1.7387
123.6080,1.9043
123.6080,2.0419
123.6090,2.2075
123.6090,2.1458
123.6090,2.0952
123.6090,2.0194
123.6090,1.9097
123.6090,1.4639
123.6090,1.269
123.6157,1.2509
123.6157,1.261
123.6167,1.2792
123.6167,1.4804
123.6167,1.7942
123.6228,1.9954
123.6228,2.2304
123.6228,2.1479
123.6228,2.0401
123.6297,1.9626
123.6297,1.7896
123.6297,1.6024
123.6297,1.4627
123.6297,1.2465
123.6361,1.248
123.6361,1.2492
123.6361,1.2542
123.6361,1.3836
123.6370,1.4819
123.6422,1.6427
123.6422,1.8826
123.6432,2.5321
123.6432,2.308
123.6503,2.1589
123.6503,2.1061
123.6503,1.4886
123.6503,1.2576
123.6503,1.2494
123.6566,1.2525
123.6570,1.3791
123.6570,1.4751
123.6570,1.6988
123.6637,1.9476
123.6637,2.3476
123.6637,2.3359
123.6637,2.2443
123.6637,2.1291
123.6698,1.9322
123.6698,1.7264
123.6698,1.489
123.6698,1.2604
123.6770,1.2503
123.6770,1.2599
123.6770,1.2944
123.6770,1.4734
123.6770,1.8334
123.6831,2.0667
123.6841,2.1469
123.6852,2.0326
123.6852,1.9746
123.6852,2.0237
123.6892,1.9772
123.6902,1.4689
123.6902,1.2593
123.6902,1.2477
123.6974,1.2469
123.6974,1.2942
123.6974,1.3847
123.6974,1.6165
123.6974,1.7312
123.7044,2.2186
123.7074,2.2319
123.7144,2.2654
123.7164,2.2071
123.7184,2.0057
123.7193,1.8458
123.7193,1.524
123.7193,1.2634
123.7193,1.2499
123.7193,1.2749
123.7193,1.3699
123.7193,1.5284
123.7203,1.9124
123.7241,2.0838
123.7241,2.0973
123.7241,2.1019
123.7241,2.0226
123.7241,1.9461
123.7306,1.7331
123.7306,1.3735
123.7306,1.2484
123.7306,1.2497
123.7306,1.2962
123.7367,1.3049
123.7367,1.4708
123.7377,1.7479
123.7377,1.9699
123.7448,2.0689
123.7452,2.104
123.7452,2.0716
123.7452,2.1096
123.7452,1.8017
123.7510,1.7824
123.7510,1.6247
123.7510,1.3755
123.7510,1.2499
123.7577,1.2625
123.7577,1.2732
123.7577,1.5319
123.7577,1.9257
123.7585,2.0673
123.7642,2.2683
123.7642,2.3093
123.7642,2.1509
123.7642,2.0444
123.7714,1.9461
123.7714,1.4513
123.7714,1.2539
123.7714,1.2469
123.7723,1.248
123.7778,1.3229
123.7778,1.3845
123.7778,1.4672
123.7778,1.5758
123.7778,2.1569
123.7839,2.3568
123.7839,2.1989
123.7849,2.2088
123.7849,1.8895
123.7920,1.8006
123.7920,1.4164
123.7920,1.2542
123.7920,1.2484
123.7920,1.2533
123.7984,1.2614
123.7984,1.2814
123.7984,1.7326
123.7984,1.9752
123.8055,2.1256
123.8059,2.2341
123.8059,2.1646
123.8059,2.0545
123.8059,1.8882
123.8115,1.3572
123.8155,1.2531
123.8186,1.2484
123.8227,1.2492
123.8237,1.2887
123.8257,1.3634
123.8257,1.5769
123.8257,1.843
123.8266,2.1771
123.8266,2.1293
123.8266,2.2189
123.8266,2.2011
123.8266,1.9062
123.8266,1.6726
123.8317,1.4924
123.8317,1.2602
123.8317,1.2473
123.8317,1.2479
123.8395,1.2555
123.8395,1.3609
123.8395,1.6859
123.8395,1.9757
123.8395,2.1788
123.8453,2.1921
123.8453,2.1143
123.8453,2.0273
123.8453,1.7483
123.8527,1.3412
123.8527,1.2728
123.8527,1.2606
123.8527,1.2499
123.8527,1.2792
123.8585,1.4243
123.8585,1.5857
123.8585,1.7477
123.8585,2.2474
123.8678,2.2928
123.8678,2.188
123.8678,2.0899
123.8678,1.9677
123.8678,1.48
123.8733,1.2467
123.8733,1.2467
123.8733,1.2512
123.8743,1.2597
123.8743,1.4624
123.8804,1.6129
123.8804,1.8908
123.8804,2.1083
123.8804,2.11
123.8872,2.0399
123.8882,1.9439
123.8882,1.6917
123.8882,1.5184
123.8882,1.2917
123.8942,1.2486
123.8942,1.2539
123.8942,1.2728
123.8942,1.4115
123.9017,1.5531
123.9017,2.1156
123.9017,2.2793
123.9017,2.2703
123.9017,2.2773
123.9077,2.2073
123.9077,2.4141
123.9077,2.3219
123.9084,2.1859
123.9152,1.6247
123.9152,1.5059
123.9152,1.7352
123.9162,1.7461
123.9162,1.6328
123.9216,1.7652
123.9236,1.9816
123.9288,2.3571
123.9338,2.3028
123.9349,2.1569
123.9359,1.9169
123.9359,1.6919
123.9359,1.5308
123.9369,1.3167
123.9369,1.2494
123.9369,1.2494
123.9369,1.2525
123.9369,1.2715
123.9369,1.342
123.9418,1.8121
123.9418,2.0474
123.9418,2.2311
123.9418,2.1711
123.9488,2.0258
123.9488,1.8842
123.9488,1.8126
123.9498,1.3589
123.9498,1.2544
123.9554,1.2479
123.9554,1.2501
123.9554,1.2709
123.9554,1.4119
123.9625,1.5411
123.9629,1.5602
123.9629,1.7022
123.9629,1.6011
123.9629,1.9
123.9685,2.2146
123.9685,2.1501
123.9685,1.9047
123.9685,1.5655
123.9685,1.2797
123.9756,1.2687
123.9756,1.2668
123.9756,1.2992
123.9756,1.7408
123.9825,2.2109
123.9825,2.2754
123.9835,2.2165
123.9835,2.1158
123.9835,2.0671
123.9891,2.0031
123.9891,1.8196
123.9891,1.3322
123.9899,1.2555
123.9963,1.2492
123.9963,1.251
123.9963,1.2964
123.9963,1.4852
123.9963,1.7134
124.0026,2.0153
124.0026,2.2514
124.0026,2.2988
124.0026,2.1923
124.0095,1.8852
124.0095,1.7826
124.0095,1.6022
124.0095,1.3579
124.0095,1.2488
124.0151,1.252
124.0160,1.2593
124.0160,1.359
124.0160,1.7033
124.0160,1.9088
124.0232,2.1306
124.0232,2.2411
124.0232,1.9737
124.0232,1.885
124.0303,1.7849
124.0320,1.4018
124.0371,1.3465
124.0422,1.2516
124.0432,1.2525
124.0452,1.2925
124.0452,1.3545
124.0452,1.3665
124.0452,1.7761
124.0462,2.1914
124.0463,2.3363
124.0463,2.3864
124.0463,2.359
124.0463,1.9146
124.0498,1.8171
124.0498,1.7157
124.0498,1.267
124.0498,1.2512
124.0573,1.2525
124.0574,1.2516
124.0574,1.4667
124.0574,1.5951
124.0574,1.8589
124.0635,2.1286
124.0635,2.2639
124.0635,2.1766
124.0635,2.1143
124.0635,1.9909
124.0696,1.7314
124.0706,1.4577
124.0706,1.257
124.0706,1.249
124.0780,1.2602
124.0780,1.3178
124.0780,1.5428
124.0780,1.8764
124.0780,2.1018
124.0844,2.2579
124.0844,2.2733
124.0844,2.1346
124.0844,1.9096
124.0915,1.8625
124.0918,1.7151
124.0918,1.2494
124.0918,1.2464
124.0918,1.2464
124.0971,1.252
124.0971,1.3677
124.0971,1.8387
124.0982,2.0327
124.1048,2.4828
124.1048,2.5593
124.1048,2.3939
124.1048,2.2298
124.1048,2.1991
124.1113,1.927
124.1113,1.6729
124.1113,1.2953
124.1113,1.3034
124.1113,1.2837
124.1172,1.2981
124.1182,1.6405
124.1182,1.912
124.1182,2.1734
124.1253,2.3472
124.1253,2.3369
124.1253,2.1353
124.1253,2.0791
124.1253,1.9996
124.1318,1.5655
124.1318,1.2589
124.1318,1.2492
124.1318,1.2542
124.1389,1.3917
124.1389,1.5184
124.1389,1.7144
124.1389,2.1689
124.1389,2.2977
124.1461,2.2951
124.1521,2.248
124.1531,1.9966
124.1531,1.9227
124.1542,1.672
124.1542,1.3992
124.1542,1.2662
124.1542,1.2602
124.1542,1.2585
124.1587,1.3247
124.1587,1.6973
124.1593,1.8342
124.1593,1.9144
124.1593,2.1681
124.1654,2.2666
124.1654,2.3361
124.1654,2.1128
124.1664,1.7656
124.1728,1.5059
124.1728,1.2737
124.1728,1.2529
124.1728,1.3337
124.1728,1.2848
124.1794,1.3855
124.1794,1.5705
124.1794,2.0356
124.1802,2.1168
124.1865,2.1824
124.1865,2.2309
124.1865,1.9596
124.1865,1.867
124.1865,1.7123
124.1923,1.2585
124.1923,1.2482
124.1923,1.248
124.1923,1.2524
124.1997,1.3517
124.1997,1.6009
124.1997,1.7931
124.1997,2.0348
124.1997,2.242
124.2062,2.2088
124.2062,2.0247
124.2069,1.8886
124.2069,1.5462
124.2069,1.3094
124.2128,1.2497
124.2128,1.2522
124.2128,1.2477
124.2128,1.2484
124.2204,1.3765
124.2204,1.7759
124.2204,1.8861
124.2204,2.101
124.2204,2.3226
124.2268,2.2068
124.2268,2.0929
124.2268,2.0988
124.2268,1.9412
124.2332,1.2846
124.2332,1.2495
124.2332,1.2484
124.2342,1.2608
124.2342,1.4149
124.2398,1.6341
124.2398,1.8166
124.2398,1.9756
124.2398,2.1355
124.2473,2.1548
124.2473,2.1081
124.2473,1.9501
124.2473,1.8012
124.2473,1.5218
124.2573,1.266
124.2643,1.2486
124.2653,1.2627
124.2673,1.2617
124.2673,1.3007
124.2682,1.693
124.2682,1.8826
124.2682,2.1256
124.2682,2.2921
124.2682,2.1252
124.2692,2.0485
124.2692,2.0104
124.2692,1.4539
124.2692,1.2657
124.2743,1.248
124.2743,1.2479
124.2753,1.2516
124.2753,1.2799
124.2809,1.4595
124.2809,1.8042
124.2809,1.9866
124.2817,2.2467
124.2817,2.3125
124.2877,2.2829
124.2877,1.9474
124.2877,1.7588
124.2877,1.623
124.2949,1.2675
124.2949,1.2499
124.2949,1.261
124.2949,1.329
124.2949,1.7963
124.3011,2.0247
124.3011,2.1833
124.3011,2.1886
124.3011,2.3367
124.3011,2.1811
124.3072,1.9611
124.3072,1.8724
124.3082,1.5932
124.3082,1.3165
124.3154,1.2533
124.3154,1.249
124.3154,1.2512
124.3154,1.3054
124.3164,1.5649
124.3218,1.9729
124.3218,2.1079
124.3218,2.2113
124.3218,2.215
124.3282,1.9902
124.3282,1.8884
124.3282,1.8621
124.3292,1.5865
124.3292,1.2494
124.3349,1.2475
124.3349,1.2492
124.3349,1.3735
124.3349,1.3262
124.3423,1.4749
124.3423,1.8314
124.3423,2.2407
124.3423,2.3073
124.3431,2.3112
124.3486,2.2846
124.3486,2.0052
124.3486,1.8966
124.3486,1.4355
124.3494,1.2531
124.3554,1.2587
124.3554,1.2642
124.3554,1.276
124.3554,1.7281
124.3650,2.0547
124.3709,2.1616
124.3729,2.3076
124.3729,2.2369
124.3729,2.1582
124.3729,1.9825
124.3739,1.8169
124.3739,1.3405
124.3739,1.2578
124.3761,1.2524
124.3769,1.2557
124.3769,1.3746
124.3769,1.477
124.3779,1.6872
124.3821,2.1366
124.3821,2.2923
124.3821,2.3277
124.3831,2.2439
124.3896,1.9896
124.3896,1.9152
124.3906,1.6574
124.3906,1.3682
124.3906,1.2505
124.3956,1.254
124.3956,1.2595
124.3956,1.2662
124.3966,1.4033
124.3966,1.6022
124.4026,1.9952
124.4026,2.2279
124.4036,2.1132
124.4036,2.4203
124.4105,2.3718
124.4108,1.6412
124.4108,1.4564
124.4108,1.2597
124.4108,1.2473
124.4168,1.3917
124.4168,1.5079
124.4168,1.6994
124.4168,1.7862
124.4238,2.1259
124.4238,2.3187
124.4238,2.2819
124.4238,2.0511
124.4246,2.0016
124.4299,1.8535
124.4299,1.626
124.4299,1.2657
124.4299,1.2595
124.4373,1.2578
124.4373,1.2629
124.4373,1.4627
124.4373,1.7097
124.4373,1.9131
124.4437,2.0234
124.4437,2.2317
124.4437,2.0879
124.4437,1.9626
124.4437,1.9741
124.4497,1.7397
124.4497,1.3986
124.4507,1.2484
124.4507,1.2482
124.4574,1.2542
124.4574,1.285
124.4574,1.4262
124.4574,1.7404
124.4574,1.9101
124.4637,1.9772
124.4637,2.0791
124.4637,2.2139
124.4644,1.9116
124.4734,1.8672
124.4794,1.7052
124.4794,1.2945
124.4833,1.2514
124.4833,1.2591
124.4833,1.2799
124.4833,1.5542
124.4833,1.6465
124.4843,1.9127
124.4843,2.152
124.4843,2.2619
124.4843,2.164
124.4843,2.0901
124.4843,1.7792
124.4907,1.6416
124.4907,1.429
124.4907,1.2587
124.4907,1.2512
124.4907,1.2544
124.4977,1.3227
124.4977,1.4999
124.4977,1.8676
124.4977,2.1012
124.5052,2.2491
124.5052,2.3571
124.5052,2.1608
124.5052,2.0138
124.5052,1.9111
124.5114,1.7084
124.5114,1.2544
124.5114,1.2484
124.5114,1.2509
124.5174,1.2544
124.5184,1.4427
124.5184,1.6381
124.5184,1.7922
124.5194,1.8169
124.5247,1.6169
124.5247,1.4984
124.5247,1.7183
124.5247,1.8505
124.5317,1.6307
124.5317,1.5156
124.5317,1.3159
124.5317,1.3497
124.5327,1.4609
124.5382,1.5398
124.5382,1.7438
124.5382,2.2486
124.5382,2.4726
124.5390,2.5936
124.5450,2.6144
124.5450,2.5621
124.5450,2.4631
124.5450,2.4147
124.5525,2.2141
124.5525,1.5284
124.5525,1.3742
124.5525,1.3124
124.5525,1.3206
124.5587,1.5192
124.5587,1.7273
124.5587,1.8906
124.5587,2.1929
124.5647,2.2339
124.5657,2.2167
124.5657,2.1357
124.5657,1.9024
124.5657,1.6652
124.5719,1.4397
124.5719,1.2525
124.5719,1.2501
124.5719,1.2542
124.5789,1.2602
124.5799,1.3898
124.5849,1.7198
124.5909,1.903
124.5929,2.1591
124.5929,2.1141
124.5939,2.0117
124.5939,1.846
124.5939,1.6853
124.5939,1.312
124.5939,1.2525
124.5939,1.2505
124.5939,1.2499
124.5949,1.2563
124.6009,1.6669
124.6009,1.8634
124.6009,2.0973
124.6009,2.2793
124.6016,2.4443
124.6074,2.2343
124.6074,2.0952
124.6074,1.7689
124.6074,1.462
124.6144,1.2548
124.6144,1.2505
124.6144,1.2634
124.6144,1.3004
124.6144,1.6787
124.6212,1.8709
124.6212,2.0701
124.6212,2.2705
124.6212,2.3489
124.6284,2.1775
124.6284,2.0041
124.6284,1.9392
124.6284,1.5347
124.6284,1.2752
124.6345,1.2537
124.6345,1.2494
124.6345,1.2668
124.6345,1.3394
124.6345,1.5038
124.6405,1.9281
124.6415,2.1415
124.6415,2.2467
124.6415,2.1966
124.6485,1.9135
124.6485,1.7826
124.6485,1.7759
124.6485,1.6883
124.6485,1.2467
124.6550,1.2479
124.6550,1.2584
124.6550,1.2655
124.6558,1.5698
124.6622,1.8216
124.6622,2.1595
124.6622,2.1526
124.6622,2.0575
124.6622,2.0344
124.6684,1.9982
124.6684,1.9471
124.6684,1.5936
124.6684,1.3405
124.6755,1.2589
124.6755,1.2629
124.6755,1.2964
124.6755,1.3169
124.6755,1.5149
124.6812,2.0091
124.6822,2.1822
124.6822,2.2598
124.6822,2.2433
124.6832,2.0277
124.6902,1.9763
124.6983,1.852
124.7034,1.6114
124.7054,1.248
124.7054,1.2479
124.7064,1.2505
124.7064,1.2525
124.7064,1.4539
124.7064,1.6572
124.7064,1.7854
124.7064,1.9992
124.7064,2.2309
124.7074,2.0603
124.7095,2.0037
124.7095,1.8816
124.7095,1.524
124.7095,1.2683
124.7095,1.251
124.7153,1.3011
124.7153,1.3043
124.7162,1.368
124.7162,1.5539
124.7230,2.0609
124.7230,2.2034
124.7230,2.3011
124.7230,2.2521
124.7230,2.0209
124.7293,2.0046
124.7293,1.9193
124.7293,1.3347
124.7293,1.2529
124.7293,1.2494
124.7354,1.2555
124.7354,1.282
124.7364,1.4295
124.7364,1.5728
124.7437,1.8301
124.7437,2.2714
124.7437,2.3397
124.7437,2.3063
124.7437,2.2066
124.7495,1.8456
124.7495,1.6172
124.7495,1.3907
124.7495,1.261
124.7571,1.266
124.7571,1.2659
124.7571,1.3202
124.7571,1.629
124.7571,1.9857
124.7633,2.1837
124.7633,2.2964
124.7633,2.2591
124.7633,2.0725
124.7705,1.9054
124.7705,1.8025
124.7705,1.362
124.7705,1.2775
124.7705,1.2977
124.7762,1.3326
124.7762,1.2657
124.7762,1.4639
124.7772,1.723
124.7772,2.0866
124.7833,2.1578
124.7833,2.2199
124.7843,2.0007
124.7843,1.8072
124.7909,1.6891
124.7909,1.501
124.7909,1.3455
124.7909,1.2509
124.7909,1.2591
124.7993,1.3418
124.8013,1.3427
124.8064,1.6452
124.8125,1.8661
124.8166,2.0519
124.8166,2.1957
124.8166,2.1119
124.8176,2.1141
124.8176,1.9981
124.8176,1.6589
124.8176,1.3236
124.8176,1.2497
124.8176,1.2469
124.8176,1.2552
124.8186,1.2809
124.8186,1.4359
124.8186,1.6516
124.8186,1.9234
124.8243,1.9015
124.8243,2.0243
124.8243,1.9019
124.8250,1.7303
124.8250,1.6022
124.8311,1.524
124.8311,1.3362
124.8311,1.3934
124.8311,1.3382
124.8386,1.3725
124.8386,1.344
124.8386,1.6264
124.8386,1.8587
124.8386,2.0406
124.8445,2.134
124.8445,1.9881
124.8445,1.8096
124.8445,1.7249
124.8518,1.4751
124.8518,1.2887
124.8518,1.2471
124.8518,1.2473
124.8518,1.2576
124.8582,1.2923
124.8582,1.4654
124.8582,1.7387
124.8582,1.8874
124.8653,2.0914
124.8656,2.1873
124.8656,2.0718
124.8656,1.9804
124.8656,1.7417
124.8718,1.5447
124.8718,1.2552
124.8718,1.2475
124.8718,1.2473
124.8718,1.2636
124.8778,1.4847
124.8778,1.5975
124.8788,1.7892
124.8788,1.9437
124.8858,1.9714
124.8858,2.1884
124.8858,2.1524
124.8868,1.8411
124.8868,1.632
124.8922,1.3489
124.8922,1.2512
124.8922,1.2632
124.8930,1.2765
124.8986,1.3373
124.8986,1.4721
124.8996,1.7847
124.8996,2.0427
124.8996,2.0408
124.9057,2.0153
124.9057,2.0275
124.9057,1.948
124.9057,2.0434
124.9142,1.5362
124.9202,1.258
124.9212,1.248
124.9232,1.2524
124.9232,1.2827
124.9232,1.3675
124.9232,1.6763
124.9242,1.9099
124.9242,2.2413
124.9242,2.3329
124.9253,2.1876
124.9253,2.0477
124.9253,1.8302
124.9263,1.5756
124.9329,1.4234
124.9329,1.2762
124.9329,1.2507
124.9329,1.2509
124.9329,1.3335
124.9395,1.4894
124.9395,1.723
124.9395,1.9594
124.9395,2.1263
124.9468,2.2021
124.9468,2.0266
124.9468,1.915
124.9468,1.7931
124.9468,1.4687
124.9527,1.2524
124.9527,1.2479
124.9527,1.248
124.9527,1.2587
124.9600,1.4631
124.9600,1.8072
124.9600,1.9396
124.9600,2.1953
124.9600,2.3667
124.9661,2.3528
124.9661,2.2086
124.9661,1.9474
124.9661,1.7029
124.9661,1.4672
124.9722,1.2584
124.9732,1.2499
124.9732,1.2666
124.9732,1.2951
124.9805,1.4282
124.9805,1.7161
124.9805,1.8899
124.9805,2.1093
124.9805,2.2516
124.9864,2.1687
124.9864,2.1042
124.9864,1.9313
124.9864,1.4207
124.9936,1.2762
124.9936,1.2486
124.9946,1.2505
124.9946,1.2945
124.9946,1.317
125.0001,1.398
125.0001,1.6088
125.0006,2.1869
125.0006,2.1901
125.0073,2.2587
125.0073,2.3258
125.0073,2.0684
125.0073,1.8023
125.0073,1.5512
125.0136,1.3094
125.0136,1.2561
125.0136,1.3
125.0136,1.375
125.0136,1.5312
125.0237,1.9386
125.0308,2.0991
125.0328,2.0931
125.0338,2.1559
125.0338,2.0684
125.0338,1.9939
125.0338,1.8647
125.0338,1.4712
125.0338,1.264
125.0348,1.2488
125.0348,1.2494
125.0348,1.2644
125.0348,1.3596
125.0411,1.5218
125.0411,1.738
125.0411,2.2746
125.0411,2.26
125.0411,2.2135
125.0475,2.0969
125.0475,1.7571
125.0475,1.5544
125.0475,1.3159
125.0541,1.252
125.0541,1.2465
125.0541,1.252
125.0541,1.2539
125.0541,1.272
125.0606,1.8595
125.0606,2.1601
125.0606,2.3007
125.0606,2.3554
125.0606,2.2401
125.0667,2.0538
125.0677,1.9156
125.0677,1.6602
125.0677,1.2957
125.0750,1.2719
125.0750,1.2567
125.0750,1.2655
125.0750,1.3442
125.0750,1.5083
125.0812,1.7367
125.0812,2.1368
125.0812,2.242
125.0822,2.2437
125.0886,2.0669
125.0886,1.9231
125.0886,1.7356
125.0886,1.521
125.0886,1.2831
125.0936,1.2479
125.0936,1.2524
125.0946,1.2713
125.0946,1.5559
125.1017,1.7322
125.1017,1.9576
125.1017,2.1783
125.1017,2.3427
125.1017,2.1756
125.1081,1.9896
125.1081,1.8584
125.1081,1.458
125.1081,1.2719
125.1089,1.2473
125.1140,1.2467
125.1149,1.2685
125.1149,1.2998
125.1149,1.4074
125.1223,1.6065
125.1223,1.8773
125.1223,2.1477
125.1223,2.2536
125.1223,2.2114
125.1326,2.0014
125.1366,1.8347
125.1376,1.6504
125.1396,1.2555
125.1396,1.2542
125.1396,1.2524
125.1396,1.2627
125.1396,1.4609
125.1396,1.7526
125.1417,1.9609
125.1417,2.0894
125.1417,2.1996
125.1427,2.0254
125.1485,2.0331
125.1489,1.9949
125.1489,1.8694
125.1489,1.6182
125.1489,1.4429
125.1553,1.4149
125.1553,1.6005
125.1553,1.7644
125.1553,1.8057
125.1563,1.9047
125.1613,2.498
125.1623,2.537
125.1623,2.4991
125.1623,2.1649
125.1688,2.0048
125.1698,1.7661
125.1698,1.4427
125.1698,1.2488
125.1698,1.2539
125.1757,1.2829
125.1760,1.3767
125.1760,1.7429
125.1760,1.8299
125.1828,2.0532
125.1828,2.1942
125.1828,2.164
125.1828,2.1173
125.1828,1.9686
125.1889,1.7971
125.1889,1.5045
125.1889,1.3056
125.1889,1.248
125.1964,1.2482
125.1964,1.263
125.1964,1.3049
125.1964,1.5051
125.1964,1.7219
125.2018,2.0909
125.2028,2.2167
125.2028,2.2358
125.2028,2.0721
125.2028,1.9624
125.2087,1.7909
125.2087,1.5927
125.2097,1.2509
125.2097,1.2477
125.2168,1.2479
125.2168,1.2548
125.2168,1.5754
125.2168,1.7704
125.2168,1.861
125.2232,2.1556
125.2232,2.1601
125.2232,2.1175
125.2240,2.1381
125.2294,1.9086
125.2305,1.7054
125.2305,1.4175
125.2305,1.2602
125.2305,1.2531
125.2359,1.2906
125.2387,1.3724
125.2437,1.5231
125.2497,1.7247
125.2517,2.0594
125.2517,2.2019
125.2517,2.1841
125.2517,2.0481
125.2527,1.9231
125.2527,1.7646
125.2527,1.6337
125.2527,1.2533
125.2527,1.2484
125.2527,1.254
125.2567,1.2782
125.2567,1.4781
125.2567,1.6981
125.2567,1.8912
125.2630,2.1321
125.2640,2.3084
125.2640,2.2456
125.2640,2.1666
125.2640,1.9193
125.2700,1.5257
125.2700,1.2857
125.2700,1.2484
125.2710,1.248
125.2770,1.2522
125.2770,1.3499
125.2770,1.6125
125.2780,1.7406
125.2780,2.2518
125.2830,2.4199
125.2830,2.3988
125.2840,2.1003
125.2840,1.9754
125.2900,1.9176
125.2900,1.8259
125.2900,1.2674
125.2910,1.2524
125.2910,1.2737
125.2969,1.314
125.2969,1.5512
125.2969,1.7425
125.2979,1.8797
125.2979,2.0466
125.3039,2.2414
125.3039,2.2251
125.3039,2.1715
125.3039,2.0644
125.3109,1.7322
125.3109,1.4969
125.3109,1.2749
125.3109,1.258
125.3119,1.2979
125.3169,1.3523
125.3169,1.4712
125.3179,1.7041
125.3179,2.0676
125.3259,2.1104
125.3259,2.0776
125.3259,1.8404
125.3269,1.8841
125.3269,1.4475
125.3318,1.2767
125.3328,1.3
125.3328,1.269
125.3328,1.3399
125.3388,1.5045
125.3398,1.7361
125.3398,1.8872
125.3398,2.3836
125.3398,2.4134
125.3458,2.3676
125.3458,2.2188
125.3458,1.9144
125.3468,1.7912
125.3488,1.6365
125.3598,1.2623
125.3688,1.2711
125.3707,1.2831
125.3707,1.4179
125.3717,1.7712
125.3737,1.9669
125.3747,2.1634
125.3747,2.3258
125.3747,2.2148
125.3757,2.1098
125.3757,2.0189
125.3757,1.9384
125.3757,1.4955
125.3767,1.269
125.3767,1.2557
125.3767,1.2548
125.3777,1.4179
125.3777,1.554
125.3797,1.7545
125.3797,1.9844
125.3797,2.158
125.3807,2.3166
125.3867,2.2268
125.3867,2.1411
125.3867,1.9127
125.3877,1.7294
125.3877,1.8301
125.3927,1.2597
125.3937,1.2664
125.3937,1.3647
125.3937,1.4678
125.3937,1.6337
125.4007,1.7922
125.4007,2.0843
125.4017,2.2358
125.4017,2.2216
125.4076,2.1704
125.4076,2.161
125.4076,1.7386
125.4076,1.5323
125.4086,1.2876
125.4136,1.2503
125.4136,1.2606
125.4146,1.3084
125.4146,1.4061
125.4206,1.6221
125.4206,2.1149
125.4217,2.2782
125.4217,2.2647
125.4217,2.149
125.4271,2.0219
125.4271,1.984
125.4281,1.759
125.4281,1.2527
125.4341,1.2479
125.4341,1.248
125.4341,1.2486
125.4351,1.381
125.4351,1.4775
125.4401,1.6999
125.4411,1.8454
125.4411,2.3131
125.4411,2.2135
125.4411,2.0562
125.4481,1.9086
125.4481,1.7839
125.4481,1.6238
125.4491,1.3011
125.4551,1.2495
125.4580,1.2645
125.4660,1.3032
125.4750,1.3939
125.4770,1.5077
125.4790,1.9261
125.4800,2.1091
125.4800,2.1726
125.4800,2.1634
125.4800,2.0725
125.4810,1.9037
125.4810,1.7059
125.4810,1.4942
125.4820,1.2495
125.4820,1.248
125.4820,1.2524
125.4820,1.3469
125.4830,1.4985
125.4830,1.729
125.4840,1.9861
125.4840,2.1708
125.4840,2.1469
125.4840,2.0719
125.4880,1.9731
125.4880,1.5773
125.4880,1.4633
125.4890,1.2912
125.4890,1.2587
125.4949,1.2625
125.4949,1.2955
125.4949,1.4245
125.4959,1.47
125.5019,1.8989
125.5019,2.1434
125.5029,2.245
125.5029,2.3091
125.5039,1.9748
125.5079,1.9491
125.5089,1.7459
125.5089,1.4159
125.5099,1.2649
125.5149,1.2599
125.5159,1.2662
125.5159,1.3553
125.5169,1.5413
125.5169,1.735
125.5219,1.9352
125.5219,2.2336
125.5219,2.2519
125.5229,2.1563
125.5289,2.047
125.5289,1.7524
125.5289,1.5859
125.5289,1.3517
125.5299,1.2525
125.5348,1.2512
125.5348,1.2764
125.5358,1.3684
125.5358,1.5284
125.5358,1.9596
125.5418,2.1576
125.5418,2.209
125.5428,2.2336
125.5428,1.9924
125.5488,1.9422
125.5498,1.7761
125.5498,1.3148
125.5498,1.2512
125.5498,1.249
125.5558,1.2704
125.5558,1.2996
125.5558,1.3919
125.5558,1.4873
125.5628,1.8377
125.5628,2.1374
125.5628,2.1263
125.5628,2.2189
125.5638,2.2004
125.5723,1.9328
125.5723,1.6334
125.5723,1.3874
125.5723,1.2599
125.5723,1.2775
125.5879,1.3279
125.5879,1.4153
125.5879,1.5692
125.5879,1.8953
125.5879,2.1153
125.5879,2.2512
125.5879,2.1942
125.5879,2.0628
125.5879,1.9592
125.5879,1.8143
125.5879,1.3521
125.5879,1.2668
125.5879,1.2552
125.5879,1.2569
125.5879,1.3079
125.5879,1.473
125.5879,1.7185
125.5879,1.9804
125.6035,2.2264
125.6035,2.1417
125.6035,2.0763
125.6035,1.9645
125.6035,1.8308
125.6035,1.5925
125.6035,1.362
125.6035,1.2499
125.6035,1.3234
125.6035,1.3369
125.6192,1.3769
125.6192,1.522
125.6192,1.9579
125.6192,2.1903
125.6192,2.3029
125.6192,2.2846
125.6192,2.2864
125.6192,2.0823
125.6293,1.963
125.6303,1.4007
125.6303,1.2597
125.6303,1.2527
125.6303,1.2758
125.6368,1.3315
125.6368,1.5364
125.6378,1.7063
125.6378,2.0613
125.6438,2.1612
125.6438,2.1768
125.6448,2.0824
125.6448,1.9129
125.6448,1.8104
125.6498,1.6315
125.6508,1.4543
125.6508,1.251
125.6508,1.2535
125.6568,1.2557
125.6578,1.3167
125.6578,1.6223
125.6578,1.8827
125.6588,2.0506
125.6638,2.0838
125.6638,1.8109
125.6648,1.8136
125.6648,1.7665
125.6707,1.8938
125.6707,1.3967
125.6717,1.2589
125.6717,1.2537
125.6717,1.2649
125.6767,1.2938
125.6777,1.4322
125.6777,1.558
125.6777,2.1102
125.6787,2.2428
125.6877,2.2433
125.6927,2.0579
125.7036,1.9604
125.7056,1.9742
125.7086,1.7596
125.7096,1.2563
125.7096,1.2497
125.7096,1.2542
125.7096,1.2666
125.7106,1.4099
125.7106,1.5334
125.7106,1.8053
125.7106,2.1402
125.7116,2.2364
125.7116,2.0884
125.7116,1.9718
125.7116,1.7641
125.7126,1.555
125.7126,1.3611
125.7126,1.2529
125.7126,1.2527
125.7136,1.258
125.7186,1.2737
125.7186,1.3002
125.7186,1.9414
125.7186,2.0665
125.7196,2.3674
125.7246,2.2681
125.7246,1.8991
125.7256,1.7147
125.7256,1.7886
125.7256,1.5417
125.7316,1.273
125.7326,1.2576
125.7326,1.2574
125.7326,1.2953
125.7386,1.4509
125.7396,1.6148
125.7396,1.8467
125.7396,2.1775
125.7396,2.1929
125.7455,2.0866
125.7455,2.0056
125.7455,1.7738
125.7465,1.6328
125.7525,1.4447
125.7525,1.254
125.7525,1.3056
125.7535,1.4397
125.7535,1.6446
125.7585,1.9169
125.7585,2.0716
125.7595,2.2675
125.7595,2.4211
125.7655,2.5615
125.7665,2.5178
125.7665,2.3046
125.7665,2.2199
125.7665,1.8209
125.7725,1.5447
125.7725,1.345
125.7725,1.2587
125.7725,1.2867
125.7735,1.3675
125.7794,1.7701
125.7794,1.9002
125.7794,2.2051
125.7804,2.371
125.7864,2.3159
125.7864,2.2424
125.7874,2.0588
125.7874,1.7601
125.7874,1.4672
125.7924,1.2516
125.7934,1.2537
125.7974,1.2655
125.8054,1.4172
125.8094,1.596
125.8094,1.7798
125.8094,1.9718
125.8094,2.2514
125.8104,2.2259
125.8104,2.1449
125.8104,1.969
125.8104,1.7309
125.8114,1.5379
125.8173,1.2955
125.8173,1.2524
125.8173,1.2717
125.8183,1.3011
125.8183,1.4202
125.8233,1.7181
125.8253,1.8156
125.8283,2.0052
125.8283,2.1824
125.8283,2.1132
125.8283,1.957
125.8293,1.7269
125.8293,1.558
125.8293,1.2482
125.8343,1.2467
125.8343,1.2469
125.8343,1.251
125.8353,1.2587
125.8353,1.3649
125.8403,1.7228
125.8403,2.3256
125.8413,2.3787
125.8413,2.1998
125.8473,1.9791
125.8473,2.1089
125.8483,1.8274
125.8493,1.5105
125.8493,1.2709
125.8532,1.2484
125.8542,1.2627
125.8542,1.2728
125.8542,1.4224
125.8602,1.9334
125.8612,2.0873
125.8612,2.1471
125.8612,2.3031
125.8622,2.3159
125.8672,2.1809
125.8672,2.0725
125.8682,1.4243
125.8682,1.2492
125.8682,1.2467
125.8742,1.2477
125.8742,1.269
125.8752,1.3735
125.8752,1.603
125.8812,1.7753
125.8822,2.1477
125.8822,2.2294
125.8822,2.1972
125.8822,2.0234
125.8882,1.8927
125.8882,1.6622
125.8882,1.3534
125.8882,1.2464
125.8951,1.2467
125.8951,1.251
125.8951,1.2689
125.8961,1.497
125.8961,1.7219
125.9011,1.8923
125.9011,2.1351
125.9021,2.3391
125.9021,2.4214
125.9081,2.1233
125.9231,1.8509
125.9241,1.4946
125.9271,1.2996
125.9271,1.2707
125.9280,1.4837
125.9280,1.6382
125.9280,1.8961
125.9290,2.0901
125.9290,2.1576
125.9290,1.984
125.9300,1.9382
125.9300,1.9056
125.9300,1.9634
125.9300,1.8801
125.9310,1.6639
125.9310,1.45
125.9310,1.2505
125.9320,1.2482
125.9350,1.2531
125.9360,1.4376
125.9360,1.4785
125.9360,1.6574
125.9420,1.936
125.9430,2.2158
125.9430,2.1781
125.9430,2.1306
125.9440,1.9936
125.9490,1.591
125.9490,1.3547
125.9500,1.258
125.9500,1.2512
125.9560,1.2525
125.9560,1.2794
125.9560,1.4871
125.9570,1.9686
125.9570,2.062
125.9620,2.1784
125.9620,2.3344
125.9630,2.3123
125.9630,2.2302
125.9630,2.0894
125.9689,1.8951
125.9699,1.3924
125.9699,1.3097
125.9699,1.2726
125.9759,1.252
125.9769,1.4007
125.9769,1.6052
125.9769,1.8012
125.9779,2.2529
125.9829,2.3185
125.9829,2.2701
125.9839,2.1786
125.9839,2.0087
125.9899,1.9079
125.9899,1.7014
125.9909,1.4436
125.9909,1.2501
125.9909,1.2795
125.9959,1.3547
125.9969,1.509
125.9969,1.7821
125.9969,2.0112
126.0028,2.1792
126.0038,2.3607
126.0038,2.2548
126.0038,2.1018
126.0048,2.0603
126.0098,1.6596
126.0098,1.3028
126.0098,1.2477
126.0108,1.2464
126.0108,1.2464
126.0188,1.251
126.0268,1.4084
126.0353,1.816
126.0373,2.2214
126.0393,2.3354
126.0403,2.3948
126.0403,2.3793
126.0403,1.9793
126.0403,1.7693
126.0413,1.6182
126.0413,1.2614
126.0413,1.252
126.0413,1.2546
126.0423,1.3095
126.0423,1.5524
126.0423,1.7123
126.0423,1.9227
126.0433,2.0751
126.0433,2.2578
126.0443,2.0918
126.0443,2.0179
126.0443,1.9354
126.0525,1.5726
126.0525,1.3007
126.0535,1.2509
126.0535,1.2473
126.0535,1.3155
126.0585,1.4954
126.0594,1.9782
126.0594,2.1826
126.0594,2.3976
126.0594,2.4385
126.0664,2.1458
126.0664,2.0266
126.0664,1.8235
126.0674,1.279
126.0734,1.2467
126.0734,1.2464
126.0734,1.2465
126.0734,1.2522
126.0744,1.2662
126.0794,1.2968
126.0794,1.6956
126.0804,2.1646
126.0804,2.2379
126.0864,2.1846
126.0864,2.182
126.0874,1.9589
126.0874,1.6416
126.0874,1.4425
126.0924,1.2996
126.0934,1.249
126.0934,1.2698
126.0934,1.4367
126.0993,1.7474
126.1003,1.9163
126.1003,2.1601
126.1003,2.2527
126.1013,2.1451
126.1063,2.1051
126.1063,2.0009
126.1063,1.8642
126.1073,1.3669
126.1073,1.2497
126.1133,1.2479
126.1133,1.254
126.1143,1.2848
126.1143,1.6427
126.1203,1.8362
126.1203,2.1364
126.1213,2.2548
126.1213,2.2476
126.1213,2.1031
126.1293,1.9607
126.1352,1.8565
126.1382,1.6577
126.1456,1.3986
126.1468,1.2473
126.1468,1.248
126.1468,1.2525
126.1468,1.2743
126.1468,1.5465
126.1468,1.7237
126.1468,1.861
126.1468,2.0937
126.1468,2.2917
126.1468,2.1402
126.1468,1.8449
126.1468,1.7301
126.1468,1.4384
126.1468,1.2494
126.1468,1.2469
126.1468,1.273
126.1468,1.5179
126.1468,1.5874
126.1468,1.8284
126.1468,2.1873
126.1468,2.32
126.1468,2.3944
126.1468,2.2555
126.1629,1.9844
126.1629,1.9499
126.1629,1.8299
126.1629,1.4775
126.1629,1.3039
126.1629,1.2569
126.1629,1.3107
126.1629,1.384
126.1629,1.5113
126.1813,1.7479
126.1813,1.9846
126.1813,1.9651
126.1827,1.9291
126.1832,1.9943
126.1878,1.9647
126.1884,1.6774
126.1888,1.417
126.1891,1.2527
126.1946,1.2469
126.1946,1.2589
126.1956,1.3125
126.1956,1.4314
126.1956,1.5488
126.2005,2.0204
126.2015,2.2416
126.2015,2.2686
126.2015,1.9465
126.2015,1.7519
126.2085,1.6484
126.2085,1.411
126.2085,1.2484
126.2085,1.2475
126.2155,1.2518
126.2155,1.2893
126.2155,1.6189
126.2165,1.8171
126.2165,1.9191
126.2215,2.2075
126.2215,2.4505
126.2225,2.3958
126.2225,2.2711
126.2285,2.2846
126.2285,1.8683
126.2295,1.6774
126.2295,1.3238
126.2295,1.2726
126.2344,1.333
126.2354,1.3793
126.2354,1.416
126.2354,1.7333
126.2464,1.9467
126.2504,2.1623
126.2554,2.2735
126.2594,2.1318
126.2594,1.9244
126.2604,1.7845
126.2604,1.6279
126.2604,1.2572
126.2604,1.248
126.2614,1.2469
126.2614,1.2471
126.2614,1.315
126.2624,1.6114
126.2624,1.822
126.2624,2.1173
126.2624,2.1543
126.2634,2.2405
126.2634,2.2439
126.2634,2.1094
126.2684,1.7492
126.2694,1.4864
126.2694,1.2734
126.2694,1.2597
126.2753,1.2653
126.2763,1.4177
126.2763,1.6411
126.2763,2.0757
126.2773,2.2231
126.2823,2.1724
126.2823,2.2804
126.2833,2.0926
126.2833,2.0102
126.2893,1.7305
126.2893,1.5464
126.2893,1.2509
126.2903,1.2467
126.2903,1.2464
126.2953,1.251
126.2963,1.3547
126.2963,1.5049
126.2963,1.6831
126.2963,1.9103
126.3023,2.1661
126.3033,2.1661
126.3033,2.0553
126.3033,1.9349
126.3092,1.7089
126.3102,1.3806
126.3102,1.2516
126.3112,1.2467
126.3112,1.2477
126.3162,1.2477
126.3162,1.402
126.3162,1.8194
126.3172,2.1091
126.3232,2.3069
126.3232,2.35
126.3232,2.2113
126.3242,2.2073
126.3242,2.1766
126.3285,2.0012
126.3285,1.3154
126.3285,1.2477
126.3285,1.2469
126.3364,1.2486
126.3364,1.3229
126.3374,1.516
126.3374,1.6829
126.3374,1.9114
126.3424,2.1799
126.3434,2.1889
126.3434,2.1243
126.3434,1.9619
126.3444,1.8454
126.3564,1.567
126.3653,1.2677
126.3673,1.2462
126.3703,1.2465
126.3703,1.2469
126.3703,1.3504
126.3703,1.6433
126.3713,1.9349
126.3713,2.1044
126.3713,2.2521
126.3713,2.335
126.3723,2.1222
126.3723,2.1138
126.3723,1.9812
126.3723,1.759
126.3733,1.6426
126.3733,1.5966
126.3733,1.8308
126.3773,1.9531
126.3773,1.9876
126.3773,2.1149
126.3773,2.4246
126.3843,2.4514
126.3843,2.543
126.3843,2.4612
126.3853,2.2109
126.3853,1.8964
126.3903,1.605
126.3903,1.2499
126.3913,1.2475
126.3913,1.2516
126.3913,1.2591
126.3973,1.4699
126.3983,1.7039
126.3983,1.9171
126.3983,2.0834
126.4052,2.1327
126.4052,2.0823
126.4052,1.9954
126.4052,1.8649
126.4062,1.4783
126.4112,1.2649
126.4112,1.2465
126.4112,1.2479
126.4122,1.2501
126.4182,1.267
126.4182,1.5205
126.4192,2.041
126.4192,2.1878
126.4192,2.2969
126.4242,2.3119
126.4252,2.0774
126.4252,1.8964
126.4252,1.7211
126.4312,1.5449
126.4322,1.2497
126.4322,1.2488
126.4322,1.2518
126.4322,1.2914
126.4381,1.4847
126.4381,1.7312
126.4381,1.9101
126.4391,2.2158
126.4391,2.2163
126.4451,2.1258
126.4451,2.1014
126.4461,1.7597
126.4461,1.5023
126.4521,1.2762
126.4521,1.2469
126.4551,1.2482
126.4571,1.2479
126.4641,1.2685
126.4671,1.7024
126.4750,1.8479
126.4770,2.0868
126.4770,2.1031
126.4780,2.0875
126.4780,2.1074
126.4790,2.0663
126.4790,1.9471
126.4790,1.3124
126.4800,1.2503
126.4800,1.2484
126.4800,1.2595
126.4810,1.3285
126.4810,1.5267
126.4820,1.6849
126.4820,2.1119
126.4830,2.1946
126.4830,2.2368
126.4850,2.1831
126.4860,1.9339
126.4860,1.8653
126.4860,1.6427
126.4870,1.3898
126.4930,1.2486
126.4930,1.2527
126.4930,1.2668
126.4940,1.3902
126.5000,1.783
126.5000,2.0671
126.5010,2.3258
126.5010,2.3089
126.5010,2.146
126.5060,2.0371
126.5060,1.8237
126.5070,1.398
126.5070,1.2576
126.5129,1.2467
126.5129,1.2464
126.5139,1.2464
126.5139,1.2469
126.5139,1.2591
126.5189,1.5304
126.5199,1.9529
126.5199,2.2392
126.5199,2.3249
126.5269,2.3211
126.5269,2.2701
126.5269,1.9896
126.5279,1.7339
126.5279,1.4179
126.5329,1.2484
126.5329,1.2544
126.5329,1.273
126.5339,1.3521
126.5339,1.609
126.5399,1.8561
126.5399,2.0997
126.5409,2.2338
126.5409,2.1554
126.5469,2.0926
126.5469,2.0331
126.5479,1.7723
126.5479,1.536
126.5479,1.32
126.5528,1.2867
126.5538,1.2743
126.5538,1.2574
126.5538,1.2816
126.5598,1.3793
126.5608,1.822
126.5608,1.9512
126.5608,2.0222
126.5608,2.0618
126.5728,2.0956
126.5758,2.0042
126.5818,1.726
126.5828,1.3551
126.5857,1.2471
126.5857,1.252
126.5857,1.3022
126.5867,1.3585
126.5867,1.8469
126.5867,2.0594
126.5867,2.1715
126.5877,2.2803
126.5877,2.2366
126.5877,2.1604
126.5877,2.0834
126.5877,1.747
126.5887,1.4796
126.5887,1.2713
126.5937,1.2576
126.5947,1.2779
126.5947,1.3632
126.5947,1.5985
126.5957,1.7933
126.6007,2.2219
126.6007,2.2549
126.6007,2.2806
126.6017,2.3116
126.6077,2.0016
126.6077,1.8265
126.6077,1.651
126.6087,1.4524
126.6087,1.248
126.6137,1.2514
126.6137,1.2552
126.6147,1.2582
126.6147,1.4689
126.6207,1.7551
126.6217,2.0386
126.6217,2.1145
126.6217,2.1957
126.6217,2.2139
126.6276,2.1646
126.6276,1.7809
126.6276,1.5615
126.6276,1.2902
126.6286,1.2512
126.6346,1.2724
126.6346,1.3347
126.6346,1.458
126.6356,1.5619
126.6416,1.9339
126.6416,2.1458
126.6426,2.2718
126.6426,2.2696
126.6426,2.0506
126.6476,2.0121
126.6486,1.7239
126.6486,1.4282
126.6486,1.248
126.6546,1.2467
126.6546,1.2467
126.6556,1.2475
126.6556,1.3587
126.6556,1.48
126.6615,1.8053
126.6615,2.1293
126.6615,2.2026
126.6615,2.2579
126.6675,2.0914
126.6685,1.9532
126.6685,1.4907
126.6685,1.2644
126.6695,1.2488
126.6745,1.2636
126.6835,1.2674
126.6915,1.4189
126.6935,1.6105
126.6955,2.0095
126.6955,2.2388
126.6965,2.3596
126.6995,2.2028
126.7004,2.0191
126.7004,1.9692
126.7004,1.7432
126.7004,1.4779
126.7014,1.2467
126.7014,1.2477
126.7014,1.252
126.7014,1.2675
126.7024,1.5495
126.7024,1.7089
126.7024,1.8413
126.7024,2.0528
126.7034,2.1604
126.7034,2.0639
126.7034,2.0423
126.7084,1.7864
126.7084,1.578
126.7084,1.2889
126.7094,1.2477
126.7154,1.2557
126.7164,1.2651
126.7164,1.3832
126.7164,1.5859
126.7164,2.0344
126.7214,2.0845
126.7224,2.2358
126.7224,2.2611
126.7224,1.9741
126.7224,1.9937
126.7294,1.8031
126.7294,1.51
126.7294,1.2497
126.7294,1.249
126.7363,1.2527
126.7363,1.2533
126.7363,1.4687
126.7363,1.5704
126.7373,1.9013
126.7423,2.2842
126.7423,2.1627
126.7433,1.9377
126.7433,1.7824
126.7493,1.7166
126.7493,1.7106
126.7503,1.4093
126.7503,1.2518
126.7503,1.254
126.7553,1.3172
126.7563,1.4483
126.7563,1.548
126.7563,1.8017
126.7633,2.1303
126.7633,2.2246
126.7633,2.0871
126.7633,2.0102
126.7643,1.9071
126.7693,1.7837
126.7693,1.4162
126.7693,1.257
126.7703,1.2486
126.7703,1.2494
126.7782,1.2764
126.7782,1.4828
126.7782,1.7444
126.7792,1.9688
126.7872,2.1884
126.7932,2.0639
126.8012,1.9227
126.8032,1.9026
126.8052,1.6996
126.8052,1.3129
126.8062,1.2473
126.8062,1.2516
126.8062,1.2681
126.8062,1.3733
126.8072,1.7176
126.8072,1.8606
126.8072,2.2373
126.8072,2.2353
126.8082,2.236
126.8082,2.1278
126.8082,1.9748
126.8082,1.5589
126.8121,1.3476
126.8121,1.2492
126.8121,1.2495
126.8131,1.2606
126.8131,1.4316
126.8181,1.5347
126.8181,1.7162
126.8191,2.0646
126.8191,2.2482
126.8191,2.3127
126.8251,2.1158
126.8261,1.8957
126.8261,1.8687
126.8261,1.6056
126.8331,1.2574
126.8331,1.2488
126.8331,1.2488
126.8331,1.2535
126.8341,1.4708
126.8391,1.6681
126.8391,1.8814
126.8391,2.1199
126.8401,2.2589
126.8461,2.1346
126.8461,1.9626
126.8461,1.9559
126.8470,1.5484
126.8470,1.3881
126.8520,1.2627
126.8520,1.2482
126.8530,1.2507
126.8530,1.417
126.8590,1.6328
126.8590,1.7757
126.8600,2.185
126.8600,2.3179
126.8600,2.2986
126.8660,2.2098
126.8660,1.9861
126.8660,1.765
126.8660,1.5239
126.8670,1.2587
126.8730,1.2499
126.8730,1.2494
126.8730,1.2741
126.8740,1.6615
126.8800,1.8314
126.8800,1.9514
126.8800,2.1029
126.8810,2.2962
126.8810,2.212
126.8859,2.1469
126.8869,1.9994
126.8869,1.5829
126.8869,1.3643
126.8949,1.249
126.8959,1.2471
126.8989,1.2565
126.9049,1.3071
126.9129,1.3527
126.9179,1.8966
126.9179,2.0701
126.9179,2.2039
126.9179,2.2701
126.9189,2.0826
126.9189,2.0042
126.9189,1.8107
126.9199,1.8482
126.9199,1.3084
126.9199,1.2494
126.9199,1.2514
126.9209,1.2645
126.9209,1.4299
126.9209,1.654
126.9209,1.8231
126.9218,2.1438
126.9218,2.2776
126.9218,2.1616
126.9268,1.9962
126.9278,1.825
126.9278,1.5317
126.9278,1.3292
126.9278,1.2488
126.9338,1.2527
126.9338,1.2666
126.9348,1.3622
126.9348,1.4489
126.9408,1.6155
126.9408,2.0001
126.9408,2.2426
126.9418,2.1293
126.9418,2.0174
126.9468,2.0108
126.9478,1.8927
126.9478,1.3718
126.9478,1.2475
126.9538,1.2467
126.9548,1.2477
126.9548,1.3476
126.9548,1.5471
126.9558,1.8023
126.9607,2.0144
126.9607,2.1693
126.9607,2.203
126.9617,2.0914
126.9617,1.9718
126.9677,1.777
126.9677,1.6212
126.9687,1.449
126.9687,1.2499
126.9747,1.2516
126.9747,1.2647
126.9757,1.3137
126.9757,1.6441
126.9757,1.8591
126.9817,2.0894
126.9817,2.2066
126.9817,2.203
126.9817,2.1319
126.9877,1.972
126.9887,1.3964
126.9887,1.2486
126.9887,1.2467
126.9897,1.2467
126.9947,1.2469
126.9947,1.4828
126.9947,1.7828
126.9957,1.8722
127.0016,2.1374
127.0036,2.4138
127.0116,2.4565
127.0126,2.4584
127.0216,2.3643
127.0216,2.2298
127.0246,2.1286
127.0246,2.0389
127.0256,1.4856
127.0256,1.4438
127.0256,1.4937
127.0256,1.8542
127.0266,2.0129
127.0266,2.2019
127.0266,2.3104
127.0266,2.4991
127.0276,2.3783
127.0276,2.215
127.0276,2.0935
127.0286,1.6979
127.0286,1.5059
127.0296,1.3097
127.0296,1.2471
127.0355,1.2527
127.0355,1.26
127.0365,1.3409
127.0365,1.8216
127.0365,1.9349
127.0425,1.9373
127.0425,2.0858
127.0425,2.0236
127.0425,1.9652
127.0495,1.8019
127.0495,1.5822
127.0495,1.2486
127.0495,1.2492
127.0505,1.2503
127.0555,1.2593
127.0555,1.4462
127.0565,1.5505
127.0565,1.6793
127.0565,1.9555
127.0625,2.2084
127.0635,2.3798
127.0635,2.3172
127.0635,1.9694
127.0695,1.7519
127.0705,1.4187
127.0705,1.2606
127.0705,1.2477
127.0705,1.2516
127.0764,1.2775
127.0764,1.3594
127.0764,1.8141
127.0774,1.9812
127.0834,2.0918
127.0834,2.2334
127.0834,2.1273
127.0844,2.0269
127.0844,1.9127
127.0894,1.3664
127.0894,1.2507
127.0904,1.2475
127.0904,1.2475
127.0964,1.2565
127.0964,1.3407
127.0974,1.5383
127.0974,1.8353
127.0974,2.1059
127.1024,2.2049
127.1034,2.2424
127.1034,2.1138
127.1034,1.8207
127.1044,1.6746
127.1103,1.3349
127.1103,1.2582
127.1103,1.2514
127.1113,1.2713
127.1233,1.276
127.1243,1.5006
127.1313,1.7116
127.1353,1.9375
127.1353,2.1443
127.1363,2.3009
127.1363,2.1889
127.1363,2.1372
127.1363,2.0044
127.1373,1.497
127.1373,1.276
127.1373,1.2539
127.1373,1.2535
127.1383,1.2709
127.1383,1.3924
127.1383,1.5951
127.1393,1.7672
127.1393,2.0196
127.1433,2.2137
127.1443,2.3116
127.1443,2.0766
127.1443,1.9523
127.1453,1.7672
127.1502,1.5098
127.1502,1.2981
127.1502,1.2477
127.1512,1.2734
127.1512,1.2812
127.1572,1.3476
127.1572,1.6386
127.1582,1.9405
127.1582,2.0856
127.1642,2.1846
127.1642,2.1203
127.1652,2.0611
127.1652,2.0311
127.1652,1.6009
127.1702,1.3154
127.1712,1.2492
127.1712,1.248
127.1712,1.2677
127.1772,1.3112
127.1782,1.4835
127.1782,1.774
127.1782,2.1413
127.1792,2.2259
127.1841,2.2173
127.1841,2.1391
127.1841,2.0243
127.1851,1.9187
127.1911,1.6922
127.1911,1.374
127.1911,1.2475
127.1921,1.2505
127.1921,1.2621
127.1971,1.3613
127.1981,1.6874
127.1981,1.8889
127.1981,2.0984
127.1981,2.2891
127.2041,2.1925
127.2051,1.9849
127.2051,1.7901
127.2051,1.4886
127.2111,1.263
127.2121,1.2529
127.2121,1.2512
127.2121,1.3857
127.2121,1.504
127.2181,1.5094
127.2181,1.5801
127.2181,2.2594
127.2191,2.3191
127.2250,2.3534
127.2320,2.3794
127.2400,2.1183
127.2420,1.8706
127.2450,1.702
127.2450,1.3795
127.2460,1.2484
127.2460,1.2625
127.2460,1.3069
127.2460,1.4387
127.2470,1.813
127.2470,1.9564
127.2470,2.1856
127.2470,2.3354
127.2480,2.2118
127.2480,2.0622
127.2490,1.9838
127.2490,1.6015
127.2500,1.3472
127.2520,1.2717
127.2520,1.254
127.2520,1.3035
127.2530,1.3418
127.2589,1.5068
127.2589,1.6945
127.2589,2.1554
127.2599,2.194
127.2599,2.221
127.2649,2.1199
127.2659,1.9298
127.2659,1.8745
127.2659,1.6452
127.2719,1.4657
127.2729,1.2482
127.2729,1.2537
127.2729,1.273
127.2729,1.3225
127.2789,1.6861
127.2789,1.861
127.2789,2.0504
127.2789,2.2733
127.2859,2.1469
127.2859,2.0633
127.2859,1.948
127.2859,1.549
127.2869,1.3197
127.2919,1.2479
127.2919,1.2465
127.2929,1.2473
127.2929,1.2486
127.2933,1.2737
127.2933,1.4404
127.2933,2.3391
127.2933,2.5173
127.2933,2.3946
127.2933,2.2334
127.2933,2.0026
127.2933,1.8601
127.2933,1.591
127.2933,1.2904
127.3120,1.2465
127.3130,1.2578
127.3130,1.2692
127.3130,1.2962
127.3190,1.6441
127.3200,1.8107
127.3200,2.0652
127.3200,2.3224
127.3200,2.2703
127.3269,2.0571
127.3299,1.8047
127.3349,1.5312
127.3439,1.3311
127.3439,1.2495
127.3489,1.2479
127.3489,1.2522
127.3499,1.2885
127.3499,1.3761
127.3499,1.4764
127.3499,1.7892
127.3509,1.9448
127.3509,1.8711
127.3509,1.9129
127.3509,2.0432
127.3519,1.8884
127.3519,1.7166
127.3519,1.6474
127.3529,1.2698
127.3539,1.2599
127.3539,1.2557
127.3539,1.2745
127.3549,1.7252
127.3599,1.9075
127.3599,2.0993
127.3599,2.1891
127.3599,2.1334
127.3668,1.9559
127.3668,1.9051
127.3668,1.6185
127.3678,1.4421
127.3678,1.2516
127.3728,1.2473
127.3728,1.2593
127.3738,1.3086
127.3738,1.4884
127.3798,1.681
127.3798,2.086
127.3808,2.2458
127.3808,2.2184
127.3808,2.2077
127.3868,1.9742
127.3868,1.8681
127.3868,1.6032
127.3868,1.3463
127.3878,1.2471
127.3938,1.2467
127.3938,1.2475
127.3938,1.2542
127.3938,1.3304
127.4008,1.6371
127.4008,1.8977
127.4008,2.1066
127.4018,2.2999
127.4018,2.1359
127.4067,2.0123
127.4067,1.6238
127.4077,1.3703
127.4077,1.2645
127.4137,1.2524
127.4137,1.255
127.4147,1.3442
127.4147,1.471
127.4147,1.6626
127.4197,2.131
127.4207,2.2351
127.4207,2.3391
127.4207,2.296
127.4267,2.0198
127.4277,1.9416
127.4277,1.7251
127.4277,1.4558
127.4287,1.2473
127.4337,1.248
127.4337,1.2527
127.4337,1.2666
127.4347,1.6502
127.4347,1.861
127.4466,1.9823
127.4546,2.1194
127.4576,2.0958
127.4586,2.0164
127.4586,1.9022
127.4586,1.7545
127.4596,1.2874
127.4596,1.2471
127.4596,1.2462
127.4596,1.3058
127.4606,1.5308
127.4606,1.5827
127.4606,1.7474
127.4606,2.1289
127.4616,2.2917
127.4616,2.257
127.4616,2.2336
127.4626,1.9294
127.4676,1.897
127.4676,1.7159
127.4676,1.521
127.4686,1.2539
127.4746,1.2503
127.4746,1.2572
127.4746,1.3037
127.4756,1.5203
127.4756,1.7281
127.4805,1.9686
127.4815,2.1676
127.4815,2.1408
127.4815,2.0112
127.4815,1.9431
127.4885,1.6982
127.4885,1.4935
127.4885,1.2859
127.4885,1.2495
127.4945,1.2516
127.4955,1.26
127.4955,1.3671
127.4955,1.5527
127.4965,2.0571
127.5015,2.1214
127.5015,2.1854
127.5015,2.1522
127.5025,2.0376
127.5105,1.8766
127.5105,1.6208
127.5105,1.3926
127.5105,1.2465
127.5115,1.2516
127.5164,1.2629
127.5164,1.3247
127.5174,1.8036
127.5174,2.1674
127.5234,2.3523
127.5234,2.1181
127.5244,2.1271
127.5244,2.0759
127.5244,1.7982
127.5294,1.4532
127.5304,1.287
127.5304,1.2585
127.5304,1.272
127.5304,1.2612
127.5374,1.3124
127.5374,1.7204
127.5374,1.9311
127.5374,2.1211
127.5444,2.1933
127.5444,2.1559
127.5444,1.9952
127.5454,1.8707
127.5454,1.7774
127.5533,1.3084
127.5583,1.2475
127.5673,1.2467
127.5693,1.2689
127.5723,1.6251
127.5723,1.8122
127.5723,1.8816
127.5733,2.2518
127.5733,2.3219
127.5733,2.1936
127.5733,1.9928
127.5743,2.0324
127.5743,1.7867
127.5743,1.5764
127.5743,1.3455
127.5753,1.2561
127.5753,1.2614
127.5753,1.2814
127.5773,1.3731
127.5773,1.6962
127.5773,1.9452
127.5783,2.1394
127.5783,2.2349
127.5843,2.1706
127.5843,2.0976
127.5853,1.9602
127.5853,1.4434
127.5912,1.2677
127.5912,1.2477
127.5922,1.2482
127.5922,1.2642
127.5922,1.3135
127.5982,1.474
127.5982,1.5807
127.5982,2.0354
127.5992,2.1001
127.6052,2.011
127.6052,1.9917
127.6052,1.8297
127.6052,1.6919
127.6062,1.4864
127.6112,1.2822
127.6112,1.2467
127.6122,1.2518
127.6122,1.2638
127.6182,1.5038
127.6182,1.7629
127.6192,2.0224
127.6192,2.1059
127.6192,2.2857
127.6252,2.2356
127.6252,2.1207
127.6252,2.0815
127.6252,1.5882
127.6261,1.3409
127.6321,1.251
127.6321,1.2475
127.6321,1.2546
127.6321,1.2814
127.6391,1.4685
127.6391,1.8946
127.6391,2.1226
127.6401,2.2782
127.6401,2.2002
127.6451,1.9397
127.6461,1.8674
127.6461,1.747
127.6461,1.5257
127.6521,1.2495
127.6531,1.2477
127.6531,1.2495
127.6531,1.2569
127.6541,1.4365
127.6591,1.6394
127.6621,1.8871
127.6650,2.2428
127.6710,2.2197
127.6790,2.116
127.6800,2.0087
127.6810,1.6744
127.6840,1.5824
127.6840,1.4655
127.6840,1.3257
127.6850,1.2503
127.6850,1.2567
127.6850,1.3047
127.6850,1.5917
127.6860,1.6941
127.6860,1.8647
127.6860,2.1025
127.6860,2.1333
127.6870,2.0614
127.6870,1.9242
127.6870,1.9013
127.6880,1.4078
127.6880,1.2681
127.6930,1.2732
127.6930,1.3851
127.6930,1.5947
127.6940,1.8321
127.7000,2.0806
127.7029,2.3144
127.7029,2.5261
127.7039,2.5518
127.7039,2.4728
127.7059,2.3089
127.7069,2.1621
127.7069,1.9649
127.7069,1.6658
127.7129,1.2503
127.7139,1.2561
127.7139,1.2593
127.7139,1.2612
127.7149,1.426
127.7199,1.81
127.7199,1.9617
127.7199,2.2617
127.7209,2.1841
127.7209,2.1229
127.7269,1.8209
127.7269,1.6339
127.7279,1.3635
127.7279,1.2544
127.7339,1.2484
127.7339,1.2507
127.7349,1.2548
127.7349,1.3043
127.7349,1.5415
127.7408,1.8902
127.7408,2.0695
127.7408,2.1698
127.7408,2.1235
127.7478,1.9591
127.7478,1.8749
127.7478,1.7084
127.7478,1.2533
127.7488,1.2475
127.7538,1.248
127.7538,1.2512
127.7548,1.363
127.7548,1.5195
127.7608,1.7519
127.7608,1.9737
127.7618,2.1963
127.7618,2.0665
127.7618,1.9332
127.7678,1.8687
127.7678,1.4391
127.7678,1.2914
127.7678,1.248
127.7688,1.249
127.7817,1.2574
127.7897,1.2732
127.7917,1.3197
127.7937,1.6667
127.7947,1.9034
127.7947,2.3384
127.7947,2.3901
127.7957,2.2923
127.7957,2.0718
127.7957,1.8608
127.7957,1.6457
127.7967,1.2572
127.7967,1.2503
127.7967,1.2486
127.7967,1.2623
127.7977,1.3547
127.7977,1.5795
127.7977,1.7734
127.8017,2.1882
127.8017,2.1783
127.8017,2.143
127.8027,2.0759
127.8087,1.9004
127.8087,1.6982
127.8087,1.4018
127.8097,1.2501
127.8097,1.2488
127.8146,1.258
127.8146,1.303
127.8156,1.3868
127.8156,1.7412
127.8156,1.9274
127.8216,2.1406
127.8226,2.1828
127.8226,2.0959
127.8226,1.9894
127.8286,1.8597
127.8296,1.4894
127.8296,1.2559
127.8296,1.2465
127.8296,1.2464
127.8356,1.254
127.8356,1.2741
127.8356,1.458
127.8356,1.8124
127.8426,2.3579
127.8426,2.4145
127.8426,2.3346
127.8426,2.1573
127.8436,1.8794
127.8486,1.717
127.8486,1.5486
127.8496,1.3118
127.8496,1.2602
127.8555,1.3105
127.8555,1.3825
127.8565,1.5139
127.8565,1.6242
127.8565,1.8391
127.8615,2.083
127.8625,2.137
127.8625,2.0618
127.8625,1.9926
127.8635,1.9349
127.8695,1.4132
127.8695,1.2497
127.8695,1.2464
127.8695,1.2465
127.8765,1.2512
127.8765,1.2664
127.8765,1.5045
127.8765,1.9433
127.8775,2.2133
127.8835,2.5782
127.8845,2.3944
127.8924,2.2538
127.8994,2.002
127.9014,1.7041
127.9034,1.4916
127.9044,1.2745
127.9044,1.2612
127.9044,1.2659
127.9044,1.2825
127.9054,1.3759
127.9054,1.9082
127.9054,2.0153
127.9054,2.1603
127.9064,2.3526
127.9064,2.2994
127.9064,2.1325
127.9074,2.0354
127.9094,1.5876
127.9094,1.2632
127.9094,1.2488
127.9094,1.2475
127.9104,1.2567
127.9164,1.3675
127.9164,1.6315
127.9174,1.8046
127.9174,2.2422
127.9234,2.2883
127.9234,2.2699
127.9244,2.1513
127.9244,2.0022
127.9253,1.7952
127.9293,1.498
127.9303,1.3026
127.9303,1.2505
127.9303,1.2692
127.9363,1.3088
127.9373,1.3654
127.9373,1.7153
127.9373,1.8707
127.9373,2.1241
127.9433,2.242
127.9433,2.2801
127.9433,2.1895
127.9443,1.9742
127.9503,1.4376
127.9503,1.3009
127.9503,1.252
127.9513,1.2492
127.9513,1.2775
127.9563,1.35
127.9563,1.5966
127.9573,1.8214
127.9573,2.1344
127.9573,2.1574
127.9632,2.1573
127.9642,2.0909
127.9642,1.8872
127.9642,1.723
127.9702,1.5771
127.9712,1.3037
127.9712,1.2525
127.9712,1.2734
127.9712,1.2591
127.9772,1.2779
127.9772,1.512
127.9772,1.825
127.9782,1.9437
127.9842,2.0712
127.9842,2.0273
127.9842,2.0798
127.9852,1.9429
127.9852,1.5235
127.9902,1.2833
127.9902,1.2494
127.9912,1.2516
127.9942,1.2657
127.9972,1.3356
128.0031,1.4318
128.0101,1.4907
128.0141,2.0042
128.0141,1.9821
128.0141,2.1175
128.0151,2.1944
128.0151,1.9512
128.0151,1.7631
128.0161,1.5499
128.0161,1.2915
128.0161,1.2477
128.0161,1.2492
128.0171,1.2563
128.0181,1.2874
128.0181,1.5719
128.0181,1.8587
128.0191,2.1734
128.0191,2.2791
128.0241,2.1978
128.0241,1.9806
128.0251,1.8492
128.0251,1.4954
128.0311,1.2962
128.0311,1.2495
128.0321,1.2467
128.0321,1.2505
128.0331,1.3133
128.0370,1.4348
128.0380,1.6107
128.0380,2.1038
128.0380,2.2143
128.0440,2.2973
128.0450,2.3929
128.0450,1.9017
128.0450,1.7755
128.0460,1.4552
128.0510,1.294
128.0510,1.2465
128.0510,1.2492
128.0520,1.2507
128.0520,1.3075
128.0580,1.5141
128.0580,1.8366
128.0590,2.1004
128.0590,2.0819
128.0650,2.0453
128.0660,2.0256
128.0660,1.909
128.0660,1.6424
128.0660,1.4423
128.0710,1.2685
128.0720,1.2516
128.0720,1.2548
128.0720,1.347
128.0779,1.4205
128.0789,1.5814
128.0789,2.0603
128.0789,2.1966
128.0799,2.2548
128.0849,2.2137
128.0849,1.9332
128.0849,1.8091
128.0859,1.4991
128.0919,1.3371
128.0919,1.2494
128.0919,1.2479
128.0929,1.2471
128.0929,1.2634
128.0979,1.599
128.0989,1.9381
128.0989,2.1106
128.0989,2.2257
128.0989,2.2073
128.1128,2.1796
128.1208,2.0853
128.1228,1.6967
128.1248,1.341
128.1248,1.2509
128.1258,1.2503
128.1258,1.2527
128.1258,1.27
128.1258,1.3954
128.1268,1.5769
128.1268,1.9776
128.1268,2.1963
128.1268,2.2495
128.1278,2.1423
128.1278,1.9366
128.1278,1.8014
128.1278,1.6242
128.1288,1.3964
128.1318,1.2488
128.1328,1.2477
128.1328,1.2492
128.1328,1.2627
128.1388,1.5413
128.1398,1.6913
128.1398,1.912
128.1398,2.2465
128.1398,2.257
128.1458,2.1394
128.1458,2.0504
128.1458,1.6613
128.1468,1.456
128.1468,1.2488
128.1527,1.2492
128.1527,1.261
128.1527,1.2964
128.1537,1.4016
128.1597,1.6146
128.1597,2.1156
128.1607,2.2638
128.1607,2.2062
128.1607,2.1484
128.1657,2.1079
128.1667,1.8454
128.1667,1.5668
128.1667,1.3855
128.1727,1.2471
128.1737,1.2482
128.1737,1.2507
128.1737,1.2533
128.1737,1.6362
128.1797,1.7862
128.1797,1.8844
128.1797,2.2814
128.1807,2.1618
128.1867,2.0969
128.1867,2.0378
128.1867,1.6431
128.1876,1.3238
128.1876,1.2486
128.1926,1.2494
128.1926,1.2584
128.1936,1.3433
128.1936,1.6418
128.1936,1.7474
128.1996,1.9579
128.2006,2.1019
128.2006,2.3035
128.2006,2.2227
128.2126,2.0176
128.2146,1.9431
128.2216,1.7633
128.2235,1.4807
128.2255,1.2479
128.2255,1.2488
128.2265,1.2636
128.2265,1.3037
128.2265,1.6559
128.2265,1.8025
128.2275,1.9589
128.2275,2.2703
128.2275,2.1595
128.2275,2.0931
128.2285,1.9939
128.2285,1.6337
128.2285,1.3146
128.2295,1.2497
128.2355,1.2475
128.2355,1.2473
128.2355,1.2527
128.2365,1.3705
128.2365,1.5342
128.2415,2.1867
128.2415,2.1456
128.2425,2.2836
128.2425,2.0211
128.2425,1.8927
128.2485,1.726
128.2495,1.2606
128.2495,1.2527
128.2495,1.2479
128.2547,1.2524
128.2547,1.3502
128.2547,1.5222
128.2547,1.7916
128.2547,2.1805
128.2619,2.257
128.2629,2.2302
128.2629,2.1143
128.2629,1.8837
128.2689,1.7534
128.2699,1.5569
128.2699,1.3386
128.2699,1.2488
128.2699,1.2537
128.2759,1.2672
128.2759,1.3011
128.2759,1.7168
128.2769,1.8492
128.2829,2.0414
128.2829,2.1865
128.2829,1.9621
128.2839,1.8741
128.2839,1.7537
128.2889,1.4427
128.2899,1.2677
128.2899,1.2495
128.2899,1.2495
128.2899,1.2546
128.2958,1.3399
128.2968,1.7131
128.2968,1.9493
128.2968,2.1426
128.3038,2.2081
128.3038,2.1989
128.3038,2.0463
128.3038,1.9345
128.3048,1.7492
128.3098,1.4676
128.3098,1.251
128.3098,1.2484
128.3108,1.2569
128.3168,1.284
128.3168,1.447
128.3178,1.6649
128.3198,1.8286
128.3218,2.0365
128.3288,2.2129
128.3327,2.0584
128.3387,1.9122
128.3417,1.8379
128.3417,1.3474
128.3417,1.2584
128.3427,1.2495
128.3427,1.2467
128.3427,1.2488
128.3427,1.2567
128.3437,1.2645
128.3437,1.7552
128.3437,1.8614
128.3437,1.9367
128.3447,2.0251
128.3447,1.6885
128.3447,2.0883
128.3447,1.9969
128.3507,1.5728
128.3507,1.5885
128.3517,1.3461
128.3517,1.3542
128.3517,1.4243
128.3567,1.8651
128.3577,2.0179
128.3577,2.2238
128.3577,2.4811
128.3647,2.5771
128.3647,2.4815
128.3647,2.3903
128.3647,2.0387
128.3657,1.8702
128.3706,1.5422
128.3706,1.3094
128.3706,1.2632
128.3716,1.2514
128.3776,1.2923
128.3776,1.4325
128.3776,1.8389
128.3786,1.9988
128.3786,2.0913
128.3836,2.1183
128.3846,1.9649
128.3846,1.8338
128.3846,1.6326
128.3846,1.4419
128.3906,1.2465
128.3916,1.2464
128.3916,1.2467
128.3916,1.2542
128.3976,1.4018
128.3986,1.5512
128.3986,1.9937
128.3986,2.1565
128.3986,2.1222
128.4046,2.1837
128.4046,2.0671
128.4046,1.6587
128.4055,1.4453
128.4115,1.2597
128.4115,1.2465
128.4115,1.2503
128.4125,1.2807
128.4125,1.3808
128.4175,1.5597
128.4185,2.0339
128.4185,2.0564
128.4185,2.1961
128.4245,2.2585
128.4255,1.9694
128.4255,1.8447
128.4255,1.6757
128.4255,1.564
128.4315,1.2507
128.4325,1.2477
128.4405,1.2503
128.4484,1.2554
128.4494,1.3369
128.4514,1.5019
128.4524,1.6896
128.4524,2.0389
128.4524,2.1213
128.4534,2.0536
128.4534,1.9669
128.4534,1.6223
128.4534,1.5044
128.4544,1.6193
128.4544,1.293
128.4544,1.2527
128.4544,1.2636
128.4554,1.3272
128.4584,1.4215
128.4594,1.8196
128.4594,2.0515
128.4594,2.1933
128.4594,2.2182
128.4654,2.0926
128.4654,1.9255
128.4664,1.7588
128.4664,1.5452
128.4724,1.2512
128.4724,1.2469
128.4734,1.2494
128.4734,1.3287
128.4734,1.5304
128.4784,1.6917
128.4784,1.9152
128.4794,2.2759
128.4794,2.1246
128.4794,1.9784
128.4853,1.9407
128.4863,1.6414
128.4863,1.4663
128.4863,1.285
128.4923,1.248
128.4933,1.2464
128.4933,1.2464
128.4933,1.2565
128.4943,1.4387
128.4993,1.8837
128.4993,2.0524
128.4993,2.3813
128.5003,2.437
128.5063,2.107
128.5063,1.9433
128.5063,1.864
128.5073,1.4324
128.5073,1.264
128.5123,1.2497
128.5123,1.2522
128.5133,1.3069
128.5133,1.4672
128.5192,1.6367
128.5192,1.8854
128.5202,2.1934
128.5202,2.3091
128.5202,2.2251
128.5262,2.0714
128.5262,1.777
128.5262,1.5105
128.5262,1.2929
128.5272,1.251
128.5332,1.2473
128.5332,1.2497
128.5332,1.2546
128.5342,1.3184
128.5412,1.6677
128.5452,1.8724
128.5502,2.0119
128.5591,2.1657
128.5601,2.0588
128.5631,1.9806
128.5631,1.8814
128.5631,1.4374
128.5641,1.2651
128.5641,1.2497
128.5641,1.2593
128.5651,1.38
128.5651,1.5726
128.5651,1.6855
128.5661,1.858
128.5661,2.2323
128.5661,2.2212
128.5661,2.1093
128.5671,2.0339
128.5671,2.0007
128.5671,1.7249
128.5671,1.5156
128.5681,1.2494
128.5731,1.2569
128.5731,1.2805
128.5741,1.311
128.5741,1.6761
128.5741,1.7884
128.5801,2.0504
128.5811,2.236
128.5811,2.2688
128.5811,2.2075
128.5871,2.0879
128.5881,1.7279
128.5881,1.4618
128.5881,1.3069
128.5881,1.2514
128.5940,1.2711
128.5940,1.2687
128.5940,1.3536
128.5950,1.5259
128.6010,2.0858
128.6010,2.1998
128.6010,2.2338
128.6020,2.1603
128.6020,1.9686
128.6070,1.8076
128.6080,1.7746
128.6080,1.2591
128.6080,1.2475
128.6140,1.2497
128.6150,1.2548
128.6150,1.4172
128.6150,1.6247
128.6150,1.8271
128.6210,1.9874
128.6210,2.0858
128.6210,2.1085
128.6220,2.0629
128.6220,1.9191
128.6280,1.7689
128.6280,1.4504
128.6290,1.2657
128.6290,1.2509
128.6349,1.2595
128.6349,1.2615
128.6359,1.3005
128.6359,1.6742
128.6359,1.8739
128.6419,1.9647
128.6419,2.0986
128.6419,1.9823
128.6419,1.8419
128.6479,1.729
128.6489,1.6911
128.6489,1.2584
128.6489,1.2471
128.6499,1.2467
128.6619,1.251
128.6649,1.309
128.6708,1.5284
128.6738,1.9217
128.6748,2.1349
128.6748,2.0693
128.6758,2.0577
128.6768,2.0783
128.6768,1.8835
128.6768,1.7481
128.6778,1.5535
128.6778,1.2704
128.6778,1.2469
128.6788,1.2488
128.6788,1.2542
128.6788,1.3131
128.6788,1.6994
128.6788,1.8794
128.6828,1.9797
128.6828,2.0391
128.6828,1.9984
128.6838,1.9819
128.6838,1.8136
128.6888,1.4312
128.6888,1.2561
128.6898,1.2467
128.6898,1.2465
128.6958,1.2645
128.6958,1.4725
128.6968,1.6465
128.6968,1.7481
128.6968,2.1357
128.7028,2.1754
128.7028,2.1683
128.7028,2.1066
128.7028,2.0072
128.7087,1.8295
128.7117,1.5454
128.7127,1.2488
128.7127,1.2475
128.7127,1.2495
128.7157,1.2555
128.7157,1.4247
128.7167,1.561
128.7167,1.6208
128.7167,1.6756
128.7227,2.0194
128.7237,2.3088
128.7237,2.1304
128.7237,2.0251
128.7297,1.6461
128.7307,1.3913
128.7307,1.285
128.7307,1.2533
128.7307,1.2555
128.7367,1.2839
128.7367,1.4864
128.7367,2.0665
128.7377,2.2216
128.7436,2.2669
128.7436,2.2469
128.7436,2.0076
128.7446,1.8527
128.7446,1.6521
128.7496,1.2908
128.7576,1.2475
128.7656,1.2473
128.7666,1.2668
128.7696,1.3943
128.7696,1.4747
128.7696,1.6596
128.7706,1.828
128.7706,2.1706
128.7706,2.1421
128.7706,2.0509
128.7716,1.9474
128.7716,1.6223
128.7716,1.4138
128.7726,1.2662
128.7726,1.2464
128.7726,1.2464
128.7736,1.2467
128.7776,1.3514
128.7776,1.9694
128.7786,2.1244
128.7786,2.2804
128.7786,2.3213
128.7835,2.1265
128.7845,2.0316
128.7845,1.9737
128.7845,1.8413
128.7905,1.329
128.7915,1.2647
128.7915,1.2537
128.7915,1.2546
128.7915,1.3902
128.7975,1.4787
128.7975,1.6606
128.7975,2.131
128.7985,2.1891
128.8045,2.1848
128.8045,2.0551
128.8045,1.9204
128.8055,1.7395
128.8055,1.5366
128.8105,1.3109
128.8115,1.2475
128.8115,1.249
128.8115,1.2507
128.8115,1.2677
128.8184,1.4393
128.8184,1.8709
128.8184,2.0232
128.8184,2.0553
128.8254,2.0215
128.8254,1.9212
128.8254,1.7022
128.8254,1.8246
128.8264,1.5644
128.8314,1.2578
128.8314,1.2484
128.8324,1.2992
128.8324,1.5254
128.8384,1.6266
128.8384,1.9534
128.8394,2.1539
128.8394,2.2898
128.8394,2.2864
128.8444,2.1139
128.8454,2.0177
128.8454,1.9028
128.8454,1.6709
128.8514,1.2514
128.8524,1.248
128.8524,1.2516
128.8524,1.2629
128.8534,1.5175
128.8593,1.6079
128.8613,1.8136
128.8683,2.1049
128.8763,2.2015
128.8773,2.1068
128.8803,1.9403
128.8813,1.7862
128.8813,1.5537
128.8813,1.3247
128.8823,1.2484
128.8823,1.248
128.8823,1.248
128.8823,1.2614
128.8833,1.5398
128.8833,2.0389
128.8833,2.248
128.8833,2.2992
128.8843,2.2923
128.8863,2.1246
128.8863,1.9808
128.8863,1.8377
128.8873,1.3658
128.8873,1.2563
128.8922,1.2484
128.8922,1.2503
128.8932,1.3384
128.8932,1.5555
128.8992,1.7402
128.8992,1.8666
128.9002,2.1715
128.9002,2.1753
128.9002,2.1254
128.9052,2.0779
128.9062,1.8244
128.9062,1.6431
128.9062,1.3444
128.9072,1.2484
128.9132,1.2505
128.9132,1.2606
128.9132,1.2929
128.9142,1.5458
128.9202,1.7269
128.9202,1.9452
128.9202,2.0496
128.9212,2.038
128.9212,1.8306
128.9262,1.7408
128.9272,1.7991
128.9272,1.41
128.9272,1.2561
128.9331,1.2473
128.9341,1.2471
128.9341,1.2786
128.9341,1.4957
128.9341,1.6913
128.9401,1.9049
128.9401,2.1327
128.9401,2.2435
128.9401,2.2231
128.9471,2.1886
128.9471,1.9952
128.9471,1.7333
128.9481,1.4635
128.9481,1.2512
128.9531,1.2497
128.9531,1.2548
128.9541,1.291
128.9541,1.6409
128.9541,1.8025
128.9601,1.9866
128.9611,2.2174
128.9611,2.1723
128.9611,2.0181
128.9700,1.8458
128.9720,1.5833
128.9800,1.3746
128.9890,1.2492
128.9910,1.249
128.9940,1.2569
128.9940,1.348
128.9940,1.7419
128.9940,1.8811
128.9950,1.9283
128.9950,1.9242
128.9950,1.9879
128.9950,2.0489
128.9960,1.8184
128.9960,1.5645
128.9960,1.2539
128.9960,1.2471
128.9970,1.2516
128.9970,1.2927
128.9970,1.4734
128.9980,1.5381
128.9980,1.7507
128.9980,2.1374
129.0020,2.2444
129.0029,2.2156
129.0029,2.1406
129.0029,1.9546
129.0039,1.8265
129.0099,1.6664
129.0099,1.3763
129.0099,1.315
129.0099,1.4505
129.0169,1.6427
129.0169,1.8876
129.0169,2.0995
129.0179,2.2831
129.0179,2.4809
129.0229,2.5295
129.0229,2.4783
129.0239,2.3554
129.0239,2.2555
129.0299,1.6197
129.0299,1.2846
129.0309,1.2495
129.0309,1.2482
129.0309,1.285
129.0359,1.333
129.0369,1.3778
129.0369,1.5188
129.0369,1.6902
129.0428,1.9328
129.0438,2.2894
129.0438,2.2707
129.0438,1.7504
129.0448,1.531
129.0498,1.3167
129.0498,1.255
129.0498,1.2494
129.0508,1.2799
129.0508,1.3975
129.0568,1.632
129.0568,1.8079
129.0578,1.981
129.0578,2.0988
129.0638,2.2324
129.0638,2.2006
129.0648,1.9442
129.0648,1.8501
129.0648,1.4862
129.0708,1.2747
129.0708,1.249
129.0708,1.249
129.0708,1.305
129.0777,1.479
129.0777,1.6236
129.0777,1.8376
129.0777,2.2255
129.0787,2.2902
129.0897,2.1423
129.0987,1.9465
129.1007,1.8034
129.1037,1.6352
129.1037,1.4183
129.1037,1.2467
129.1047,1.2465
129.1047,1.2482
129.1047,1.2501
129.1057,1.2779
129.1057,1.3709
129.1057,1.5437
129.1057,1.9538
129.1067,2.2536
129.1067,2.2068
129.1067,2.2366
129.1067,1.8151
129.1077,1.5816
129.1117,1.2972
129.1117,1.2479
129.1117,1.2569
129.1127,1.2764
129.1127,1.3832
129.1176,1.5325
129.1176,1.9902
129.1186,2.272
129.1186,2.3481
129.1246,2.2122
129.1246,2.0264
129.1256,1.8728
129.1256,1.7219
129.1256,1.3208
129.1316,1.2501
129.1316,1.2479
129.1316,1.2557
129.1326,1.3356
129.1386,1.4539
129.1386,1.632
129.1386,1.8833
129.1386,2.3127
129.1396,2.3487
129.1446,2.0993
129.1446,2.0252
129.1456,1.7425
129.1456,1.509
129.1456,1.276
129.1516,1.2467
129.1525,1.2497
129.1525,1.2516
129.1525,1.2655
129.1585,1.4091
129.1595,1.6501
129.1595,2.0839
129.1595,2.2358
129.1595,2.0802
129.1655,1.9649
129.1655,1.7952
129.1655,1.6658
129.1655,1.27
129.1725,1.2606
129.1725,1.254
129.1725,1.2719
129.1735,1.3735
129.1735,1.5792
129.1785,1.8407
129.1795,2.0399
129.1795,2.2606
129.1795,2.2439
129.1855,2.2045
129.1865,2.0547
129.1865,1.9315
129.1865,1.5921
129.1865,1.3064
129.1934,1.2475
129.1954,1.2475
129.2024,1.2666
129.2104,1.3476
129.2124,1.7344
129.2154,1.8143
129.2154,2.0817
129.2164,2.1552
129.2164,1.9718
129.2164,1.9442
129.2164,1.9206
129.2174,1.5705
129.2174,1.3564
129.2174,1.2516
129.2184,1.2501
129.2184,1.2612
129.2214,1.3199
129.2224,1.4714
129.2224,1.6155
129.2224,1.8994
129.2224,2.0236
129.2224,2.1237
129.2234,2.2173
129.2264,1.9844
129.2264,1.8764
129.2264,1.5263
129.2273,1.3377
129.2333,1.3011
129.2333,1.3444
129.2333,1.3647
129.2343,1.5389
129.2343,1.6937
129.2397,1.9306
129.2397,2.1409
129.2407,2.2371
129.2407,2.1987
129.2407,2.1119
129.2467,1.8355
129.2467,1.594
129.2477,1.3534
129.2477,1.2529
129.2536,1.254
129.2546,1.2692
129.2546,1.3395
129.2546,1.4663
129.2546,1.8631
129.2606,2.0509
129.2606,2.2169
129.2606,2.2934
129.2616,2.1091
129.2676,1.9364
129.2676,1.777
129.2676,1.276
129.2686,1.2464
129.2686,1.2464
129.2736,1.2473
129.2736,1.3725
129.2746,1.5582
129.2746,1.7562
129.2806,1.8203
129.2806,2.383
129.2816,2.3785
129.2816,2.1891
129.2816,2.0676
129.2866,1.8203
129.2876,1.7736
129.2876,1.545
129.2876,1.2642
129.2876,1.2495
129.2945,1.2525
129.2945,1.2784
129.2945,1.444
129.2945,1.8807
129.3025,2.0751
129.3045,2.1554
129.3125,2.1241
129.3205,2.0264
129.3225,1.8762
129.3245,1.7459
129.3255,1.3309
129.3255,1.2495
129.3255,1.2471
129.3255,1.2469
129.3265,1.2574
129.3265,1.3245
129.3265,1.5087
129.3265,1.7489
129.3274,2.0091
129.3274,1.9834
129.3274,1.8713
129.3274,1.8209
129.3284,1.9238
129.3284,1.6476
129.3284,1.4067
129.3284,1.2655
129.3294,1.2585
129.3344,1.281
129.3344,1.2546
129.3344,1.4539
129.3354,1.9407
129.3354,1.9849
129.3414,2.1363
129.3414,2.2249
129.3424,2.0939
129.3424,1.9244
129.3484,1.8162
129.3494,1.6669
129.3494,1.252
129.3494,1.2479
129.3494,1.2509
129.3544,1.2578
129.3554,1.3506
129.3554,1.6191
129.3554,1.9319
129.3614,2.2461
129.3624,2.2816
129.3624,2.1458
129.3624,2.0631
129.3634,1.7545
129.3683,1.453
129.3683,1.2844
129.3683,1.2479
129.3693,1.2462
129.3753,1.2471
129.3753,1.2539
129.3753,1.2687
129.3763,1.8957
129.3763,1.9819
129.3813,2.1861
129.3813,2.2988
129.3823,2.0477
129.3823,1.8704
129.3823,1.8188
129.3883,1.7151
129.3893,1.2756
129.3893,1.2505
129.3893,1.2505
129.3953,1.2687
129.3963,1.4672
129.3963,1.5936
129.3963,1.8563
129.3973,2.1453
129.4022,2.2384
129.4022,2.275
129.4022,2.1762
129.4032,1.9255
129.4092,1.7431
129.4092,1.4702
129.4092,1.2672
129.4102,1.2462
129.4102,1.2471
129.4152,1.2501
129.4232,1.3142
129.4312,1.7243
129.4332,1.9632
129.4362,2.05
129.4362,2.0558
129.4362,2.0061
129.4362,2.1254
129.4372,1.8286
129.4372,1.6621
129.4372,1.3654
129.4372,1.261
129.4382,1.2514
129.4382,1.2899
129.4382,1.3671
129.4382,1.5308
129.4392,1.7601
129.4392,2.0847
129.4431,2.2173
129.4431,2.2503
129.4431,2.1453
129.4441,1.9352
129.4441,1.6641
129.4491,1.5057
129.4501,1.2662
129.4501,1.2475
129.4501,1.2707
129.4561,1.2739
129.4561,1.3499
129.4571,1.7882
129.4571,2.0399
129.4571,2.1685
129.4631,2.1166
129.4631,1.8981
129.4631,1.8514
129.4631,1.8023
129.4691,1.5968
129.4701,1.276
129.4701,1.2477
129.4701,1.2469
129.4711,1.2737
129.4761,1.371
129.4761,1.5552
129.4761,1.7363
129.4770,2.1261
129.4770,2.2054
129.4830,2.1595
129.4830,2.1591
129.4840,1.912
129.4840,1.7228
129.4900,1.5109
129.4900,1.329
129.4910,1.2482
129.4910,1.2497
129.4910,1.2555
129.4960,1.4074
129.4970,1.7999
129.4970,1.9294
129.4970,2.1584
129.5030,2.2508
129.5040,2.1393
129.5040,1.972
129.5040,1.8878
129.5050,1.7082
129.5100,1.2745
129.5100,1.2509
129.5100,1.2492
129.5110,1.266
129.5169,1.384
129.5169,1.5308
129.5169,1.7783
129.5179,2.0104
129.5179,2.1811
129.5239,2.2054
129.5259,2.0798
129.5339,1.9231
129.5409,1.7809
129.5449,1.6152
129.5459,1.2921
129.5459,1.2467
129.5459,1.2471
129.5469,1.2479
129.5469,1.3725
129.5469,1.7359
129.5469,1.9371
129.5479,2.1983
129.5479,2.221
129.5479,2.1323
129.5489,1.9446
129.5489,1.8134
129.5489,1.6232
129.5509,1.357
129.5509,1.2569
129.5509,1.2482
129.5518,1.2492
129.5518,1.2659
129.5568,1.3662
129.5568,1.7461
129.5578,2.1141
129.5578,2.4229
129.5638,2.2902
129.5638,2.1837
129.5648,2.1198
129.5648,1.8586
129.5658,1.6429
129.5708,1.3519
129.5708,1.2477
129.5708,1.2482
129.5708,1.2792
129.5718,1.4558
129.5778,1.8152
129.5778,2.0024
129.5778,2.0916
129.5778,2.2431
129.5848,1.9928
129.5848,2.0442
129.5848,1.9409
129.5858,1.7659
129.5858,1.279
129.5907,1.2492
129.5907,1.2465
129.5917,1.2477
129.5917,1.2897
129.5977,1.3632
129.5977,1.6456
129.5987,1.9283
129.5987,2.0961
129.5987,2.1278
129.6047,2.0312
129.6047,1.9302
129.6047,1.8319
129.6047,1.6174
129.6117,1.3309
129.6117,1.2473
129.6117,1.2477
129.6117,1.2535
129.6127,1.2764
129.6177,1.5284
129.6177,1.7344
129.6177,2.0509
129.6187,2.11
129.6187,2.1863
129.6247,1.9692
129.6247,1.9187
129.6256,1.7671
129.6256,1.3559
129.6316,1.2617
129.6316,1.2554
129.6326,1.2512
129.6326,1.2771
129.6326,1.3574
129.6446,1.5567
129.6536,1.8512
129.6556,2.1944
129.6586,2.2309
129.6586,2.1228
129.6586,2.0999
129.6596,1.8604
129.6596,1.6577
129.6596,1.3677
129.6596,1.2473
129.6606,1.2479
129.6606,1.2505
129.6606,1.2728
129.6616,1.6671
129.6616,1.8239
129.6616,2.0303
129.6616,2.2116
129.6626,2.2345
129.6645,2.0166
129.6656,1.8831
129.6656,1.7444
129.6656,1.2816
129.6665,1.2467
129.6715,1.2464
129.6725,1.2475
129.6725,1.3002
129.6725,1.3718
129.6795,1.626
129.6795,1.9382
129.6795,2.1428
129.6795,2.1274
129.6805,2.0464
129.6855,1.9816
129.6855,1.6562
129.6865,1.4374
129.6865,1.323
129.6945,1.2488
129.6945,1.251
129.6945,1.2745
129.6955,1.4573
129.6955,1.8496
129.7005,2.3468
129.7005,2.5908
129.7014,2.5611
129.7014,2.4695
129.7074,2.2709
129.7074,1.9658
129.7084,1.7438
129.7084,1.5087
129.7084,1.3857
129.7144,1.4577
129.7174,1.5248
129.7174,1.639
129.7174,1.9081
129.7184,2.1488
129.7214,2.3476
129.7214,2.3198
129.7214,2.0941
129.7224,1.9354
129.7284,1.8852
129.7284,1.5979
129.7284,1.2477
129.7294,1.2464
129.7294,1.2464
129.7344,1.2479
129.7354,1.5334
129.7354,1.7941
129.7354,1.9823
129.7433,2.1531
129.7453,2.2653
129.7523,2.0641
129.7603,1.9516
129.7623,1.8192
129.7653,1.6493
129.7653,1.4361
129.7653,1.2527
129.7663,1.2469
129.7663,1.2499
129.7663,1.2552
129.7663,1.3095
129.7673,1.6367
129.7673,1.8698
129.7673,2.0404
129.7683,2.1147
129.7683,2.1573
129.7683,1.9971
129.7683,1.8567
129.7693,1.6609
129.7693,1.2653
129.7693,1.2501
129.7693,1.2473
129.7753,1.2486
129.7762,1.2745
129.7762,1.4018
129.7762,1.7657
129.7762,2.1098
129.7822,2.251
129.7822,2.1948
129.7822,2.0798
129.7832,1.8685
129.7892,1.6981
129.7892,1.5047
129.7892,1.2655
129.7892,1.248
129.7902,1.2499
129.7952,1.263
129.7952,1.3334
129.7962,1.6172
129.7962,1.891
129.8022,2.104
129.8022,2.3678
129.8032,2.1803
129.8032,2.0301
129.8032,1.8434
129.8082,1.6362
129.8092,1.2554
129.8092,1.2514
129.8092,1.248
129.8102,1.2546
129.8161,1.3204
129.8161,1.473
129.8161,1.7836
129.8171,2.2053
129.8231,2.1723
129.8231,2.1726
129.8231,2.1171
129.8241,1.8871
129.8241,1.7179
129.8291,1.3808
129.8301,1.2561
129.8301,1.2475
129.8301,1.2572
129.8361,1.2548
129.8371,1.6315
129.8371,1.7192
129.8371,1.9844
129.8381,2.1484
129.8431,2.1771
129.8431,2.1033
129.8431,1.9534
129.8441,1.8537
129.8501,1.5647
129.8501,1.294
129.8501,1.2554
129.8510,1.2486
129.8510,1.2994
129.8560,1.468
129.8640,1.6894
129.8730,1.9334
129.8750,2.1393
129.8780,2.1859
129.8780,2.137
129.8780,1.8906
129.8780,1.8295
129.8790,1.6487
129.8790,1.4091
129.8790,1.2469
129.8790,1.2465
129.8800,1.2505
129.8800,1.2782
129.8800,1.4967
129.8800,1.8061
129.8810,1.8486
129.8810,2.1531
129.8840,2.2043
129.8840,2.1025
129.8850,2.0648
129.8850,1.7736
129.8850,1.5981
129.8899,1.3157
129.8909,1.2505
129.8909,1.2692
129.8909,1.3859
129.8969,1.4693
129.8979,1.5649
129.8979,1.9352
129.8979,2.0971
129.8989,2.1753
129.9039,2.1201
129.9039,1.9716
129.9039,1.8254
129.9049,1.6349
129.9049,1.2687
129.9109,1.2484
129.9109,1.2475
129.9119,1.2548
129.9119,1.351
129.9179,1.642
129.9179,1.8426
129.9189,2.0142
129.9189,2.257
129.9189,2.2144
129.9239,2.1708
129.9249,2.1533
129.9249,1.8137
129.9249,1.6079
129.9318,1.4423
129.9318,1.2503
129.9318,1.3163
129.9318,1.3386
129.9328,1.3495
129.9378,1.7136
129.9378,1.9427
129.9378,2.098
129.9388,2.1691
129.9448,2.1927
129.9448,2.0489
129.9458,1.8466
129.9458,1.6469
129.9458,1.3585
129.9508,1.2584
129.9518,1.2505
129.9518,1.2597
129.9518,1.2951
129.9518,1.4172
129.9588,1.6401
129.9588,2.1949
129.9588,2.3322
129.9598,2.3097
129.9667,2.2546
129.9737,1.9675
129.9827,1.7738
129.9837,1.5709
129.9867,1.2475
129.9867,1.2464
129.9867,1.2482
129.9877,1.263
129.9877,1.4985
129.9877,1.7335
129.9887,1.9154
129.9887,2.0492
129.9887,2.0714
129.9887,2.0172
129.9897,1.8623
129.9897,1.7984
129.9897,1.4301
129.9897,1.3
129.9927,1.2495
129.9927,1.2503
129.9927,1.2529
129.9927,1.303
129.9937,1.4162
129.9987,1.7395
129.9996,1.9448
129.9996,2.1668
129.9996,2.2898
129.9996,2.0451
130.0056,1.9469
130.0056,1.7378
130.0066,1.4258
130.0066,1.2602
130.0126,1.2497
130.0136,1.2625
130.0136,1.2925
130.0136,1.3596
130.0136,1.618
130.0196,1.8361
130.0196,1.9746
130.0196,2.1274
130.0196,2.0648
130.0266,2.0783
130.0266,1.9487
130.0266,1.591
130.0276,1.3482
130.0276,1.2503
130.0326,1.2488
130.0326,1.2544
130.0336,1.2653
130.0336,1.368
130.0395,1.6887
130.0395,1.9504
130.0405,2.1991
130.0405,2.2533
130.0405,2.0464
130.0455,2.0264
130.0465,1.8312
130.0465,1.5859
130.0465,1.2479
130.0475,1.2465
130.0535,1.2475
130.0555,1.2542
130.0565,1.4067
130.0565,1.6026
130.0605,1.8286
130.0605,2.0228
130.0605,2.1749
130.0615,2.0911
130.0615,2.0342
130.0665,1.9244
130.0665,1.6904
130.0675,1.4275
130.0675,1.2527
130.0735,1.2484
130.0735,1.2499
130.0735,1.3034
130.0764,1.3915
130.0784,1.8349
130.0854,2.0003
130.0864,2.146
130.0944,2.1846
130.0954,1.9879
130.0984,2.0841
130.0984,1.8259
130.0994,1.5574
130.0994,1.2495
130.0994,1.2473
130.0994,1.248
130.1004,1.261
130.1004,1.4172
130.1004,1.5745
130.1004,1.7747
130.1014,2.0054
130.1014,2.2474
130.1014,2.2143
130.1014,2.1443
130.1074,1.9831
130.1074,1.5987
130.1084,1.4329
130.1084,1.2555
130.1084,1.2465
130.1133,1.2782
130.1143,1.3461
130.1143,1.4237
130.1143,1.6437
130.1203,2.0905
130.1213,2.2047
130.1213,2.29
130.1213,1.894
130.1213,1.7822
130.1273,1.8019
130.1273,1.599
130.1273,1.2471
130.1273,1.2465
130.1343,1.2482
130.1343,1.2595
130.1343,1.3354
130.1343,1.5636
130.1353,1.8541
130.1403,1.9979
130.1403,2.2409
130.1413,2.1469
130.1413,1.9669
130.1413,1.8441
130.1473,1.6371
130.1483,1.5032
130.1483,1.2734
130.1483,1.248
130.1542,1.2503
130.1552,1.2593
130.1552,1.4292
130.1552,1.5569
130.1552,1.8484
130.1612,2.1321
130.1612,2.2283
130.1612,2.2236
130.1612,2.0748
130.1682,1.9356
130.1682,1.6621
130.1682,1.2555
130.1682,1.2477
130.1692,1.249
130.1742,1.2544
130.1742,1.3482
130.1752,1.4925
130.1752,1.7558
130.1812,2.026
130.1812,2.2114
130.1822,2.1738
130.1822,2.0603
130.1822,1.9354
130.1881,1.6337
130.1901,1.474
130.1971,1.2606
130.2051,1.2597
130.2071,1.2509
130.2091,1.2653
130.2091,1.3182
130.2101,1.4629
130.2101,1.8962
130.2111,2.0451
130.2111,2.2144
130.2111,2.1284
130.2121,2.0429
130.2121,1.8387
130.2121,1.6146
130.2121,1.2771
130.2131,1.2525
130.2131,1.2482
130.2151,1.2535
130.2151,1.2927
130.2161,1.4766
130.2161,1.7911
130.2161,1.9729
130.2211,2.3301
130.2221,2.3009
130.2221,2.1083
130.2221,1.8599
130.2280,1.617
130.2290,1.4455
130.2290,1.3002
130.2290,1.251
130.2300,1.252
130.2350,1.2769
130.2350,1.4359
130.2350,1.5329
130.2360,1.9694
130.2360,2.2051
130.2391,2.1816
130.2391,2.176
130.2391,1.9225
130.2391,1.9622
130.2486,1.8342
130.2496,1.2555
130.2496,1.2509
130.2496,1.2503
130.2496,1.2542
130.2556,1.377
130.2556,1.4644
130.2556,1.5897
130.2566,1.9714
130.2625,2.3326
130.2625,2.2968
130.2625,2.1184
130.2635,2.0676
130.2635,1.6688
130.2685,1.3557
130.2685,1.252
130.2696,1.2512
130.2696,1.2582
130.2755,1.2645
130.2755,1.4224
130.2765,1.7209
130.2765,2.0359
130.2765,2.1764
130.2825,2.1709
130.2825,2.0436
130.2825,1.8942
130.2825,1.8383
130.2835,1.6654
130.2895,1.3994
130.2895,1.2473
130.2895,1.2469
130.2905,1.2505
130.2965,1.3328
130.2965,1.5096
130.2965,1.7057
130.2975,1.9973
130.2994,2.2002
130.3084,2.1663
130.3174,2.0485
130.3194,1.8638
130.3214,1.6784
130.3224,1.3675
130.3224,1.2546
130.3224,1.2465
130.3234,1.2514
130.3234,1.2584
130.3234,1.2655
130.3234,1.4277
130.3244,2.05
130.3244,2.0341
130.3244,2.0117
130.3244,2.0284
130.3254,1.8451
130.3254,1.6167
130.3254,1.5314
130.3294,1.2647
130.3294,1.2494
130.3294,1.2522
130.3304,1.2557
130.3304,1.4781
130.3363,1.5602
130.3363,1.8634
130.3373,1.9795
130.3373,2.0151
130.3433,2.0596
130.3433,1.8331
130.3443,1.6862
130.3443,1.4181
130.3443,1.2891
130.3503,1.2555
130.3503,1.2475
130.3503,1.2507
130.3503,1.2689
130.3563,1.3709
130.3573,1.5619
130.3573,2.0361
130.3573,2.0419
130.3583,2.0804
130.3633,2.1066
130.3633,1.702
130.3633,1.7151
130.3643,1.6924
130.3703,1.482
130.3703,1.2638
130.3703,1.2554
130.3713,1.2503
130.3713,1.375
130.3762,1.4612
130.3772,1.7717
130.3772,1.9711
130.3772,1.8818
130.3772,1.7894
130.3832,1.7719
130.3842,1.7108
130.3842,1.4129
130.3842,1.3112
130.3902,1.2552
130.3912,1.2477
130.3912,1.2696
130.3912,1.3949
130.3922,1.6394
130.3972,1.8111
130.3972,2.1683
130.3972,2.2677
130.3982,2.3579
130.4042,2.5546
130.4042,2.2917
130.4052,2.1241
130.4052,1.9463
130.4052,1.6322
130.4102,1.3845
130.4191,1.2904
130.4271,1.3161
130.4281,1.4897
130.4311,1.6763
130.4311,1.789
130.4321,1.8944
130.4321,2.2321
130.4321,2.3164
130.4331,2.0357
130.4331,1.8331
130.4331,1.4024
130.4331,1.2893
130.4341,1.2477
130.4341,1.249
130.4341,1.2557
130.4341,1.2741
130.4351,1.5887
130.4401,1.8244
130.4401,1.8766
130.4401,1.8691
130.4411,1.8683
130.4411,1.9148
130.4461,1.7425
130.4461,1.6328
130.4471,1.2852
130.4471,1.2998
130.4530,1.2807
130.4530,1.354
130.4540,1.3896
130.4540,1.504
130.4540,1.6928
130.4590,1.9596
130.4600,1.8889
130.4600,1.7697
130.4600,1.9566
130.4660,1.7097
130.4670,1.4012
130.4670,1.3529
130.4670,1.2912
130.4680,1.2473
130.4730,1.2715
130.4730,1.4946
130.4730,1.7101
130.4740,1.8912
130.4740,1.8597
130.4800,1.7547
130.4810,1.9557
130.4810,1.8856
130.4810,1.7029
130.4869,1.5915
130.4879,1.2923
130.4879,1.2512
130.4879,1.2464
130.4879,1.2464
130.4939,1.2653
130.4939,1.4196
130.4944,1.7247
130.4944,1.9401
130.4944,1.8726
130.4944,1.9587
130.4944,2.0134
130.4944,1.7446
130.4944,1.6591
130.4944,1.6185
130.4944,1.4232
130.4944,1.2524
130.4944,1.2471
130.5143,1.2475
130.5143,1.2486
130.5143,1.5267
130.5153,1.6225
130.5153,1.7864
130.5203,2.1726
130.5213,2.1721
130.5213,2.1449
130.5213,1.9251
130.5213,1.7631
130.5283,1.4807
130.5362,1.2709
130.5442,1.248
130.5462,1.2469
130.5482,1.248
130.5492,1.2516
130.5492,1.3069
130.5492,1.7378
130.5492,2.1387
130.5492,2.2135
130.5502,2.1244
130.5502,2.0183
130.5502,1.8529
130.5502,1.7959
130.5512,1.6028
130.5512,1.248
130.5512,1.2462
130.5512,1.2462
130.5542,1.2467
130.5542,1.4545
130.5552,1.5512
130.5552,1.7669
130.5612,1.9187
130.5612,2.0436
130.5622,1.9746
130.5622,1.8974
130.5622,1.6049
130.5682,1.5149
130.5682,1.3206
130.5682,1.2522
130.5682,1.2473
130.5691,1.2477
130.5751,1.2557
130.5751,1.4078
130.5751,1.7125
130.5761,1.915
130.5821,2.1784
130.5821,2.2255
130.5821,1.9302
130.5831,1.7622
130.5831,1.6373
130.5881,1.5413
130.5881,1.2679
130.5891,1.2465
130.5891,1.2464
130.5951,1.2462
130.5951,1.3309
130.5961,1.4534
130.5961,1.6009
130.5961,1.9416
130.6021,2.008
130.6021,2.023
130.6021,2.0192
130.6021,1.8484
130.6080,1.597
130.6090,1.3094
130.6090,1.2557
130.6090,1.251
130.6100,1.2825
130.6150,1.3862
130.6150,1.4089
130.6150,1.7717
130.6160,1.8957
130.6160,2.0586
130.6220,2.095
130.6220,1.9366
130.6230,1.7266
130.6230,1.6619
130.6290,1.5327
130.6290,1.248
130.6300,1.2462
130.6300,1.2464
130.6300,1.249
130.6360,1.3671
130.6380,1.7027
130.6400,1.8698
130.6469,2.1777
130.6549,2.2962
130.6569,2.1556
130.6589,1.9337
130.6589,1.5548
130.6599,1.3632
130.6599,1.2525
130.6599,1.2467
130.6599,1.2464
130.6609,1.2499
130.6609,1.2565
130.6609,1.3427
130.6609,1.4057
130.6619,1.666
130.6619,1.9958
130.6619,2.1786
130.6629,2.1029
130.6629,2.0159
130.6629,1.6847
130.6629,1.4442
130.6699,1.2567
130.6699,1.2464
130.6699,1.2464
130.6699,1.2505
130.6769,1.2769
130.6769,1.3465
130.6769,1.4897
130.6769,1.9491
130.6779,1.9765
130.6828,2.0819
130.6828,2.0631
130.6838,1.8111
130.6838,1.4877
130.6898,1.3628
130.6898,1.2552
130.6898,1.2464
130.6908,1.2462
130.6908,1.2529
130.6958,1.2735
130.6968,1.5844
130.6968,1.7693
130.6968,1.8923
130.7028,1.9017
130.7038,1.7391
130.7038,1.5411
130.7038,1.3748
130.7038,1.2614
130.7098,1.2469
130.7098,1.2465
130.7098,1.2467
130.7098,1.2465
130.7108,1.2486
130.7168,1.3474
130.7197,1.8494
130.7197,1.9105
130.7197,2.0474
130.7237,2.0356
130.7237,2.0204
130.7247,1.5989
130.7247,1.338
130.7247,1.2987
130.7297,1.2591
130.7307,1.2464
130.7307,1.2467
130.7307,1.2495
130.7367,1.2606
130.7377,1.3975
130.7377,1.6259
130.7377,1.8344
130.7387,1.87
130.7437,1.8492
130.7437,1.6988
130.7437,1.56
130.7447,1.2574
130.7507,1.2469
130.7566,1.2465
130.7646,1.2464
130.7666,1.3197
130.7686,1.5297
130.7696,1.467
130.7696,1.5276
130.7696,1.7026
130.7696,1.7144
130.7706,1.9257
130.7706,1.6253
130.7706,1.3238
130.7706,1.2501
130.7716,1.2464
130.7716,1.2464
130.7716,1.2462
130.7716,1.2477
130.7726,1.2726
130.7726,1.4277
130.7776,1.3999
130.7776,1.5156
130.7776,1.8563
130.7786,2.0288
130.7846,1.9232
130.7846,1.7483
130.7856,1.5955
130.7856,1.2599
130.7856,1.2535
130.7906,1.2469
130.7916,1.2464
130.7916,1.2518
130.7916,1.2962
130.7975,1.3099
130.7985,1.7342
130.7985,1.8691
130.7985,1.9214
130.7995,1.8856
130.8045,1.7116
130.8045,1.5366
130.8045,1.2951
130.8055,1.2537
130.8055,1.2479
130.8115,1.2467
130.8115,1.2475
130.8125,1.257
130.8125,1.2584
130.8185,1.2664
130.8185,1.507
130.8195,2.2572
130.8195,2.1117
130.8195,1.8621
130.8255,1.6622
130.8255,1.29
130.8255,1.3219
130.8255,1.2529
130.8324,1.2467
130.8324,1.2482
130.8324,1.2546
130.8324,1.2839
130.8334,1.4211
130.8384,1.6731
130.8384,1.9272
130.8394,2.0577
130.8394,2.0112
130.8454,1.759
130.8454,1.5306
130.8464,1.5306
130.8464,1.2668
130.8464,1.2533
130.8514,1.2465
130.8524,1.2475
130.8524,1.2895
130.8524,1.4183
130.8534,1.5533
130.8664,1.6052
130.8743,1.8196
130.8763,1.9424
130.8783,1.9711
130.8783,1.7217
130.8793,1.605
130.8793,1.4299
130.8793,1.2977
130.8793,1.2465
130.8803,1.2494
130.8803,1.2552
130.8803,1.294
130.8813,1.5799
130.8813,1.795
130.8813,2.0644
130.8823,2.0551
130.8823,1.996
130.8823,1.7222
130.8863,1.5771
130.8863,1.4219
130.8863,1.4867
130.8863,1.276
130.8933,1.2525
130.8933,1.2644
130.8933,1.4342
130.8933,1.4618
130.8943,1.6298
130.8993,2.0027
130.8993,2.0209
130.9003,1.8876
130.9003,1.8224
130.9003,1.7012
130.9062,1.6277
130.9072,1.4614
130.9072,1.2465
130.9072,1.2649
130.9132,1.2799
130.9142,1.2889
130.9142,1.669
130.9142,1.9557
130.9152,1.9487
130.9202,2.0684
130.9202,2.1957
130.9202,2.218
130.9212,2.0108
130.9272,1.7359
130.9272,1.3585
130.9282,1.2587
130.9282,1.2488
130.9282,1.2477
130.9332,1.2533
130.9342,1.3654
130.9342,1.438
130.9342,1.8739
130.9402,2.0147
130.9412,2.1034
130.9412,2.0836
130.9412,2.0834
130.9412,1.7046
130.9471,1.6825
130.9471,1.6172
130.9481,1.2816
130.9481,1.2552
130.9481,1.2814
130.9541,1.3574
130.9541,1.6917
130.9551,1.7438
130.9551,1.8017
130.9611,1.8314
130.9611,1.7896
130.9621,1.7419
130.9621,1.8417
130.9621,1.5914
130.9691,1.4768
130.9771,1.3956
130.9840,1.2497
130.9860,1.2649
130.9890,1.2732
130.9890,1.3502
130.9890,1.4843
130.9890,1.8604
130.9900,1.9167
130.9900,1.9281
130.9900,1.9159
130.9900,1.7146
130.9910,1.6478
130.9910,1.6332
130.9910,1.3236
130.9910,1.264
130.9920,1.2632
130.9920,1.2518
130.9940,1.2632
130.9950,1.4037
130.9950,1.7116
130.9950,1.9523
130.9950,1.8869
131.0020,1.8132
131.0020,1.9461
131.0020,1.6958
131.0020,1.4475
131.0090,1.3229
131.0090,1.2617
131.0090,1.257
131.0100,1.2627
131.0100,1.2987
131.0150,1.3335
131.0160,1.8334
131.0160,1.9122
131.0160,1.8788
131.0219,1.9621
131.0219,1.9476
131.0229,1.7851
131.0229,1.9442
131.0229,1.5158
131.0279,1.3249
131.0289,1.3654
131.0289,1.3242
131.0289,1.2904
131.0349,1.3409
131.0359,1.4117
131.0359,1.657
131.0359,1.8934
131.0369,1.9679
131.0419,2.2701
131.0419,2.1576
131.0419,1.9937
131.0429,1.7551
131.0429,1.6107
131.0489,1.4459
131.0489,1.258
131.0499,1.2469
131.0499,1.2467
131.0558,1.3253
131.0568,1.5233
131.0568,1.7573
131.0568,2.0526
131.0568,2.0768
131.0628,1.9506
131.0628,1.8803
131.0628,1.8233
131.0628,1.5582
131.0698,1.4554
131.0698,1.2885
131.0698,1.2475
131.0698,1.249
131.0708,1.2467
131.0778,1.2554
131.0858,1.5284
131.0937,1.8481
131.0957,2.0584
131.0987,2.0914
131.0987,2.0172
131.0997,2.0704
131.0997,2.047
131.0997,1.8917
131.0997,1.5392
131.1007,1.4457
131.1007,1.4959
131.1007,1.5921
131.1007,1.7048
131.1017,1.9392
131.1017,2.1711
131.1017,2.3558
131.1027,2.2409
131.1037,2.2698
131.1037,2.1687
131.1047,1.8841
131.1047,1.7153
131.1047,1.5173
131.1097,1.3514
131.1107,1.2514
131.1107,1.2921
131.1107,1.3656
131.1167,1.4592
131.1177,1.6836
131.1177,1.9514
131.1177,1.9062
131.1177,1.8411
131.1237,1.6456
131.1237,1.7742
131.1237,1.8394
131.1247,1.2805
131.1306,1.258
131.1306,1.2475
131.1306,1.2473
131.1316,1.3024
131.1316,1.5107
131.1366,1.6377
131.1376,1.7776
131.1376,2.0033
131.1376,2.0312
131.1376,2.0894
131.1446,1.8874
131.1446,1.6864
131.1446,1.3857
131.1446,1.26
131.1526,1.2499
131.1536,1.2464
131.1536,1.2467
131.1536,1.324
131.1536,1.762
131.1596,1.7856
131.1596,2.0772
131.1596,2.0416
131.1596,2.0665
131.1665,2.0106
131.1665,1.6139
131.1665,1.3791
131.1665,1.2595
131.1675,1.2475
131.1725,1.2495
131.1725,1.3185
131.1735,1.5651
131.1735,1.9681
131.1795,1.8914
131.1795,1.9279
131.1805,2.0674
131.1805,2.0804
131.1805,2.0042
131.1865,1.9156
131.1885,1.6255
131.1905,1.2527
131.1975,1.2465
131.2044,1.2475
131.2064,1.2546
131.2084,1.3045
131.2094,1.5327
131.2094,1.7702
131.2094,1.7344
131.2094,2.3198
131.2104,2.1143
131.2104,2.0654
131.2104,1.7196
131.2104,1.5233
131.2114,1.312
131.2114,1.2647
131.2114,1.2555
131.2134,1.2662
131.2144,1.3101
131.2144,1.303
131.2144,1.6862
131.2154,1.5814
131.2204,1.5895
131.2204,1.7789
131.2204,2.0039
131.2204,2.0314
131.2274,1.7035
131.2274,1.3757
131.2274,1.2666
131.2274,1.249
131.2284,1.2479
131.2334,1.2989
131.2334,1.2912
131.2344,1.386
131.2344,1.5051
131.2344,1.9958
131.2403,1.8871
131.2413,2.0562
131.2413,1.9834
131.2413,1.5771
131.2473,1.396
131.2483,1.3137
131.2483,1.2499
131.2483,1.2467
131.2483,1.2495
131.2543,1.2469
131.2543,1.3956
131.2543,1.4689
131.2543,1.6797
131.2613,1.8797
131.2613,1.6639
131.2613,1.9322
131.2613,1.9019
131.2623,1.7361
131.2673,1.3013
131.2673,1.2893
131.2683,1.2529
131.2683,1.2469
131.2743,1.251
131.2743,1.2525
131.2753,1.429
131.2753,1.6769
131.2753,1.6896
131.2802,1.7573
131.2812,2.0419
131.2812,1.9637
131.2812,1.4573
131.2812,1.2722
131.2882,1.2606
131.2882,1.2567
131.2882,1.2465
131.2882,1.2462
131.2952,1.2471
131.2952,1.2516
131.2952,1.362
131.2952,1.5062
131.2962,1.8451
131.3052,1.9643
131.3132,1.9602
131.3142,1.966
131.3171,1.8428
131.3171,1.3185
131.3171,1.2947
131.3181,1.2475
131.3181,1.2464
131.3181,1.2522
131.3181,1.3245
131.3181,1.5531
131.3191,1.7131
131.3191,1.8036
131.3211,1.8812
131.3221,1.9857
131.3221,1.8278
131.3221,1.5936
131.3221,1.5233
131.3281,1.4575
131.3281,1.3949
131.3281,1.2467
131.3291,1.2473
131.3291,1.251
131.3351,1.2994
131.3351,1.7479
131.3351,1.9276
131.3361,2.0596
131.3421,2.122
131.3421,2.1001
131.3431,1.7972
131.3431,1.6594
131.3431,1.6379
131.3481,1.2749
131.3491,1.2488
131.3491,1.2462
131.3491,1.2572
131.3550,1.2942
131.3560,1.3485
131.3560,1.4815
131.3560,1.7659
131.3560,1.6898
131.3620,1.8734
131.3620,2.1893
131.3620,1.855
131.3620,1.6516
131.3690,1.3701
131.3690,1.3469
131.3690,1.2525
131.3700,1.2499
131.3700,1.2525
131.3750,1.317
131.3750,1.3924
131.3760,1.5812
131.3760,1.7515
131.3760,1.9156
131.3820,1.9647
131.3830,1.8139
131.3830,1.6634
131.3830,1.5306
131.3890,1.2499
131.3899,1.2471
131.3899,1.2469
131.3899,1.2486
131.3899,1.2578
131.3959,1.2735
131.3959,1.315
131.3959,1.7971
131.3969,2.2154
131.4029,2.1724
131.4029,2.0626
131.4029,1.8739
131.4039,1.735
131.4039,1.4269
131.4099,1.2533
131.4139,1.2465
131.4189,1.2462
131.4269,1.2464
131.4289,1.2495
131.4318,1.3945
131.4318,1.5347
131.4318,1.8419
131.4318,2.1079
131.4328,2.0299
131.4328,1.9487
131.4328,1.7731
131.4328,1.8349
131.4338,1.2994
131.4338,1.2473
131.4338,1.2464
131.4348,1.2464
131.4348,1.2524
131.4368,1.2711
131.4368,1.3324
131.4368,1.4627
131.4378,1.8143
131.4378,1.903
131.4428,2.0461
131.4428,1.9561
131.4438,1.6744
131.4438,1.5008
131.4498,1.2698
131.4498,1.2469
131.4508,1.2467
131.4508,1.2518
131.4508,1.3502
131.4568,1.3725
131.4568,1.5205
131.4568,1.6636
131.4568,1.846
131.4638,1.8089
131.4638,2.0498
131.4638,1.9696
131.4647,1.7937
131.4647,1.4145
131.4697,1.2499
131.4697,1.2464
131.4697,1.2465
131.4707,1.2464
131.4707,1.2555
131.4767,1.3253
131.4777,1.4659
131.4777,1.6259
131.4777,1.7622
131.4837,1.8604
131.4847,1.3
131.4847,1.2649
131.4847,1.2602
131.4847,1.2471
131.4907,1.2464
131.4907,1.2464
131.4907,1.2471
131.4907,1.2634
131.4977,1.2844
131.4977,1.3729
131.4977,1.7567
131.4977,1.9592
131.4987,1.8717
131.5036,2.0341
131.5036,1.8691
131.5046,1.4474
131.5046,1.3133
131.5106,1.2482
131.5106,1.2462
131.5116,1.2464
131.5116,1.2464
131.5116,1.2467
131.5166,1.2797
131.5176,1.9011
131.5176,1.9456
131.5176,2.1023
131.5186,1.8287
131.5306,1.8239
131.5386,1.4922
131.5405,1.3725
131.5425,1.2484
131.5425,1.2464
131.5435,1.2464
131.5435,1.2465
131.5435,1.257
131.5435,1.4063
131.5445,1.5014
131.5445,1.7071
131.5445,1.8316
131.5445,1.8319
131.5455,1.8904
131.5455,1.9309
131.5455,1.3332
131.5455,1.4123
131.5465,1.2484
131.5515,1.2462
131.5515,1.2464
131.5515,1.2462
131.5515,1.2495
131.5585,1.3345
131.5585,1.6587
131.5585,1.7911
131.5595,2.2628
131.5595,1.9009
131.5645,1.7474
131.5655,1.5891
131.5655,1.2473
131.5655,1.2464
131.5655,1.2469
131.5715,1.2469
131.5725,1.2465
131.5725,1.2542
131.5725,1.2947
131.5784,1.5034
131.5794,1.9981
131.5794,2.0729
131.5794,1.9056
131.5794,1.8066
131.5854,1.3197
131.5854,1.3219
131.5854,1.3004
131.5864,1.2471
131.5924,1.2471
131.5924,1.2479
131.5924,1.2477
131.5934,1.2578
131.5934,1.3199
131.5985,1.414
131.5985,2.0506
131.5995,2.0297
131.5995,1.7421
131.6055,1.5477
131.6055,1.6005
131.6065,1.2578
131.6065,1.2467
131.6065,1.2467
131.6125,1.2469
131.6125,1.2471
131.6125,1.2464
131.6125,1.2537
131.6135,1.351
131.6195,1.7252
131.6195,2.0387
131.6195,2.1228
131.6205,1.9486
131.6264,1.4136
131.6264,1.2869
131.6264,1.2799
131.6274,1.2462
131.6274,1.2462
131.6354,1.2464
131.6404,1.2467
131.6504,1.2492
131.6514,1.2741
131.6544,1.4369
131.6544,1.486
131.6544,1.7481
131.6554,1.6857
131.6554,1.8321
131.6554,1.3202
131.6554,1.3748
131.6564,1.4082
131.6564,1.2465
131.6564,1.2467
131.6564,1.2464
131.6574,1.2465
131.6574,1.2469
131.6574,1.3934
131.6593,1.7005
131.6593,1.7451
131.6603,1.7496
131.6603,1.4196
131.6603,1.3189
131.6663,1.3748
131.6673,1.2891
131.6673,1.2465
131.6673,1.2469
131.6733,1.2465
131.6743,1.2469
131.6743,1.2469
131.6743,1.2488
131.6743,1.4539
131.6803,1.9026
131.6803,1.9516
131.6803,1.7123
131.6813,1.5119
131.6873,1.2854
131.6873,1.2469
131.6873,1.2467
131.6883,1.2475
131.6883,1.2473
131.6933,1.2471
131.6933,1.2464
131.6943,1.2464
131.6943,1.2473
131.7002,1.2782
131.7002,1.7194
131.7012,1.9682
131.7012,2.0926
131.7012,1.8269
131.7072,1.5887
131.7072,1.2651
131.7072,1.2465
131.7072,1.2469
131.7082,1.2475
131.7142,1.2467
131.7142,1.2465
131.7142,1.2529
131.7152,1.5055
131.7212,1.837
131.7242,1.9656
131.7242,1.7146
131.7242,1.6838
131.7252,1.5612
131.7272,1.4215
131.7282,1.4665
131.7282,1.2465
131.7282,1.2469
131.7341,1.2492
131.7351,1.2469
131.7351,1.2527
131.7351,1.278
131.7351,1.4809
131.7411,1.5565
131.7431,1.8788
131.7451,1.2655
131.7471,1.2482
131.7531,1.2546
131.7611,1.2465
131.7621,1.2464
131.7639,1.2465
131.7639,1.2469
131.7639,1.2464
131.7639,1.2465
131.7639,1.2465
131.7639,1.2465
131.7639,1.3517
131.7639,1.6133
131.7639,1.4999
131.7639,1.4532
131.7639,1.4157
131.7639,1.2876
131.7639,1.258
131.7639,1.2467
131.7639,1.2465
131.7639,1.2473
131.7639,1.2467
131.7639,1.2465
131.7639,1.2479
131.7639,1.2512
131.7815,1.4873
131.7825,1.4106
131.7825,1.3193
131.7825,1.2887
131.7825,1.2501
131.7884,1.2467
131.7884,1.2467
131.7884,1.2469
131.7884,1.2469
131.7954,1.2471
131.7954,1.2469
131.7954,1.2469
131.7954,1.2469
131.7964,1.4637
131.8014,1.6821
131.8014,1.3806
131.8024,1.4462
131.8024,1.4886
131.8024,1.3172
131.8084,1.3347
131.8094,1.2473
131.8094,1.2469
131.8094,1.2467
131.8154,1.2464
131.8164,1.2501
131.8164,1.2503
131.8164,1.4055
131.8164,1.5392
131.8223,1.5085
131.8223,1.5452
131.8223,1.4796
131.8233,1.2754
131.8293,1.2486
131.8293,1.2514
131.8293,1.2495
131.8293,1.2467
131.8303,1.2469
131.8353,1.2477
131.8353,1.251
131.8363,1.2711
131.8363,1.503
131.8423,1.4172
131.8423,1.9315
131.8433,1.4012
131.8453,1.9221
131.8473,1.6746
131.8553,1.2745
131.8602,1.2524
131.8632,1.2479
131.8652,1.248
131.8672,1.2473
131.8682,1.4685
131.8682,1.3015
131.8682,1.9135
131.8682,1.4198
131.8692,1.602
131.8692,1.6219
131.8692,1.3431
131.8702,2.1139
131.8702,1.6842
131.8702,1.5036
131.8702,1.7301
131.8702,1.6941
131.8712,2.3513
131.8762,2.3466
131.8762,2.608
131.8772,2.5958
131.8772,1.6324
131.8772,1.3444
131.8842,1.3922
131.8852,1.2653
131.8852,1.2649
131.8852,1.2565
131.8912,1.2514
131.8922,1.3034
131.8922,2.3187
131.8922,2.6528
131.8922,2.653
131.8981,2.6528
131.8981,2.6528
131.8981,1.7211
131.8991,1.6589
131.8991,1.2649
131.9051,1.2655
131.9051,1.2653
131.9051,1.2647
131.9061,1.2559
131.9121,1.2488
131.9121,2.3478
131.9131,2.6528
131.9131,2.6526
131.9131,2.6526
131.9181,2.6536
131.9191,2.4466
131.9191,1.8169
131.9191,1.2642
131.9251,1.2647
131.9261,1.2657
131.9261,1.2653
131.9261,1.2576
131.9261,1.2503
131.9321,1.2743
131.9321,2.1608
131.9321,2.6528
131.9331,2.6526
131.9390,2.6526
131.9390,2.2394
131.9390,1.9086
131.9400,1.7911
131.9400,1.2644
131.9450,1.2655
131.9450,1.2651
131.9460,1.2651
131.9460,1.2576
131.9460,1.2492
131.9520,2.1093
131.9530,2.6525
131.9560,2.6526
131.9640,2.6528
131.9719,2.6528
131.9739,2.4708
131.9769,1.3356
131.9769,1.263
131.9779,1.2653
131.9779,1.2657
131.9779,1.2651
131.9779,1.2585
131.9789,1.2514
131.9789,1.3907
131.9789,2.6526
131.9789,2.6526
131.9799,2.6528
131.9799,2.6528
131.9799,2.1473
131.9799,1.9067
131.9809,1.5578
131.9809,1.263
131.9859,1.2655
131.9869,1.2653
131.9869,1.2645
131.9869,1.2593
131.9869,1.2499
131.9929,1.9861
131.9929,2.6526
131.9929,2.6526
131.9929,2.6528
131.9939,2.6528
131.9999,2.5881
131.9999,1.3519
131.9999,1.3635
132.0009,1.2647
132.0069,1.2651
132.0069,1.2649
132.0069,1.2602
132.0079,1.2636
132.0079,1.441
132.0128,2.6528
132.0128,2.6528
132.0138,2.653
132.0138,2.6526
132.0198,2.1871
132.0198,1.9467
132.0208,1.5494
132.0208,1.2818
132.0208,1.2655
132.0268,1.2651
132.0268,1.2653
132.0268,1.26
132.0268,1.2499
132.0328,2.0547
132.0338,2.6528
132.0338,2.6528
132.0338,2.653
132.0348,2.6526
132.0398,2.6581
132.0398,2.1544
132.0398,1.4723
132.0408,1.2649
132.0408,1.2655
132.0467,1.2655
132.0467,1.261
132.0477,1.2651
132.0477,1.4942
132.0537,1.7592
132.0537,2.6532
132.0547,2.6528
132.0547,2.6526
132.0547,2.2281
132.0607,2.3254
132.0627,1.873
132.0647,1.309
132.0717,1.2653
132.0797,1.2655
132.0817,1.2651
132.0836,1.2602
132.0836,1.2537
132.0846,1.9204
132.0846,2.6528
132.0846,2.6528
132.0846,2.6528
132.0856,2.653
132.0856,2.6573
132.0856,2.2371
132.0856,1.6257
132.0866,1.2649
132.0866,1.2655
132.0866,1.2653
132.0866,1.2621
132.0876,1.2512
132.0876,1.335
132.0876,1.6463
132.0936,2.6526
132.0946,2.6528
132.0946,2.6528
132.0946,2.6528
132.1006,2.1074
132.1016,1.5792
132.1016,1.381
132.1016,1.2653
132.1016,1.2657
132.1076,1.2651
132.1076,1.2608
132.1076,1.2548
132.1086,1.7618
132.1146,2.6526
132.1146,2.6528
132.1156,2.6528
132.1156,2.6528
132.1156,2.4293
132.1206,1.9096
132.1206,1.6587
132.1215,1.2645
132.1215,1.2651
132.1275,1.2655
132.1275,1.2629
132.1285,1.2503
132.1285,1.2857
132.1285,1.6217
132.1345,2.6528
132.1345,2.6528
132.1345,2.6526
132.1345,2.6528
132.1355,1.9356
132.1415,1.6105
132.1415,1.4204
132.1415,1.2651
132.1425,1.2657
132.1485,1.2649
132.1485,1.2627
132.1485,1.2677
132.1495,1.5235
132.1495,2.6528
132.1545,2.6528
132.1545,2.6528
132.1555,2.6528
132.1555,2.5773
132.1614,1.9195
132.1614,1.3635
132.1624,1.2653
132.1624,1.2655
132.1624,1.2655
132.1674,1.264
132.1684,1.2522
132.1684,1.3307
132.1684,1.4267
132.1794,2.6528
132.1794,2.6526
132.1794,2.6526
132.1794,2.6528
132.1804,1.9538
132.1884,1.5833
132.1894,1.3624
132.1914,1.2651
132.1924,1.2653
132.1924,1.2651
132.1924,1.2638
132.1934,1.2544
132.1934,1.4867
132.1934,2.653
132.1954,2.6526
132.1963,2.6528
132.1963,2.653
132.1963,2.5752
132.1963,2.0022
132.2023,1.3789
132.2023,1.2647
132.2023,1.2657
132.2023,1.2655
132.2093,1.2644
132.2093,1.2527
132.2093,1.2615
132.2093,1.3887
132.2103,2.653
132.2153,2.6528
132.2153,2.6526
132.2163,2.6526
132.2163,2.1423
132.2223,1.6127
132.2223,1.4468
132.2233,1.2653
132.2233,1.2653
132.2233,1.2659
132.2283,1.2642
132.2293,1.2503
132.2293,1.4781
132.2293,2.5463
132.2293,2.6526
132.2362,2.653
132.2362,2.653
132.2362,2.654
132.2372,1.8548
132.2432,1.6465
132.2432,1.2649
132.2432,1.2653
132.2442,1.2655
132.2442,1.2642
132.2492,1.2539
132.2492,1.3587
132.2502,2.4906
132.2502,2.6528
132.2562,2.6528
132.2572,2.6528
132.2572,2.6538
132.2572,2.2056
132.2572,1.6045
132.2633,1.3847
132.2633,1.2655
132.2633,1.2653
132.2633,1.2651
132.2693,1.2552
132.2703,1.3373
132.2703,1.4633
132.2703,2.3943
132.2713,2.6528
132.2764,2.6528
132.2764,2.6526
132.2764,2.6528
132.2774,1.5743
132.2774,1.7451
132.2894,1.2653
132.2954,1.2653
132.2974,1.2653
132.2994,1.2642
132.2994,1.2546
132.3004,1.2531
132.3004,2.5206
132.3004,2.653
132.3004,2.6528
132.3014,2.6528
132.3014,2.6534
132.3014,2.2429
132.3024,1.6928
132.3034,1.2649
132.3044,1.2657
132.3044,1.2653
132.3044,1.2653
132.3054,1.2649
132.3104,1.2644
132.3104,1.2649
132.3104,1.2651
132.3114,1.2651
132.3174,1.2649
132.3174,1.2649
132.3174,1.2653
132.3184,1.2651
132.3184,1.2645
132.3234,1.2655
132.3234,1.2662
132.3244,1.2662
132.3244,1.2651
132.3244,1.2657
132.3304,1.2638
132.3314,1.2651
132.3314,1.2644
132.3314,1.2632
132.3373,1.2634
132.3383,1.2642
132.3383,1.2651
132.3383,1.2655
132.3383,1.2653
132.3443,1.2657
132.3443,1.266
132.3443,1.266
132.3453,1.2653
132.3513,1.2629
132.3513,1.2606
132.3513,1.257
132.3523,1.2537
132.3523,1.254
132.3574,1.2623
132.3574,1.2649
132.3574,1.2653
132.3584,1.2647
132.3644,1.2651
132.3644,1.2664
132.3654,1.2664
132.3654,1.2662
132.3654,1.2653
132.3704,1.2655
132.3714,1.2653
132.3714,1.2653
132.3714,1.2653
132.3714,1.2651
132.3784,1.2645
132.3784,1.2647
132.3784,1.2653
132.3784,1.2655
132.3855,1.2662
132.3855,1.2666
132.3855,1.2664
132.3855,1.2649
132.3865,1.2597
132.3925,1.2591
132.4005,1.4815
132.4035,2.6528
132.4095,2.6528
132.4135,2.6528
132.4135,1.6932
132.4145,1.2848
132.4145,1.2509
132.4145,1.263
132.4145,1.2659
132.4155,1.2657
132.4155,1.2651
132.4155,1.2615
132.4155,1.2524
132.4165,1.8818
132.4165,2.6526
132.4165,2.6528
132.4175,2.6528
132.4185,2.6528
132.4185,1.8051
132.4185,1.3247
132.4185,1.335
132.4195,1.2655
132.4254,1.2659
132.4254,1.266
132.4254,1.2619
132.4254,1.2518
132.4325,1.3049
132.4325,2.6528
132.4325,2.6528
132.4325,2.653
132.4335,2.6525
132.4385,1.957
132.4395,1.5974
132.4395,1.35
132.4395,1.2604
132.4456,1.2657
132.4456,1.2657
132.4466,1.2657
132.4466,1.2629
132.4466,1.2525
132.4516,1.6849
132.4526,2.6528
132.4526,2.6528
132.4526,2.6528
132.4587,2.6528
132.4597,2.305
132.4597,1.2561
132.4597,1.503
132.4597,1.2653
132.4658,1.2657
132.4658,1.2651
132.4658,1.2614
132.4668,1.278
132.4668,1.5233
132.4727,2.6528
132.4727,2.653
132.4737,2.6526
132.4737,2.6526
132.4798,2.2176
132.4798,1.8989
132.4808,1.5619
132.4808,1.2651
132.4808,1.2653
132.4859,1.2655
132.4869,1.2651
132.4869,1.2512
132.4869,1.3489
132.4929,1.7147
132.4939,2.6526
132.4939,2.6526
132.4939,2.6532
132.4939,2.653
132.4999,2.6123
