1.568673
1.570173
1.570548
1.570735
1.567735
1.567735
1.567173
1.566985
1.569235
1.56961
1.572798
1.570548
1.567735
1.567548
1.568298
1.568298
1.573735
1.57036
1.569798
1.569048
1.567735
1.568298
1.569798
1.570173
1.566985
1.566985
1.567173
1.56811
1.570548
1.570735
1.570173
1.569235
1.567735
1.568298
1.57336
1.57336
1.570173
1.570548
1.56886
1.569048
1.569048
1.569235
1.568298
1.566985
1.566985
1.56811
1.569235
1.569235
1.569798
1.570735
1.56811
1.56961
1.569798
1.571673
1.571673
1.56886
1.569048
1.56886
1.569235
1.568673
1.569798
1.570735
1.56661
1.566985
1.566985
1.56886
1.569235
1.571486
1.572423
1.56886
1.56811
1.56886
1.573173
1.570548
1.570548
1.568673
1.569048
1.570923
1.56886
1.570548
1.567735
1.56811
1.56736
1.56811
1.56811
1.57036
1.572423
1.570548
1.569048
1.569235
1.570173
1.57336
1.570923
1.570923
1.57111
1.57036
1.57111
1.56886
1.57261
1.570548
1.566048
1.56811
1.569235
1.569235
1.570173
1.57186
1.573735
1.56961
1.568485
1.569048
1.573173
1.570735
1.569985
1.569985
1.567735
1.569235
1.568485
1.569985
1.568485
1.568673
1.56736
1.569423
1.567735
1.567735
1.572048
1.569798
1.569235
1.569423
1.569235
1.571486
1.570923
1.570923
1.568485
1.568485
1.57111
1.569985
1.570735
1.57186
1.569048
1.56961
1.56961
1.569798
1.572048
1.572048
1.572798
1.569048
1.569048
1.56886
1.57186
1.57186
1.570735
1.570735
1.570735
1.568298
1.568673
1.569798
1.569235
1.56811
1.56886
1.569985
1.569798
1.570735
1.570735
1.57186
1.570548
1.568298
1.571486
1.574111
1.571486
1.570548
1.569985
1.569235
1.569235
1.568673
1.570548
1.569798
1.568485
1.566985
1.56961
1.569798
1.57186
1.571486
1.571486
1.56961
1.567548
1.571486
1.571298
1.570173
1.571673
1.570923
1.568673
1.56961
1.56961
1.569798
1.569985
1.567923
1.567735
1.569235
1.570548
1.571673
1.571673
1.571673
1.56961
1.568485
1.56961
1.572798
1.570923
1.571673
1.57036
1.56961
1.569985
1.569985
1.57036
1.570173
1.567735
1.564923
1.56736
1.57111
1.56886
1.569235
1.568298
1.568298
1.568298
1.56886
1.572235
1.572986
1.570548
1.56961
1.568485
1.568673
1.568485
1.568485
1.568298
1.569423
1.567735
1.568673
1.57036
1.57036
1.571673
1.569985
1.568298
1.568298
1.57036
1.572048
1.570548
1.570735
1.57186
1.569048
1.570173
1.567173
1.567173
1.569235
1.567735
1.567173
1.569985
1.568298
1.571298
1.57186
1.571486
1.568298
1.568298
1.568485
1.571486
1.572048
1.572048
1.570923
1.569048
1.568485
1.567735
1.569798
1.569798
1.568485
1.56886
1.567923
1.56961
1.571298
1.570923
1.57111
1.571298
1.568673
1.568673
1.571486
1.571486
1.569235
1.570735
1.569985
1.568673
1.569048
1.569235
1.567548
1.567548
1.566235
1.569423
1.569798
1.57111
1.572235
1.57111
1.57036
1.569423
1.569423
1.572048
1.570735
1.569798
1.567735
1.57036
1.56811
1.567735
1.570548
1.567923
1.567923
1.56661
1.57036
1.569423
1.572048
1.570548
1.56811
1.56811
1.567735
1.571298
1.571298
1.572986
1.57111
1.570735
1.567923
1.567173
1.570173
1.569423
1.569235
1.566985
1.566985
1.569423
1.569048
1.57336
1.570548
1.57036
1.56811
1.569235
1.571673
1.572423
1.572423
1.569985
1.569235
1.569048
1.56961
1.570173
1.571298
1.569235
1.566985
1.567735
1.567735
1.569423
1.569235
1.57111
1.57036
1.569048
1.569048
1.570735
1.570173
1.570173
1.569423
1.570548
1.57036
1.570923
1.57036
1.572048
1.568485
1.567173
1.570735
1.570735
1.56961
1.572798
1.570173
1.571298
1.568673
1.567735
1.568673
1.571486
1.569235
1.569235
1.569423
1.569985
1.57036
1.571298
1.569798
1.569798
1.566048
1.567548
1.56961
1.56961
1.571486
1.57036
1.572235
1.568298
1.569048
1.570173
1.572048
1.571486
1.569985
1.569985
1.569985
1.571486
1.57036
1.570923
1.569423
1.56811
1.569048
1.567923
1.567923
1.569985
1.572235
1.574298
1.568298
1.568485
1.570548
1.57111
1.57111
1.570173
1.570173
1.569423
1.570173
1.569423
1.570735
1.567548
1.567735
1.56961
1.569985
1.572986
1.572986
1.572986
1.57261
1.567173
1.56961
1.570548
1.572423
1.571298
1.57111
1.569985
1.569985
1.569423
1.568485
1.571673
1.570173
1.56736
1.569048
1.57036
1.570735
1.572798
1.572798
1.57186
1.569423
1.569798
1.571673
1.572986
1.57036
1.570548
1.57111
1.57111
1.569423
1.571486
1.570735
1.567923
1.567548
1.568673
1.56961
1.57186
1.572235
1.572235
1.572048
1.569048
1.567735
1.570548
1.573173
1.57186
1.570735
1.570923
1.57036
1.57036
1.569048
1.56961
1.569423
1.568485
1.57036
1.56886
1.570923
1.570548
1.57111
1.57111
1.569048
1.569048
1.57036
1.574298
1.569985
1.56961
1.56961
1.569798
1.569235
1.569235
1.56961
1.56886
1.569235
1.569048
1.569048
1.569423
1.572423
1.570735
1.568485
1.568485
1.568485
1.568485
1.571486
1.572235
1.570735
1.570923
1.569985
1.570173
1.570173
1.569048
1.570923
1.567548
1.567923
1.56886
1.570548
1.571298
1.571486
1.567735
1.567735
1.56811
1.57036
1.572048
1.571298
1.570735
1.568298
1.570173
1.569985
1.57111
1.57111
1.56886
1.567735
1.569235
1.56961
1.571673
1.571298
1.572798
1.569798
1.56811
1.56811
1.569798
1.572423
1.571298
1.569235
1.570173
1.571673
1.570173
1.57111
1.569985
1.569985
1.568673
1.56811
1.568298
1.571673
1.570923
1.571298
1.570923
1.56961
1.56961
1.570548
1.571486
1.57186
1.571673
1.569985
1.569423
1.567735
1.569423
1.569985
1.569985
1.568485
1.56811
1.569048
1.569798
1.572235
1.572235
1.569235
1.566985
1.569423
1.569423
1.571298
1.570548
1.569235
1.569048
1.569423
1.56886
1.57036
1.569985
1.566985
1.566985
1.569985
1.569235
1.572048
1.571673
1.572235
1.57111
1.56886
1.56886
1.571486
1.571486
1.57036
1.571298
1.57111
1.57036
1.57036
1.569798
1.569798
1.569048
1.569048
1.568298
1.570735
1.570548
1.573173
1.573735
1.567923
1.56961
1.570735
1.573735
1.573735
1.571486
1.572798
1.572048
1.570923
1.570173
1.56886
1.56961
1.56961
1.569423
1.569423
1.567735
1.569048
1.57186
1.572235
1.569985
1.57036
1.569423
1.57186
1.570735
1.570735
1.572235
1.569235
1.569235
1.570548
1.570173
1.569235
1.567548
1.568298
1.572423
1.572986
1.572986
1.57261
1.570735
1.570548
1.569235
1.572048
1.571673
1.571673
1.569423
1.571673
1.571673
1.571673
1.570923
1.57111
1.569423
1.56886
1.569985
1.57036
1.571673
1.571673
1.572048
1.572048
1.570735
1.569423
1.57336
1.57186
1.571673
1.57111
1.570735
1.570735
1.569048
1.571298
1.569423
1.56961
1.566798
1.567548
1.57036
1.572986
1.572048
1.572048
1.570548
1.568485
1.569235
1.572986
1.570173
1.57111
1.569985
1.570923
1.570548
1.570548
1.571298
1.571298
1.56886
1.567173
1.567735
1.569423
1.57336
1.570735
1.57036
1.57036
1.56811
1.569985
1.572986
1.57111
1.57261
1.569985
1.570173
1.568298
1.568298
1.569423
1.570548
1.569985
1.569048
1.568673
1.570173
1.569985
1.572798
1.569423
1.569423
1.568485
1.568673
1.571673
1.57186
1.56961
1.56961
1.56961
1.57111
1.569048
1.569048
1.571673
1.570735
1.568485
1.568485
1.569235
1.57261
1.571298
1.571673
1.567735
1.567735
1.567923
1.571486
1.572048
1.57186
1.570173
1.570173
1.569798
1.570173
1.571298
1.571298
1.567548
1.567173
1.570735
1.569423
1.571673
1.570923
1.57186
1.567923
1.567923
1.568485
1.57186
1.57186
1.57036
1.570173
1.56886
1.57036
1.570548
1.569985
1.569985
1.568298
1.567173
1.568673
1.568485
1.571486
1.570548
1.56961
1.56886
1.56811
1.56811
1.571673
1.572048
1.56961
1.570173
1.566423
1.56886
1.57111
1.57036
1.566985
1.566985
1.567735
1.567735
1.568485
1.570173
1.57186
1.570548
1.568298
1.569048
1.572798
1.572798
1.569235
1.569985
1.569048
1.569048
1.569048
1.569798
1.569423
1.568298
1.568298
1.566423
1.567735
1.568673
1.570173
1.570735
1.569423
1.56736
1.567735
1.568485
1.568485
1.570923
1.57111
1.569798
1.566798
1.567735
1.568673
1.570923
1.56886
1.568298
1.568298
1.56811
1.568485
1.569423
1.572423
1.572798
1.568673
1.567735
1.57036
1.572235
1.572235
1.569048
1.569985
1.56961
1.569423
1.567173
1.570923
1.570173
1.56586
1.568673
1.568673
1.567548
1.57111
1.569798
1.57111
1.56736
1.566985
1.57111
1.571486
1.571486
1.570735
1.568485
1.56886
1.56811
1.56736
1.570735
1.568298
1.56586
1.568298
1.568298
1.569048
1.570548
1.570735
1.570923
1.570735
1.566798
1.570735
1.57111
1.569423
1.569423
1.569235
1.56736
1.566985
1.56811
1.568485
1.568673
1.566423
1.566798
1.568485
1.568485
1.569798
1.569985
1.56961
1.567173
1.568298
1.569423
1.568485
1.56961
1.569423
1.569423
1.568298
1.569985
1.56886
1.56961
1.56886
1.565673
1.567923
1.567173
1.570923
1.570923
1.571486
1.569798
1.566985
1.566798
1.569423
1.56961
1.56886
1.569235
1.569235
1.567548
1.56811
1.56811
1.56811
1.568485
1.565298
1.566048
1.56811
1.569423
1.569423
1.569235
1.568673
1.568298
1.567173
1.568673
1.571298
1.569423
1.569048
1.567548
1.567548
1.568673
1.567173
1.569985
1.56811
1.566048
1.566048
1.566235
1.569048
1.570548
1.570548
1.571298
1.57036
1.566985
1.570173
1.571673
1.569423
1.568298
1.56586
1.56736
1.56736
1.566798
1.569048
1.56811
1.565298
1.566798
1.567735
1.569798
1.57186
1.57186
1.56961
1.565673
1.566985
1.568485
1.569048
1.57036
1.56886
1.568485
1.566048
1.566048
1.567173
1.568298
1.567548
1.566798
1.56661
1.56811
1.56736
1.56886
1.569798
1.569798
1.566048
1.566798
1.566423
1.571298
1.56961
1.568298
1.567735
1.56736
1.566798
1.566798
1.569235
1.56661
1.565298
1.565298
1.567735
1.567735
1.567548
1.568485
1.56436
1.56436
1.56736
1.56886
1.57036
1.569048
1.568298
1.566235
1.568673
1.56736
1.56736
1.567173
1.567923
1.564923
1.566798
1.566048
1.56736
1.56961
1.570923
1.56736
1.56736
1.567173
1.568485
1.568673
1.568485
1.568485
1.565298
1.566423
1.566985
1.566423
1.566423
1.56811
1.56511
1.56661
1.56811
1.566985
1.567735
1.569235
1.56736
1.56736
1.56736
1.567548
1.569423
1.567173
1.567735
1.565298
1.566423
1.569423
1.56811
1.56661
1.56661
1.56436
1.564548
1.568298
1.567173
1.569423
1.569423
1.565673
1.566235
1.566235
1.56661
1.572048
1.568673
1.567735
1.567173
1.567735
1.564735
1.566235
1.56586
1.56586
1.565298
1.565673
1.566423
1.56736
1.568485
1.56811
1.567173
1.566235
1.566235
1.566235
1.569798
1.567735
1.567735
1.565673
1.565673
1.56661
1.56886
1.566235
1.564923
1.564923
1.564173
1.56511
1.56511
1.56886
1.56811
1.566048
1.566048
1.566985
1.569985
1.569985
1.568298
1.566985
1.565298
1.567548
1.566048
1.56736
1.56586
1.566235
1.56511
1.56511
1.56511
1.56661
1.567735
1.567923
1.566048
1.56661
1.566985
1.568673
1.568673
1.569985
1.567923
1.566798
1.568298
1.564923
1.568298
1.56586
1.564923
1.56436
1.56436
1.566985
1.565485
1.56811
1.56886
1.567173
1.566235
1.564923
1.56886
1.567735
1.567735
1.566423
1.564923
1.565673
1.567173
1.566423
1.565298
1.56736
1.563423
1.565673
1.565673
1.566423
1.56886
1.567173
1.566235
1.567173
1.566048
1.567923
1.566985
1.567548
1.567548
1.566048
1.56736
1.564735
1.566048
1.566985
1.565298
1.564548
1.565298
1.565298
1.56511
1.567923
1.566985
1.567173
1.566423
1.565673
1.568485
1.566048
1.566048
1.566048
1.566048
1.566048
1.565298
1.566235
1.56736
1.56436
1.564923
1.56736
1.564735
1.564735
1.567923
1.56811
1.566235
1.564735
1.564923
1.566798
1.568298
1.566798
1.566048
1.566048
1.566985
1.565298
1.56511
1.566423
1.56436
1.564735
1.565485
1.567173
1.568673
1.568673
1.570173
1.56736
1.565298
1.565673
1.569235
1.569235
1.564923
1.566423
1.566423
1.56586
1.56436
1.566798
1.56586
1.564923
1.56436
1.56586
1.565673
1.56961
1.56961
1.568485
1.564923
1.563985
1.565485
1.568673
1.56661
1.568298
1.566798
1.56586
1.56586
1.566235
1.565298
1.566235
1.565485
1.562673
1.56511
1.565485
1.56511
1.567173
1.567173
1.566985
1.564548
1.564923
1.568673
1.567735
1.566423
1.566423
1.565298
1.565485
1.565485
1.565298
1.564548
1.564173
1.562673
1.56511
1.565298
1.566048
1.566423
1.565673
1.565673
1.56286
1.56511
1.567173
1.567548
1.567923
1.567735
1.566048
1.566798
1.566798
1.566985
1.566423
1.56586
1.562485
1.566423
1.564173
1.56811
1.566798
1.567923
1.567923
1.56586
1.563798
1.56586
1.567923
1.566423
1.565673
1.566985
1.56511
1.565298
1.565298
1.566423
1.56436
1.561735
1.563048
1.566048
1.566235
1.566423
1.566423
1.565298
1.565298
1.56436
1.566048
1.56736
1.566798
1.566423
1.564923
1.564923
1.564548
1.56586
1.56586
1.563985
1.562673
1.564735
1.566423
1.567548
1.56586
1.565485
1.565673
1.565673
1.565298
1.566985
1.56811
1.56661
1.56586
1.564735
1.564735
1.564735
1.566985
1.566985
1.56361
1.563048
1.561735
1.563423
1.566235
1.56661
1.566423
1.564923
1.561735
1.561735
1.567548
1.566985
1.566048
1.56511
1.563235
1.564548
1.564548
1.566423
1.562673
1.562673
1.56361
1.56436
1.564923
1.567173
1.565485
1.564173
1.56286
1.565298
1.566985
1.566985
1.567548
1.56586
1.563235
1.564548
1.562298
1.56436
1.56436
1.563423
1.564923
1.564923
1.56511
1.565298
1.566798
1.56511
1.56436
1.563423
1.566048
1.567735
1.567173
1.567173
1.564923
1.56436
1.561548
1.564735
1.566985
1.56436
1.562485
1.56511
1.563798
1.563798
1.564923
1.566423
1.56661
1.563235
1.563423
1.566985
1.56736
1.56436
1.565485
1.565485
1.563985
1.564548
1.56361
1.566048
1.56286
1.56211
1.563423
1.56361
1.56361
1.56511
1.566985
1.565298
1.563423
1.565485
1.564923
1.56886
1.56436
1.56436
1.56436
1.563985
1.563235
1.565673
1.565298
1.56286
1.560048
1.563423
1.563798
1.564548
1.564548
1.56661
1.566798
1.563235
1.564173
1.563048
1.566985
1.56361
1.565673
1.563235
1.563235
1.565673
1.564173
1.565673
1.56436
1.562673
1.563423
1.563798
1.565298
1.564923
1.564923
1.566798
1.565485
1.563985
1.56586
1.566235
1.566985
1.564735
1.563423
1.563423
1.56436
1.565485
1.563985
1.56511
1.56361
1.562485
1.563985
1.56736
1.56811
1.56811
1.566423
1.564548
1.564735
1.563798
1.566048
1.564548
1.56511
1.563235
1.56511
1.56511
1.564548
1.565673
1.564548
1.562673
1.561735
1.56586
1.566048
1.56511
1.56661
1.56661
1.56511
1.563798
1.56361
1.568298
1.565485
1.563423
1.561923
1.563048
1.564923
1.564923
1.563423
1.564548
1.563423
1.563048
1.563798
1.563423
1.566235
1.565485
1.565485
1.564923
1.564173
1.564923
1.566423
1.564548
1.56511
1.563423
1.563423
1.564173
1.564173
1.564923
1.563985
1.563048
1.561173
1.564923
1.56361
1.566235
1.564735
1.56286
1.56286
1.56511
1.565298
1.567173
1.566235
1.565485
1.563985
1.564548
1.56436
1.56436
1.56436
1.565485
1.56211
1.56286
1.561735
1.565298
1.565485
1.564173
1.56436
1.563985
1.563985
1.564548
1.567173
1.566798
1.56511
1.563985
1.564548
1.564173
1.564735
1.564735
1.564923
1.56286
1.561923
1.563235
1.563048
1.565485
1.566985
1.56436
1.56286
1.56286
1.563048
1.569235
1.56511
1.563048
1.562485
1.563423
1.565673
1.563985
1.56511
1.56511
1.56361
1.563048
1.563048
1.563985
1.566985
1.56361
1.564173
1.56361
1.564548
1.564548
1.565673
1.563235
1.564548
1.56436
1.562298
1.563985
1.56511
1.564735
1.564173
1.564173
1.563985
1.562298
1.562673
1.564923
1.563423
1.56436
1.561548
1.563048
1.563048
1.565485
1.567173
1.565485
1.564548
1.563985
1.563985
1.56511
1.564173
1.562298
1.562298
1.560798
1.563423
1.564548
1.563985
1.564173
1.566048
1.563423
1.56511
1.565485
1.565485
1.566048
1.562298
1.564735
1.563423
1.564923
1.563048
1.563798
1.563985
1.562298
1.562298
1.56361
1.563423
1.565485
1.56511
1.56436
1.561735
1.56286
1.56511
1.565485
1.565485
1.565298
1.563985
1.563985
1.56286
1.56286
1.564173
1.564923
1.56211
1.562298
1.562298
1.56436
1.564173
1.565298
1.566048
1.563235
1.56286
1.567548
1.566048
1.566048
1.564735
1.565298
1.564173
1.563798
1.564923
1.564735
1.562485
1.56061
1.563423
1.563423
1.564735
1.564923
1.566985
1.564173
1.561735
1.56511
1.566048
1.56586
1.563423
1.563423
1.564735
1.562298
1.56286
1.563423
1.565673
1.564548
1.563048
1.563235
1.56286
1.56286
1.564923
1.56586
1.566798
1.563235
1.562673
1.564923
1.56736
1.563798
1.564173
1.564173
1.563423
1.56286
1.562485
1.564735
1.563048
1.562298
1.563423
1.564173
1.56661
1.56661
1.563985
1.56586
1.563423
1.563798
1.564923
1.565673
1.564923
1.56511
1.56511
1.563985
1.56361
1.56361
1.565485
1.562673
1.563048
1.563048
1.563235
1.565485
1.565485
1.566235
1.564548
1.563985
1.56586
1.566048
1.565673
1.56586
1.56286
1.562673
1.562673
1.562298
1.563798
1.564173
1.563798
1.562485
1.563985
1.56286
1.566985
1.565298
1.565298
1.565485
1.564735
1.564548
1.565485
1.56661
1.566235
1.563798
1.564173
1.56361
1.56361
1.56436
1.565298
1.564548
1.563423
1.563048
1.56436
1.566048
1.563985
1.563985
1.566048
1.562485
1.563235
1.565485
1.56661
1.564735
1.565298
1.563235
1.562673
1.562673
1.56436
1.565485
1.561923
1.560423
1.561923
1.56361
1.564548
1.565673
1.56586
1.56586
1.563985
1.56286
1.566423
1.566048
1.565673
1.566423
1.56436
1.56436
1.56361
1.56361
1.566048
1.564923
1.563423
1.56361
1.564173
1.56586
1.564735
1.566048
1.563423
1.563423
1.563235
1.565673
1.566985
1.56736
1.566235
1.563235
1.562485
1.565485
1.565485
1.56736
1.564735
1.561548
1.563423
1.564735
1.56586
1.566235
1.56586
1.56361
1.56361
1.563235
1.566423
1.566423
1.565673
1.565485
1.563985
1.56511
1.565485
1.565673
1.565673
1.56511
1.564923
1.563985
1.564735
1.56586
1.567735
1.566798
1.56436
1.56436
1.56436
1.567173
1.567548
1.565485
1.56511
1.565298
1.566235
1.566235
1.565485
1.564548
1.564548
1.563235
1.562485
1.563235
1.565673
1.56511
1.566235
1.56511
1.563985
1.563985
1.566235
1.566798
1.566048
1.566048
1.563798
1.56511
1.564923
1.566423
1.564548
1.564548
1.561735
1.563048
1.564548
1.56736
1.568298
1.566798
1.564548
1.564173
1.565673
1.565673
1.56736
1.566985
1.565485
1.563235
1.56511
1.563985
1.563985
1.565298
1.563798
1.563798
1.564735
1.565673
1.566423
1.56511
1.565298
1.565485
1.565485
1.566423
1.568485
1.568485
1.563985
1.565673
1.564173
1.563798
1.56511
1.566048
1.565673
1.564735
1.564735
1.564548
1.56361
1.565485
1.567923
1.56436
1.563798
1.56436
1.567173
1.567548
1.567548
1.567548
1.566985
1.56361
1.56511
1.564548
1.566423
1.56511
1.563048
1.563048
1.563048
1.56511
1.564923
1.567923
1.566235
1.565298
1.564173
1.564173
1.568485
1.567923
1.567923
1.565673
1.564548
1.565298
1.566423
1.565485
1.565673
1.56361
1.563798
1.564735
1.564735
1.566048
1.56661
1.566985
1.56736
1.565673
1.564923
1.566985
1.56736
1.567173
1.567173
1.56286
1.566235
1.56661
1.56511
1.56511
1.56211
1.56361
1.566423
1.566423
1.566798
1.569048
1.56811
1.56511
1.56361
1.564548
1.56586
1.565673
1.566985
1.566985
1.565485
1.566048
1.565673
1.566985
1.56586
1.56361
1.562673
1.56436
1.564548
1.564548
1.566798
1.565485
1.566798
1.566235
1.565298
1.567735
1.567173
1.566235
1.565673
1.565673
1.566235
1.56586
1.566985
1.565673
1.563985
1.56436
1.563798
1.566423
1.566423
1.566423
1.567923
1.565485
1.565298
1.565298
1.568485
1.56661
1.56586
1.56586
1.56586
1.566048
1.56511
1.566798
1.56661
1.565485
1.564923
1.56586
1.566423
1.566235
1.566235
1.565485
1.564923
1.562673
1.567173
1.566985
1.566423
1.568673
1.56361
1.567173
1.567173
1.564735
1.566235
1.564923
1.565298
1.56436
1.56511
1.564735
1.566985
1.56736
1.56736
1.56661
1.56511
1.566235
1.56886
1.567548
1.566235
1.564548
1.564735
1.56511
1.56511
1.565485
1.567173
1.564735
1.564923
1.565485
1.566235
1.564923
1.565298
1.562485
1.565485
1.565485
1.567923
1.567173
1.565485
1.565673
1.56436
1.56661
1.566798
1.566048
1.566048
1.566048
1.56286
1.564735
1.564735
1.566798
1.56736
1.566423
1.565673
1.567173
1.567173
1.567923
1.567735
1.566235
1.567735
1.564923
1.56586
1.565298
1.567735
1.566985
1.566985
1.56286
1.566048
1.565485
1.567735
1.568298
1.564923
1.563985
1.566235
1.569235
1.569235
1.567923
1.56661
1.56586
1.565485
1.56436
1.566423
1.567173
1.566423
1.564548
1.564548
1.565673
1.56586
1.567735
1.56811
1.56736
1.56661
1.564923
1.569048
1.569048
1.566048
1.566985
1.566235
1.566985
1.566048
1.566048
1.566985
1.56661
1.561548
1.561548
1.563798
1.56511
1.566235
1.566798
1.567548
1.56511
1.565298
1.569235
1.569048
1.569048
1.567173
1.565673
1.56586
1.565485
1.56511
1.566798
1.565485
1.56361
1.56586
1.56586
1.566985
1.56661
1.56661
1.566985
1.565298
1.566048
1.568298
1.56736
1.566985
1.566985
1.566048
1.56511
1.565673
1.565298
1.56511
1.565485
1.563423
1.565298
1.565298
1.56511
1.567735
1.56736
1.567548
1.565673
1.565673
1.568673
1.566423
1.565673
1.565673
1.566985
1.566798
1.566423
1.56586
1.56736
1.56586
1.56361
1.565485
1.565673
1.565673
1.567173
1.567548
1.56661
1.564923
1.566048
1.566985
1.567923
1.567923
1.56586
1.56586
1.563985
1.566985
1.565673
1.56661
1.56511
1.562673
1.564923
1.564735
1.566985
1.566985
1.567548
1.567548
1.565485
1.564923
1.56736
1.567923
1.566798
1.56661
1.56661
1.564923
1.56511
1.566423
1.567173
1.565298
1.562298
1.564548
1.56586
1.566235
1.566235
1.566423
1.567923
1.565485
1.564735
1.566423
1.569235
1.56661
1.56511
1.564735
1.564735
1.564548
1.565298
1.56736
1.566235
1.56436
1.564173
1.565485
1.566985
1.567548
1.567548
1.56736
1.566235
1.563048
1.566798
1.56736
1.566798
1.56511
1.56511
1.565673
1.565673
1.565673
1.565298
1.566048
1.565485
1.56661
1.56511
1.56586
1.568673
1.568673
1.567923
1.56361
1.564548
1.566798
1.567923
1.566985
1.566985
1.564923
1.566423
1.566423
1.565485
1.56661
1.565298
1.563423
1.56661
1.564548
1.56736
1.565298
1.56661
1.56661
1.56436
1.563423
1.566985
1.568673
1.566235
1.56736
1.564735
1.567173
1.56586
1.56586
1.566798
1.566048
1.563235
1.56436
1.565673
1.56661
1.56661
1.567173
1.565485
1.565485
1.56586
1.566798
1.56736
1.567548
1.567735
1.563985
1.56436
1.56511
1.568298
1.568298
1.566985
1.561923
1.564735
1.564923
1.565298
1.566798
1.566423
1.56436
1.56436
1.563423
1.567548
1.568298
1.567173
1.566423
1.565673
1.565298
1.562298
1.567173
1.567173
1.56661
1.563048
1.562673
1.564548
1.564173
1.566798
1.569423
1.563985
1.56511
1.56511
1.56736
1.567735
1.566798
1.566423
1.56736
1.56661
1.566423
1.56736
1.56586
1.56586
1.562485
1.563985
1.566798
1.566985
1.568298
1.567548
1.56586
1.56511
1.566798
1.566798
1.568673
1.567548
1.566048
1.564173
1.56586
1.563798
1.566048
1.56586
1.56586
1.564735
1.56511
1.564548
1.566235
1.56811
1.569048
1.566048
1.564173
1.563235
1.563235
1.568673
1.568673
1.565485
1.564548
1.564735
1.563985
1.56661
1.564548
1.564173
1.564173
1.56361
1.566235
1.564735
1.56886
1.566423
1.564548
1.563235
1.56436
1.568673
1.568673
1.565485
1.566798
1.565298
1.564923
1.562485
1.566235
1.566985
1.563798
1.56511
1.56511
1.563235
1.563048
1.567923
1.567173
1.564173
1.564548
1.56661
1.569423
1.569423
1.565485
1.566235
1.565673
1.56511
1.566235
1.567923
1.563048
1.563798
1.563798
1.563798
1.565485
1.565673
1.567173
1.569235
1.564735
1.563423
1.56661
1.568298
1.565673
1.565673
1.56586
1.564923
1.56661
1.564173
1.565298
1.56586
1.563423
1.56361
1.564923
1.564923
1.56586
1.56586
1.564735
1.56586
1.563985
1.565485
1.567735
1.566798
1.564735
1.564735
1.563235
1.565485
1.565298
1.566048
1.56436
1.56511
1.562485
1.564548
1.564548
1.56361
1.564735
1.56661
1.563423
1.564735
1.564173
1.56886
1.567548
1.56511
1.56511
1.566798
1.565673
1.563985
1.56361
1.563798
1.56436
1.562298
1.564735
1.564735
1.564735
1.567548
1.56586
1.56586
1.56361
1.564923
1.56811
1.564923
1.56511
1.565673
1.565673
1.56361
1.564735
1.565298
1.56586
1.563798
1.56211
1.563798
1.56361
1.56661
1.56661
1.565673
1.566423
1.563798
1.56286
1.565298
1.567173
1.565673
1.564735
1.563985
1.563985
1.560798
1.563985
1.565485
1.56436
1.562485
1.561923
1.56436
1.566048
1.566048
1.564923
1.563985
1.563985
1.562485
1.568673
1.567923
1.565485
1.565298
1.563235
1.563235
1.564173
1.56361
1.564548
1.563985
1.56286
1.563798
1.56586
1.566235
1.564735
1.564735
1.565673
1.563235
1.563985
1.56811
1.56661
1.564735
1.56511
1.563235
1.563048
1.563048
1.565485
1.563423
1.56286
1.563235
1.56361
1.564923
1.56511
1.566235
1.56286
1.56286
1.564173
1.564548
1.566048
1.566798
1.56361
1.564173
1.562673
1.56361
1.56361
1.56436
1.565298
1.564923
1.563423
1.563423
1.564548
1.566048
1.56436
1.562485
1.562485
1.563235
1.564548
1.566235
1.566235
1.56436
1.565298
1.56586
1.56361
1.564735
1.564735
1.564735
1.563798
1.56211
1.56361
1.564548
1.565485
1.566423
1.56586
1.563048
1.563048
1.563423
1.56661
1.565298
1.563798
1.56511
1.563798
1.56361
1.56286
1.563985
1.563985
1.56511
1.563048
1.561923
1.563798
1.56361
1.566235
1.565485
1.563048
1.563048
1.56286
1.564735
1.565485
1.565298
1.564173
1.563235
1.563798
1.563798
1.565298
1.565298
1.563048
1.563423
1.564735
1.564735
1.565298
1.566423
1.56511
1.56136
1.562298
1.562298
1.566235
1.56436
1.56436
1.56511
1.562673
1.56211
1.564735
1.564923
1.561548
1.561548
1.56061
1.563423
1.563985
1.564923
1.564735
1.564548
1.563048
1.563798
1.564735
1.564735
1.564173
1.56511
1.563048
1.561548
1.563048
1.561735
1.564735
1.56211
1.56136
1.56136
1.562673
1.562673
1.563985
1.565298
1.563235
1.56061
1.563235
1.564735
1.564735
1.56436
1.56511
1.564173
1.562673
1.56286
1.56211
1.563985
1.563985
1.560423
1.560423
1.563423
1.561548
1.563048
1.564735
1.564735
1.563423
1.560985
1.566048
1.56361
1.56361
1.56511
1.56436
1.562673
1.562673
1.562298
1.56511
1.561735
1.561735
1.561173
1.561173
1.56136
1.563985
1.562673
1.564173
1.56136
1.561173
1.563235
1.56661
1.564735
1.564735
1.561548
1.56211
1.563235
1.56286
1.563235
1.56286
1.559673
1.561735
1.561735
1.561923
1.561548
1.564735
1.563048
1.560985
1.563235
1.56211
1.564735
1.56211
1.56211
1.56361
1.56061
1.561735
1.561548
1.564173
1.561923
1.560235
1.560235
1.560798
1.560798
1.563235
1.563423
1.564173
1.56136
1.561173
1.561173
1.56586
1.564173
1.56286
1.56286
1.561548
1.56136
1.561548
1.562673
1.562673
1.560798
1.561923
1.56061
1.563235
1.563235
1.56436
1.561548
1.561735
1.561173
1.565485
1.56361
1.561173
1.560423
1.562298
1.562298
1.56211
1.56361
1.562485
1.559298
1.561548
1.561735
1.561173
1.56286
1.562298
1.562298
1.561735
1.561923
1.560798
1.56361
1.562485
1.562298
1.562485
1.562298
1.56061
1.56061
1.56286
1.562298
1.559485
1.559673
1.562298
1.561548
1.56286
1.563798
1.56211
1.56211
1.563048
1.56286
1.56511
1.562298
1.56286
1.561173
1.561735
1.560985
1.560985
1.563235
1.56211
1.561548
1.56136
1.56211
1.56061
1.56361
1.56361
1.562298
1.562298
1.560423
1.561548
1.564548
1.563048
1.561735
1.562673
1.561548
1.563048
1.56136
1.56136
1.56211
1.558923
1.557797
1.560423
1.562673
1.563048
1.561173
1.560048
1.560985
1.560985
1.560235
1.564173
1.562298
1.560985
1.560798
1.561548
1.560985
1.560798
1.561548
1.561548
1.559298
1.560235
1.561923
1.560423
1.560985
1.562673
1.560048
1.560235
1.560235
1.562673
1.563985
1.561735
1.562298
1.560798
1.559673
1.560423
1.561173
1.561923
1.561923
1.558735
1.558735
1.561173
1.56136
1.56361
1.560798
1.560048
1.560798
1.559673
1.559673
1.563423
1.561548
1.561548
1.560985
1.559485
1.56061
1.562298
1.560423
1.558548
1.558548
1.559298
1.55986
1.561173
1.56436
1.564173
1.560423
1.559673
1.560048
1.562485
1.562485
1.56211
1.563048
1.559298
1.560048
1.55911
1.560235
1.561923
1.55836
1.55836
1.557985
1.559485
1.559298
1.560798
1.562298
1.560423
1.559673
1.560423
1.560423
1.560423
1.560423
1.560985
1.558923
1.561735
1.558735
1.561548
1.558735
1.559298
1.558735
1.558735
1.558735
1.559673
1.56211
1.561735
1.560235
1.559673
1.561173
1.563423
1.560048
1.560048
1.560235
1.560235
1.559298
1.558173
1.560985
1.55986
1.55536
1.557235
1.560423
1.560423
1.560235
1.561173
1.56061
1.559298
1.558548
1.560235
1.561923
1.55986
1.560048
1.560048
1.560235
1.558173
1.560235
1.559485
1.560985
1.55911
1.555547
1.557985
1.557985
1.557797
1.560798
1.561173
1.560235
1.55911
1.558923
1.561548
1.56061
1.55911
1.55911
1.559298
1.557423
1.55911
1.558923
1.56061
1.557423
1.559298
1.558173
1.55911
1.55911
1.560048
1.56136
1.558173
1.557423
1.55836
1.560423
1.56211
1.560235
1.558735
1.558735
1.559298
1.55761
1.558923
1.559485
1.557423
1.557047
1.558173
1.55761
1.55986
1.55986
1.56061
1.559485
1.55761
1.558735
1.560235
1.560798
1.558735
1.558173
1.558173
1.559485
1.558923
1.55986
1.559298
1.557235
1.556298
1.559673
1.55836
1.561548
1.561548
1.55986
1.561173
1.55761
1.557985
1.56136
1.561173
1.559298
1.559673
1.556298
1.556298
1.559298
1.558548
1.55911
1.557235
1.557047
1.557797
1.558735
1.557985
1.558735
1.558735
1.561173
1.556298
1.558548
1.55911
1.559485
1.558173
1.55836
1.558923
1.558548
1.558548
1.55836
1.558735
1.558735
1.555172
1.55911
1.557235
1.558923
1.560235
1.560235
1.559485
1.555735
1.55686
1.561548
1.560423
1.559298
1.556298
1.559298
1.558735
1.558735
1.55911
1.558173
1.558548
1.55536
1.558735
1.557235
1.558548
1.558735
1.561735
1.561735
1.557423
1.55836
1.55986
1.559298
1.559485
1.557423
1.555735
1.557423
1.558923
1.558923
1.558548
1.558173
1.555547
1.557047
1.55536
1.557235
1.55986
1.558548
1.558173
1.558173
1.557235
1.558173
1.55836
1.55911
1.559673
1.555547
1.557047
1.557985
1.557985
1.559673
1.558173
1.55386
1.557797
1.557797
1.558735
1.560048
1.559298
1.55611
1.55611
1.557423
1.559298
1.558735
1.55761
1.558735
1.559673
1.55836
1.558548
1.55836
1.55836
1.55611
1.55611
1.557047
1.557235
1.560798
1.559485
1.55761
1.556298
1.55611
1.55611
1.558923
1.560048
1.557423
1.558548
1.555923
1.556298
1.557797
1.558173
1.558735
1.558735
1.555735
1.557047
1.556672
1.55761
1.55836
1.559485
1.557423
1.55611
1.55761
1.55761
1.559485
1.557985
1.55836
1.557235
1.557235
1.55611
1.558735
1.557047
1.557047
1.554235
1.556298
1.55611
1.558173
1.559485
1.56061
1.558173
1.55686
1.55836
1.55836
1.55911
1.557423
1.556672
1.556485
1.558548
1.556485
1.559485
1.557985
1.554985
1.554985
1.55611
1.559485
1.557797
1.558548
1.557423
1.556672
1.557797
1.557047
1.55986
1.55986
1.558923
1.557235
1.556485
1.55686
1.557235
1.557985
1.555923
1.555547
1.55611
1.55611
1.556485
1.558923
1.558548
1.558735
1.555735
1.556298
1.557423
1.559485
1.559485
1.55836
1.558173
1.557235
1.556485
1.55761
1.558923
1.555172
1.555547
1.55536
1.55536
1.559298
1.557423
1.557797
1.558735
1.556672
1.557047
1.556298
1.559673
1.55761
1.55761
1.557985
1.557423
1.55611
1.556298
1.56061
1.55761
1.555172
1.55536
1.557985
1.557985
1.557047
1.560798
1.559485
1.554798
1.555547
1.555172
1.558735
1.558173
1.557797
1.557797
1.55686
1.556672
1.558173
1.557985
1.557985
1.55536
1.55536
1.555735
1.555735
1.55611
1.557797
1.55536
1.55611
1.557047
1.55836
1.560423
1.557797
1.554985
1.554985
1.556672
1.55611
1.557423
1.557985
1.55461
1.555547
1.55536
1.55611
1.557047
1.557047
1.559298
1.555547
1.555923
1.555172
1.55686
1.55986
1.557047
1.557423
1.55611
1.55611
1.558735
1.557235
1.55986
1.557235
1.555172
1.554235
1.556485
1.555735
1.55761
1.55761
1.557235
1.55686
1.555172
1.557047
1.558548
1.557985
1.557047
1.557235
1.555923
1.555923
1.554422
1.557423
1.556298
1.553672
1.55536
1.555547
1.555735
1.557047
1.557047
1.557985
1.555735
1.556298
1.55611
1.559485
1.557235
1.556298
1.556485
1.553672
1.553672
1.55536
1.55761
1.555547
1.556485
1.554798
1.555547
1.556298
1.557985
1.558923
1.558923
1.557797
1.55461
1.556672
1.557985
1.557235
1.558923
1.55461
1.556672
1.555923
1.555923
1.556485
1.557797
1.554422
1.555172
1.555172
1.555547
1.558548
1.55836
1.555172
1.555172
1.555547
1.554985
1.558735
1.557797
1.55761
1.557047
1.555172
1.555923
1.555923
1.557235
1.555547
1.55536
1.55311
1.55461
1.555172
1.557235
1.556672
1.555923
1.555923
1.554798
1.555547
1.55761
1.55686
1.554985
1.557797
1.554985
1.554422
1.556672
1.556672
1.555547
1.554985
1.554798
1.556485
1.55536
1.557047
1.556485
1.555547
1.55461
1.55461
1.554985
1.55761
1.55611
1.557423
1.55686
1.555735
1.55461
1.556298
1.555547
1.555547
1.555172
1.553297
1.555547
1.554798
1.55761
1.557423
1.556298
1.55311
1.55311
1.554235
1.556672
1.55836
1.55611
1.556672
1.55461
1.554985
1.556672
1.55611
1.55611
1.555547
1.55386
1.554798
1.555735
1.558548
1.556672
1.555735
1.55461
1.554047
1.554047
1.559298
1.558923
1.555923
1.555547
1.554798
1.553672
1.556485
1.556672
1.555172
1.555172
1.553485
1.555547
1.554235
1.555923
1.557985
1.556485
1.55461
1.55461
1.55761
1.55761
1.558923
1.55836
1.554047
1.554422
1.555547
1.554235
1.555735
1.55461
1.55236
1.55236
1.554422
1.553672
1.557235
1.556485
1.555547
1.554798
1.554798
1.557235
1.55536
1.555547
1.555547
1.55386
1.554047
1.556485
1.55536
1.554047
1.552547
1.553297
1.554047
1.554047
1.55836
1.555923
1.554798
1.553485
1.554985
1.555923
1.557047
1.556298
1.554422
1.554422
1.553297
1.55386
1.55461
1.556672
1.554047
1.55161
1.553297
1.55536
1.555547
1.555547
1.557423
1.557985
1.55311
1.55386
1.554985
1.556298
1.554798
1.556672
1.55611
1.55611
1.55461
1.555172
1.556485
1.554047
1.551422
1.55461
1.553297
1.554798
1.555923
1.555923
1.556298
1.555172
1.554422
1.554985
1.55836
1.556485
1.556485
1.554422
1.554422
1.55611
1.55311
1.556672
1.554422
1.552735
1.554422
1.554985
1.557235
1.55536
1.55536
1.554985
1.553672
1.554047
1.556485
1.556672
1.554235
1.555735
1.554235
1.554235
1.554235
1.553297
1.555172
1.55461
1.552922
1.553672
1.55461
1.554422
1.555172
1.555923
1.555923
1.55161
1.553672
1.554422
1.556485
1.557797
1.555547
1.553672
1.55386
1.554798
1.554798
1.556298
1.553297
1.551047
1.553485
1.555172
1.554235
1.55461
1.556672
1.551235
1.551235
1.554798
1.555547
1.555735
1.55461
1.554422
1.554798
1.552547
1.553297
1.553297
1.55536
1.553297
1.552172
1.551797
1.554422
1.55311
1.553672
1.556485
1.55311
1.55311
1.552547
1.553672
1.556298
1.55311
1.554985
1.55386
1.55236
1.554047
1.555547
1.555547
1.55386
1.55236
1.551422
1.55386
1.554047
1.556485
1.555735
1.55461
1.552172
1.552172
1.552922
1.55611
1.554235
1.553672
1.55311
1.554422
1.552172
1.554235
1.553485
1.553485
1.55161
1.550672
1.555172
1.553485
1.555172
1.555923
1.55461
1.55386
1.55386
1.554235
1.554985
1.554985
1.553672
1.553485
1.552922
1.554422
1.554235
1.553672
1.553672
1.55086
1.55386
1.554235
1.552735
1.554798
1.55611
1.55311
1.552735
1.555172
1.555172
1.55611
1.554798
1.555735
1.55236
1.554422
1.552172
1.554235
1.55386
1.552547
1.552547
1.551047
1.551422
1.55311
1.555923
1.55536
1.554235
1.55236
1.552735
1.554798
1.554798
1.552172
1.55386
1.55386
1.554047
1.554422
1.555172
1.553672
1.551047
1.551047
1.551797
1.55386
1.554985
1.55611
1.554422
1.553297
1.552547
1.553672
1.554985
1.554985
1.554047
1.555547
1.55311
1.554422
1.55311
1.554047
1.552547
1.551797
1.55161
1.55161
1.552172
1.553485
1.555172
1.55461
1.551797
1.552922
1.553672
1.556298
1.554235
1.554235
1.555172
1.552922
1.553672
1.554235
1.554047
1.554047
1.55386
1.551797
1.553297
1.553297
1.553485
1.55536
1.55611
1.552735
1.551797
1.552922
1.555547
1.554047
1.554047
1.554047
1.553297
1.55386
1.554798
1.555172
1.552922
1.55236
1.553297
1.55461
1.55461
1.553485
1.555735
1.55461
1.552547
1.552547
1.553672
1.555735
1.554798
1.553297
1.553297
1.552172
1.55086
1.552922
1.554047
1.554985
1.55386
1.55161
1.552922
1.552735
1.552735
1.554798
1.554985
1.551047
1.55311
1.55386
1.555923
1.554047
1.553297
1.55311
1.55311
1.552735
1.553485
1.55311
1.551235
1.551235
1.550672
1.553672
1.552735
1.552735
1.556485
1.554047
1.55161
1.551422
1.554047
1.554798
1.553297
1.553485
1.552922
1.552922
1.552172
1.55386
1.55536
1.554798
1.553485
1.552922
1.552922
1.55236
1.553297
1.553297
1.552172
1.552547
1.551047
1.551235
1.554985
1.555172
1.55311
1.553672
1.554422
1.554422
1.552922
1.553297
1.553672
1.55236
1.55161
1.55311
1.553485
1.55536
1.55311
1.55311
1.554422
1.551797
1.551985
1.556672
1.55386
1.55461
1.553485
1.551985
1.552735
1.552735
1.554422
1.55386
1.552172
1.551797
1.551047
1.551985
1.553672
1.55386
1.55386
1.554422
1.551235
1.553485
1.55536
1.552922
1.555547
1.554422
1.553297
1.552172
1.552172
1.554235
1.552922
1.551797
1.550485
1.552735
1.552547
1.554798
1.55311
1.554985
1.554985
1.55236
1.552547
1.555547
1.555172
1.552172
1.552735
1.55161
1.552735
1.554422
1.554422
1.554047
1.552172
1.550297
1.552547
1.552172
1.554798
1.555547
1.55386
1.553297
1.553297
1.552172
1.554422
1.555735
1.554422
1.55311
1.552735
1.553297
1.553297
1.553297
1.55236
1.551797
1.549547
1.552547
1.55236
1.554422
1.554047
1.555172
1.551235
1.551235
1.551797
1.553485
1.555735
1.552172
1.554235
1.552172
1.553297
1.552735
1.554422
1.554422
1.552547
1.550297
1.551985
1.552172
1.554422
1.55461
1.55536
1.553485
1.551985
1.551985
1.55536
1.554798
1.554047
1.554047
1.552922
1.553297
1.553485
1.555547
1.552172
1.552172
1.552735
1.553485
1.552547
1.553297
1.553485
1.55311
1.551047
1.55536
1.555735
1.555735
1.55536
1.55386
1.55386
1.551985
1.554047
1.554798
1.55311
1.55236
1.55236
1.55236
1.553297
1.553297
1.55536
1.553672
1.555735
1.55236
1.55311
1.555735
1.555735
1.555172
1.556298
1.554047
1.55311
1.55386
1.55311
1.554985
1.553672
1.551797
1.551797
1.554047
1.554985
1.555547
1.55386
1.55461
1.55311
1.552547
1.555735
1.55686
1.55686
1.553297
1.554422
1.552172
1.554985
1.555735
1.555923
1.554422
1.55161
1.552922
1.552922
1.553485
1.55611
1.555172
1.55536
1.552547
1.555172
1.555547
1.55611
1.55611
1.556298
1.55536
1.55311
1.553485
1.55161
1.555923
1.554422
1.55236
1.551797
1.551797
1.556298
1.554798
1.554047
1.554985
1.554798
1.553485
1.555735
1.557235
1.554798
1.554798
1.55386
1.552547
1.554047
1.55386
1.55686
1.554985
1.55161
1.554422
1.555547
1.555547
1.557047
1.556298
1.556298
1.554798
1.554798
1.555547
1.554985
1.55611
1.55536
1.55536
1.553297
1.55536
1.554235
1.554985
1.55461
1.552922
1.55311
1.554047
1.555923
1.555923
1.55836
1.556672
1.55236
1.552922
1.555735
1.55686
1.555547
1.555923
1.555923
1.554235
1.554798
1.554235
1.55611
1.554422
1.552735
1.556298
1.554235
1.555172
1.555172
1.555923
1.55461
1.55386
1.554235
1.555735
1.557985
1.555172
1.55611
1.556298
1.556298
1.556298
1.55536
1.557985
1.554235
1.55236
1.55311
1.554422
1.554422
1.555735
1.555735
1.556672
1.554422
1.553485
1.554798
1.556485
1.555923
1.55611
1.55461
1.554422
1.554422
1.554047
1.555172
1.55386
1.553485
1.55386
1.554985
1.555923
1.556298
1.554798
1.554798
1.552922
1.553672
1.55761
1.559485
1.557047
1.555923
1.55386
1.553485
1.553485
1.554985
1.556298
1.553672
1.55386
1.554047
1.556485
1.55461
1.555735
1.55836
1.55836
1.553672
1.554798
1.556298
1.557047
1.556298
1.55386
1.555547
1.55611
1.554422
1.554422
1.55536
1.553297
1.551985
1.554047
1.555172
1.55536
1.556672
1.556485
1.554422
1.554422
1.553297
1.555547
1.554798
1.555547
1.555923
1.554798
1.555547
1.554422
1.556485
1.556485
1.556672
1.551235
1.553297
1.552922
1.55761
1.556485
1.55461
1.556298
1.556298
1.55311
1.555735
1.557423
1.55686
1.555735
1.555923
1.55536
1.555547
1.556672
1.556672
1.556298
1.554047
1.554422
1.553672
1.554985
1.557985
1.557047
1.555547
1.55386
1.55386
1.553672
1.557985
1.55686
1.55761
1.55686
1.554985
1.557047
1.555735
1.555172
1.555172
1.552922
1.556485
1.554985
1.558923
1.558735
1.555172
1.555547
1.55386
1.558735
1.558735
1.557797
1.55761
1.554235
1.554985
1.554985
1.557423
1.557047
1.554985
1.553297
1.553297
1.555735
1.554985
1.558548
1.55611
1.555923
1.55386
1.554985
1.558923
1.557797
1.557797
1.556672
1.555547
1.556298
1.557423
1.557423
1.556672
1.555923
1.554047
1.55686
1.55686
1.556672
1.557423
1.559298
1.55611
1.555735
1.55761
1.558548
1.557423
1.557423
1.557985
1.555735
1.557423
1.557235
1.558548
1.555735
1.555735
1.553485
1.555547
1.555547
1.557047
1.55836
1.557235
1.55761
1.555735
1.55686
1.560423
1.559298
1.558173
1.558173
1.55611
1.555923
1.556672
1.556485
1.558173
1.555923
1.553297
1.555547
1.55686
1.55686
1.557797
1.55911
1.557797
1.554985
1.55536
1.559673
1.557797
1.557985
1.556485
1.556485
1.556298
1.55686
1.558548
1.556672
1.556485
1.554422
1.554985
1.557047
1.558735
1.558735
1.559298
1.557235
1.555735
1.55761
1.559485
1.557985
1.558923
1.557423
1.557423
1.557423
1.554985
1.559298
1.555923
1.554985
1.554798
1.557047
1.556298
1.558923
1.558923
1.556298
1.55686
1.55536
1.557235
1.55911
1.55911
1.558923
1.556672
1.557047
1.557047
1.556298
1.55686
1.55836
1.556298
1.554047
1.555735
1.557047
1.55686
1.55761
1.55761
1.558173
1.554985
1.557985
1.55911
1.55836
1.556672
1.558548
1.55611
1.555923
1.555923
1.555923
1.558735
1.554798
1.555735
1.55611
1.556485
1.55761
1.558923
1.558923
1.558173
1.554985
1.556298
1.55836
1.557423
1.557235
1.557235
1.555172
1.556298
1.556298
1.557423
1.55686
1.55611
1.55461
1.554985
1.555172
1.558548
1.557235
1.555735
1.555735
1.555735
1.55536
1.557423
1.55911
1.556298
1.55686
1.55461
1.556672
1.556672
1.556672
1.558548
1.556298
1.554235
1.554422
1.555735
1.558548
1.557423
1.557985
1.55536
1.55536
1.555172
1.557797
1.55761
1.558548
1.557797
1.55611
1.55611
1.555923
1.555923
1.557797
1.55686
1.553297
1.555735
1.554798
1.55686
1.558735
1.558923
1.556298
1.556298
1.554798
1.556672
1.557985
1.55761
1.558923
1.556298
1.555735
1.55461
1.55686
1.55686
1.557235
1.554422
1.55536
1.557423
1.557797
1.55761
1.557985
1.555735
1.55836
1.55836
1.556298
1.560235
1.55686
1.55686
1.555547
1.557985
1.55686
1.55836
1.556485
1.556485
1.553297
1.555735
1.555735
1.556298
1.558735
1.557985
1.55686
1.554985
1.557797
1.557797
1.560798
1.556672
1.557235
1.556485
1.556485
1.556298
1.558735
1.55761
1.55761
1.55536
1.557047
1.557047
1.55761
1.557797
1.557235
1.554235
1.557047
1.557235
1.557235
1.559673
1.55911
1.557985
1.55386
1.557985
1.556485
1.559298
1.555923
1.555923
1.555923
1.556672
1.554985
1.557985
1.55611
1.558735
1.557047
1.555172
1.55686
1.558735
1.558735
1.55836
1.557047
1.555735
1.558173
1.55686
1.55761
1.557423
1.555923
1.55761
1.55761
1.556485
1.555735
1.55836
1.559298
1.556672
1.55536
1.557797
1.557797
1.557797
1.557985
1.557423
1.555923
1.557985
1.556298
1.557235
1.557235
1.554798
1.555547
1.555547
1.555923
1.557235
1.559485
1.557047
1.557047
1.554422
1.556485
1.558923
1.55686
1.55686
1.557047
1.55611
1.557985
1.557235
1.557985
1.557235
1.555923
1.55686
1.556485
1.556485
1.554422
1.558173
1.55911
1.557985
1.556298
1.55761
1.559673
1.557047
1.55761
1.55761
1.557047
1.556298
1.556672
1.55836
1.555547
1.55611
1.554798
1.555735
1.555735
1.557423
1.558923
1.55836
1.556672
1.555923
1.556485
1.558923
1.556485
1.55686
1.55686
1.555735
1.55536
1.55836
1.558548
1.554985
1.556672
1.55536
1.557423
1.556485
1.556485
1.55686
1.55686
1.556298
1.555172
1.555923
1.560798
1.558548
1.558173
1.556298
1.556298
1.556298
1.557797
1.55686
1.557985
1.555923
1.553297
1.555923
1.556672
1.557985
1.557985
1.55911
1.557423
1.556672
1.55611
1.55911
1.55761
1.554985
1.558173
1.557047
1.557047
1.557423
1.558173
1.555923
1.555547
1.554422
1.554985
1.55761
1.559298
1.559298
1.55686
1.55461
1.55686
1.557047
1.55686
1.556485
1.55761
1.55686
1.556298
1.556298
1.557047
1.55686
1.557235
1.555547
1.555547
1.557047
1.555172
1.557985
1.557797
1.557797
1.556298
1.554985
1.557235
1.559673
1.557235
1.555923
1.557423
1.557235
1.557235
1.557235
1.557985
1.556485
1.554798
1.554798
1.554235
1.554985
1.559298
1.55911
1.555923
1.555923
1.556672
1.555735
1.55761
1.558173
1.558173
1.556672
1.556672
1.555735
1.555735
1.556672
1.55836
1.555547
1.55311
1.555923
1.557235
1.558735
1.55611
1.556298
1.556298
1.55611
1.555547
1.557985
1.557235
1.55836
1.555923
1.55461
1.554985
1.55686
1.55686
1.557047
1.554798
1.55386
1.554422
1.55686
1.557797
1.559298
1.558923
1.555735
1.555735
1.555923
1.55611
1.55836
1.558548
1.559673
1.556672
1.556298
1.55686
1.555735
1.555735
1.55611
1.55461
1.556485
1.55686
1.557235
1.558735
1.55761
1.55461
1.55611
1.55611
1.558173
1.558923
1.557423
1.554985
1.555547
1.555923
1.557235
1.55686
1.55686
1.556485
1.554235
1.556298
1.557235
1.559673
1.55911
1.558548
1.555735
1.558548
1.558548
1.55761
1.560048
1.557985
1.557235
1.556298
1.556298
1.55761
1.555547
1.55611
1.55611
1.554422
1.558548
1.55686
1.557235
1.556485
1.55686
1.55536
1.55461
1.558173
1.558173
1.557985
1.556298
1.55761
1.555547
1.55536
1.556485
1.55686
1.555923
1.554047
1.554047
1.55461
1.555547
1.557423
1.55836
1.555547
1.555923
1.55461
1.558923
1.558923
1.558173
1.556672
1.556298
1.554985
1.554798
1.555923
1.55611
1.55611
1.554798
1.554798
1.554985
1.555923
1.55761
1.556672
1.557235
1.55611
1.55611
1.55761
1.55911
1.55911
1.558173
1.554985
1.554985
1.555547
1.556672
1.55611
1.557235
1.554422
1.555172
1.555172
1.554985
1.55536
1.557985
1.55611
1.557047
1.557235
1.555547
1.558735
1.559298
1.559298
1.555735
1.55461
1.554985
1.55461
1.55686
1.55461
1.551985
1.556298
1.555547
1.555547
1.556485
1.55686
1.557047
1.55461
1.554798
1.55686
1.55761
1.558173
1.558173
1.556672
1.555923
1.554235
1.554422
1.557047
1.554985
1.552922
1.555735
1.555172
1.555172
1.555172
1.558735
1.559673
1.554798
1.554047
1.55536
1.558173
1.555735
1.55761
1.55761
1.556672
1.55536
1.55611
1.557423
1.554422
1.55236
1.55611
1.556298
1.555923
1.555923
1.55761
1.558735
1.55386
1.554422
1.555547
1.557985
1.557423
1.558173
1.555735
1.555735
1.554985
1.554422
1.556298
1.554422
1.552922
1.554422
1.554235
1.557797
1.557797
1.55686
1.557235
1.554422
1.555547
1.555547
1.55761
1.557047
1.55686
1.553672
1.553672
1.554047
1.554985
1.556672
1.554798
1.553485
1.55236
1.554422
1.555172
1.55761
1.55761
1.556298
1.555923
1.553672
1.55611
1.558173
1.55611
1.555735
1.555172
1.553672
1.553672
1.553672
1.555923
1.554422
1.555172
1.55536
1.556485
1.557423
1.556298
1.554798
1.556485
1.556485
1.554422
1.558548
1.557797
1.55536
1.555735
1.55461
1.556672
1.55686
1.555547
1.555547
1.55386
1.554798
1.554798
1.555172
1.555923
1.554985
1.553672
1.554422
1.554422
1.556485
1.55836
1.556485
1.558173
1.554422
1.55611
1.555547
1.556298
1.553297
1.553297
1.552735
1.554985
1.554235
1.55536
1.55686
1.558735
1.554235
1.555923
1.555172
1.555172
1.556672
1.55686
1.557423
1.55386
1.554235
1.554985
1.554985
1.55461
1.55236
1.55236
1.552922
1.554985
1.555547
1.556672
1.555735
1.555547
1.55386
1.554047
1.55686
1.55686
1.558548
1.55686
1.552735
1.554985
1.55611
1.556298
1.55611
1.554235
1.554235
1.553297
1.555172
1.554798
1.55536
1.556485
1.554798
1.555547
1.55611
1.560048
1.560048
1.557235
1.556485
1.55686
1.555547
1.55536
1.557047
1.55611
1.55386
1.553672
1.553672
1.555923
1.554798
1.557423
1.55536
1.555172
1.55461
1.555735
1.557985
1.555923
1.555923
1.557423
1.55536
1.554047
1.55536
1.557423
1.555172
1.553672
1.552922
1.554235
1.554235
1.55536
1.555547
1.554422
1.556672
1.554798
1.55461
1.559298
1.556298
1.556298
1.556298
1.556298
1.554985
1.55611
1.555923
1.556672
1.55461
1.552922
1.554985
1.554985
1.555547
1.557423
1.55836
1.554985
1.554047
1.555172
1.55836
1.556485
1.558735
1.558735
1.55461
1.554047
1.552922
1.556672
1.55686
1.555172
1.554047
1.55461
1.553297
1.553297
1.55761
1.55686
1.55686
1.555547
1.555547
1.555923
1.555547
1.555735
1.554047
1.554047
1.555735
1.554985
1.554422
1.55536
1.55461
1.552735
1.553672
1.554985
1.556485
1.556485
1.557423
1.554798
1.555735
1.555923
1.55686
1.556672
1.556298
1.555735
1.555735
1.555172
1.554422
1.553485
1.557235
1.554985
1.552922
1.555172
1.555547
1.55761
1.55761
1.555735
1.554422
1.554798
1.552922
1.556672
1.557423
1.555735
1.55536
1.554235
1.554235
1.555735
1.555547
1.556298
1.551985
1.551985
1.55461
1.552735
1.554798
1.556672
1.556672
1.55536
1.555735
1.555923
1.55686
1.55611
1.55461
1.55461
1.55611
1.555547
1.555547
1.554422
1.55536
1.552547
1.55311
1.555172
1.55611
1.558548
1.556672
1.556672
1.554047
1.553297
1.555172
1.555172
1.556298
1.555172
1.554235
1.554047
1.554422
1.554422
1.555923
1.55461
1.553672
1.551797
1.55461
1.553485
1.55611
1.55686
1.554985
1.554985
1.55236
1.555923
1.556298
1.555735
1.55686
1.556672
1.554235
1.554798
1.554235
1.554235
1.55611
1.555172
1.551422
1.555547
1.554422
1.556298
1.554798
1.556298
1.554422
1.554422
1.554235
1.55836
1.554985
1.55386
1.554235
1.553672
1.552922
1.55611
1.55611
1.556485
1.55386
1.552172
1.553672
1.554985
1.554047
1.555172
1.555547
1.554047
1.554047
1.553672
1.555735
1.556672
1.554985
1.554235
1.55386
1.55461
1.556485
1.556485
1.556485
1.555547
1.552735
1.554422
1.553297
1.55611
1.553485
1.55311
1.552922
1.553297
1.553297
1.556485
1.555923
1.554422
1.554235
1.551985
1.553672
1.55461
1.555923
1.55536
1.55536
1.55011
1.553297
1.553485
1.55461
1.55536
1.554985
1.55461
1.55236
1.55236
1.555923
1.556672
1.55461
1.554047
1.552922
1.552922
1.555735
1.555547
1.553672
1.553672
1.551985
1.554047
1.55311
1.556298
1.55461
1.55611
1.553297
1.554798
1.554422
1.554422
1.555735
1.55461
1.555172
1.55236
1.554047
1.553485
1.556485
1.553672
1.552922
1.552922
1.552922
1.553485
1.55311
1.554798
1.55536
1.551797
1.553672
1.55461
1.555172
1.555172
1.554422
1.55461
1.55236
1.551797
1.55311
1.554985
1.553672
1.550485
1.55161
1.55161
1.55236
1.553485
1.552735
1.553672
1.552172
1.55311
1.554047
1.555547
1.555547
1.55536
1.552735
1.551422
1.554798
1.554047
1.552172
1.55311
1.551047
1.552547
1.552547
1.554047
1.55161
1.552922
1.553672
1.551797
1.554235
1.553672
1.55611
1.552172
1.552172
1.553297
1.551797
1.555735
1.552922
1.553485
1.55311
1.54936
1.551985
1.55311
1.55311
1.555172
1.554422
1.554798
1.552547
1.554047
1.554235
1.555735
1.554235
1.554235
1.554235
1.554985
1.552172
1.552922
1.552922
1.553672
1.55086
1.552172
1.552922
1.552547
1.552547
1.553672
1.554422
1.553485
1.551235
1.551235
1.55686
1.554985
1.553672
1.553672
1.553297
1.55311
1.552922
1.553297
1.552735
1.550485
1.55011
1.550672
1.55236
1.55236
1.554985
1.555172
1.551047
1.553485
1.551422
1.55536
1.55536
1.552547
1.551797
1.551797
1.551422
1.553297
1.55386
1.552172
1.551047
1.55236
1.55236
1.551797
1.553672
1.553672
1.554985
1.55236
1.55086
1.552735
1.554235
1.553297
1.551985
1.55161
1.552735
1.552735
1.55311
1.553297
1.55236
1.551047
1.551235
1.551235
1.552172
1.554798
1.554798
1.554798
1.553672
1.549735
1.552547
1.554798
1.552172
1.553485
1.552172
1.554235
1.554235
1.551235
1.553297
1.553485
1.550297
1.55011
1.55236
1.554235
1.555172
1.551797
1.551797
1.555172
1.552922
1.552172
1.55536
1.55386
1.552922
1.552735
1.552172
1.551985
1.551985
1.552922
1.552547
1.552547
1.549547
1.551797
1.55086
1.553672
1.553297
1.55311
1.55311
1.551422
1.55236
1.55536
1.552547
1.552922
1.551422
1.552922
1.55236
1.55311
1.55311
1.551985
1.551235
1.55086
1.55236
1.551422
1.55461
1.55386
1.551985
1.551985
1.551985
1.552547
1.554422
1.553297
1.552172
1.553672
1.55161
1.552922
1.553297
1.553297
1.551985
1.552547
1.550297
1.552172
1.55236
1.554798
1.552735
1.552547
1.551985
1.551985
1.552547
1.554422
1.552922
1.551985
1.550672
1.551422
1.551422
1.552735
1.553672
1.553672
1.551422
1.550297
1.55161
1.55161
1.554422
1.552172
1.55236
1.55086
1.551422
1.551422
1.555547
1.55461
1.552922
1.55086
1.551235
1.553297
1.55386
1.552735
1.552735
1.549547
1.551422
1.551047
1.551235
1.552172
1.551797
1.551235
1.551797
1.55086
1.55086
1.55611
1.553672
1.552172
1.55236
1.550672
1.55161
1.553485
1.551235
1.551047
1.551047
1.549922
1.551235
1.55161
1.554047
1.553297
1.551985
1.551047
1.55161
1.555923
1.555923
1.552922
1.553297
1.554985
1.551235
1.55236
1.552735
1.554047
1.553672
1.55011
1.55011
1.551985
1.552922
1.553672
1.552172
1.553485
1.550485
1.55086
1.55461
1.55461
1.555172
1.552735
1.552735
1.551985
1.551422
1.553485
1.552547
1.552922
1.549547
1.549547
1.549922
1.551047
1.553297
1.55311
1.554422
1.552735
1.552172
1.554235
1.553485
1.553485
1.553485
1.553485
1.55236
1.552922
1.552735
1.552922
1.552735
1.54936
1.552735
1.552735
1.551797
1.55386
1.553672
1.552735
1.550297
1.552172
1.554798
1.553672
1.553672
1.553672
1.552547
1.551422
1.552172
1.553672
1.552735
1.551797
1.549922
1.551985
1.551985
1.552172
1.553672
1.552547
1.554422
1.552735
1.551047
1.553297
1.553485
1.55386
1.55386
1.553672
1.553485
1.55386
1.551797
1.55386
1.550672
1.548422
1.551797
1.553485
1.554235
1.554235
1.554422
1.55161
1.55161
1.554235
1.554235
1.552735
1.554798
1.552547
1.55086
1.55086
1.551422
1.552735
1.549922
1.549922
1.55161
1.552735
1.55236
1.554047
1.554422
1.554422
1.55161
1.550672
1.553485
1.55386
1.55311
1.552547
1.551797
1.552547
1.55236
1.55236
1.55311
1.551985
1.548985
1.55236
1.551797
1.555172
1.55386
1.554422
1.554422
1.55161
1.552735
1.554985
1.554985
1.552547
1.554235
1.551985
1.554422
1.552735
1.552735
1.552547
1.551985
1.550672
1.55011
1.553672
1.554235
1.554235
1.554422
1.552735
1.552735
1.552172
1.55461
1.555172
1.551797
1.551985
1.55311
1.55236
1.551235
1.554047
1.554047
1.552547
1.551235
1.551985
1.551235
1.553297
1.554422
1.55386
1.553297
1.551235
1.551235
1.552547
1.556298
1.55236
1.553485
1.553485
1.552922
1.552922
1.554047
1.554047
1.552735
1.55161
1.551797
1.551985
1.55536
1.55536
1.554047
1.552735
1.552547
1.552547
1.554235
1.55686
1.552922
1.554422
1.552172
1.55086
1.554422
1.554235
1.552922
1.552922
1.55161
1.553297
1.551797
1.553485
1.55461
1.555172
1.553297
1.55311
1.552547
1.552547
1.55686
1.55386
1.552735
1.55161
1.554235
1.552172
1.55461
1.55311
1.550485
1.550485
1.552172
1.55161
1.554422
1.55461
1.552922
1.551422
1.553297
1.554985
1.55461
1.55461
1.554798
1.55386
1.552922
1.552922
1.55311
1.55386
1.555172
1.550672
1.550672
1.554047
1.552547
1.552735
1.553672
1.555547
1.55311
1.55161
1.554235
1.55611
1.55611
1.553485
1.55461
1.55386
1.554047
1.555172
1.55536
1.553485
1.550672
1.55236
1.55236
1.551797
1.554422
1.555735
1.556672
1.551985
1.551985
1.551985
1.55686
1.555923
1.555923
1.555923
1.554798
1.55086
1.554798
1.554235
1.552547
1.551985
1.553672
1.552172
1.552172
1.554422
1.55386
1.554798
1.555547
1.553672
1.553672
1.556672
1.554985
1.554985
1.552922
1.55311
1.55386
1.552922
1.555172
1.554235
1.551985
1.553485
1.55461
1.55461
1.553672
1.555923
1.55611
1.553297
1.551985
1.554985
1.55761
1.554047
1.55611
1.55611
1.55536
1.551985
1.55236
1.554422
1.55311
1.554047
1.55311
1.553485
1.55386
1.55386
1.555923
1.556298
1.55386
1.55461
1.553485
1.557423
1.554798
1.55536
1.552735
1.552735
1.552922
1.554422
1.55461
1.55386
1.555172
1.553297
1.554047
1.555172
1.555923
1.555923
1.555735
1.55461
1.553485
1.55386
1.55761
1.55461
1.557047
1.554047
1.554047
1.555923
1.553297
1.555923
1.553485
1.553672
1.553485
1.55311
1.554798
1.557235
1.557235
1.556485
1.556672
1.554047
1.555547
1.557423
1.554798
1.55536
1.554235
1.55386
1.55386
1.554422
1.555172
1.554235
1.554422
1.551235
1.553485
1.554985
1.555923
1.555923
1.555923
1.555172
1.554235
1.554047
1.556485
1.555735
1.554985
1.554985
1.553672
1.555923
1.555923
1.554422
1.554422
1.55461
1.55236
1.55386
1.554798
1.556298
1.556485
1.556485
1.556485
1.552922
1.554422
1.558735
1.55611
1.55686
1.55461
1.55386
1.555923
1.555923
1.554047
1.555923
1.554235
1.551047
1.554235
1.554235
1.55686
1.55536
1.555735
1.555735
1.55386
1.554798
1.558735
1.557985
1.555172
1.555172
1.55611
1.556485
1.55461
1.55461
1.556298
1.55461
1.55311
1.554235
1.55461
1.556298
1.556298
1.557047
1.552922
1.552922
1.55461
1.556672
1.557047
1.556672
1.55611
1.555547
1.554985
1.557047
1.55611
1.55611
1.556672
1.552547
1.554235
1.55461
1.555172
1.556485
1.556672
1.555923
1.555923
1.55536
1.55686
1.559298
1.554235
1.55536
1.554422
1.555172
1.556298
1.555923
1.555923
1.556298
1.552547
1.554985
1.554422
1.556485
1.558548
1.55761
1.55536
1.554422
1.554422
1.55911
1.55686
1.555735
1.55611
1.555547
1.55611
1.555172
1.554985
1.555547
1.555547
1.553297
1.554047
1.554047
1.557423
1.55611
1.55611
1.55461
1.554047
1.55761
1.55761
1.55611
1.55686
1.557423
1.554798
1.556298
1.555923
1.55611
1.55686
1.554235
1.554235
1.555923
1.55386
1.556485
1.556672
1.556485
1.554985
1.554422
1.554985
1.554985
1.556485
1.55686
1.554985
1.554422
1.556298
1.554422
1.55611
1.554985
1.55386
1.55386
1.553297
1.55536
1.554798
1.557423
1.557047
1.554422
1.554985
1.55611
1.557423
1.557423
1.557423
1.556485
1.55536
1.555172
1.554985
1.555547
1.552922
1.553297
1.554235
1.554235
1.554798
1.55611
1.556485
1.554798
1.553485
1.555172
1.55536
1.559298
1.55611
1.55611
1.554798
1.55386
1.554798
1.557047
1.557047
1.554798
1.553485
1.553672
1.553672
1.55536
1.556485
1.557797
1.55986
1.554047
1.555172
1.555547
1.556672
1.55686
1.55686
1.556298
1.555547
1.554798
1.555172
1.555735
1.55386
1.554422
1.554985
1.55611
1.55611
1.557985
1.557047
1.557235
1.555735
1.554985
1.55461
1.559298
1.55611
1.557985
1.557985
1.554798
1.55461
1.556298
1.556672
1.555172
1.552922
1.554798
1.55311
1.555547
1.555547
1.558548
1.55611
1.55461
1.555172
1.555923
1.55686
1.557047
1.555547
1.555547
1.555172
1.554422
1.55386
1.555923
1.554422
1.554235
1.55461
1.55461
1.556485
1.556485
1.557797
1.557235
1.554798
1.554422
1.555735
1.557985
1.557235
1.555923
1.55461
1.55461
1.554235
1.554985
1.55686
1.554422
1.55311
1.557047
1.55536
1.557423
1.557985
1.557985
1.557423
1.553672
1.555547
1.555923
1.558548
1.55611
1.555735
1.55461
1.55461
1.55461
1.554235
1.55686
1.554422
1.551422
1.554798
1.554985
1.555172
1.557423
1.556672
1.556672
1.553672
1.553297
1.554985
1.55836
1.555735
1.556485
1.55461
1.554047
1.554047
1.55386
1.55536
1.554422
1.553672
1.554798
1.55311
1.556672
1.556485
1.557423
1.557423
1.55386
1.553297
1.555172
1.557235
1.55686
1.555172
1.555172
1.555923
1.553485
1.553485
1.554235
1.555923
1.553485
1.554798
1.55461
1.554985
1.554422
1.555172
1.554985
1.554985
1.553672
1.555735
1.55836
1.555172
1.555735
1.553485
1.55461
1.552922
1.554985
1.554985
1.55536
1.551985
1.551422
1.554235
1.55536
1.555547
1.557423
1.554422
1.554422
1.553672
1.55536
1.557047
1.555735
1.555923
1.553485
1.553672
1.553672
1.556485
1.556485
1.554235
1.552735
1.551797
1.55461
1.553672
1.555172
1.55686
1.554985
1.553485
1.553485
1.552547
1.557047
1.55761
1.554798
1.552922
1.555172
1.553672
1.555735
1.554047
1.554047
1.552735
1.55236
1.553672
1.554985
1.555547
1.555547
1.55536
1.55236
1.552922
1.552922
1.55686
1.552922
1.555547
1.552172
1.554047
1.554798
1.55461
1.554985
1.554985
1.552922
1.551422
1.553672
1.55386
1.554422
1.55611
1.553672
1.55461
1.553297
1.553297
1.557047
1.555735
1.554235
1.554235
1.553485
1.554235
1.555547
1.55386
1.55386
1.55386
1.550672
1.554235
1.553672
1.557985
1.555923
1.552735
1.553297
1.55311
1.554422
1.554422
1.554798
1.55461
1.552922
1.55311
1.553672
1.554047
1.55386
1.55311
1.550485
1.550485
1.554047
1.554798
1.55536
1.55536
1.554422
1.554798
1.555735
1.555735
1.554422
1.554422
1.554422
1.555172
1.554798
1.554235
1.552922
1.554047
1.55161
1.554047
1.55386
1.55386
1.555547
1.554422
1.55386
1.552735
1.553297
1.557047
1.55761
1.555923
1.553297
1.553297
1.552735
1.552922
1.553485
1.554985
1.553672
1.551797
1.554422
1.55236
1.555547
1.555547
1.554422
1.55461
1.55236
1.55311
1.557235
1.554235
1.554798
1.553485
1.553485
1.552922
1.554422
1.554985
1.55536
1.55311
1.551422
1.551985
1.55311
1.555172
1.555172
1.555735
1.554422
1.552922
1.55386
1.556672
1.55536
1.554235
1.555547
1.554422
1.554422
1.551235
1.552547
1.554047
1.55236
1.551235
1.553297
1.554235
1.554235
1.554798
1.554798
1.55536
1.55236
1.552547
1.556485
1.557047
1.554235
1.555735
1.55386
1.55236
1.55236
1.552922
1.55461
1.552547
1.552922
1.553672
1.553485
1.554985
1.555547
1.555547
1.55536
1.55311
1.553672
1.55536
1.556298
1.555547
1.555547
1.553485
1.552547
1.552547
1.55386
1.556298
1.552547
1.551235
1.55386
1.555735
1.555735
1.556672
1.55386
1.55386
1.554235
1.552922
1.555547
1.557235
1.554047
1.554422
1.551985
1.552547
1.553297
1.553297
1.554235
1.55236
1.551422
1.552172
1.55236
1.55536
1.55536
1.55611
1.551985
1.551985
1.55236
1.555735
1.556485
1.554422
1.552735
1.552922
1.551985
1.55311
1.55311
1.554235
1.552735
1.551047
1.55386
1.553672
1.55536
1.554422
1.55386
1.551047
1.551047
1.551985
1.553297
1.55761
1.555547
1.554047
1.553485
1.552735
1.553672
1.554798
1.554798
1.552547
1.551797
1.550672
1.554422
1.55461
1.556298
1.554422
1.554235
1.553297
1.553297
1.55311
1.556485
1.553297
1.554047
1.554235
1.551422
1.554047
1.55311
1.553672
1.553672
1.551047
1.553297
1.553672
1.55386
1.555923
1.555547
1.552547
1.551235
1.553672
1.553672
1.556298
1.555547
1.554422
1.552922
1.553672
1.552547
1.553297
1.552172
1.552172
1.552547
1.552922
1.554047
1.551985
1.55461
1.555923
1.551422
1.552735
1.55461
1.55461
1.55536
1.554985
1.55461
1.552735
1.552735
1.554047
1.554235
1.55236
1.55161
1.55161
1.551797
1.55236
1.553297
1.55386
1.554047
1.554235
1.554047
1.553672
1.557235
1.557235
1.555172
1.553297
1.551797
1.55236
1.551985
1.553672
1.554047
1.551047
1.551797
1.551797
1.553672
1.554422
1.554798
1.554047
1.552922
1.551985
1.554422
1.554985
1.554985
1.554422
1.553672
1.55161
1.554422
1.554235
1.554422
1.553297
1.550297
1.552172
1.552172
1.553485
1.55236
1.556672
1.55386
1.55311
1.55236
1.553672
1.557985
1.554798
1.554798
1.553672
1.553485
1.551985
1.55461
1.552735
1.553297
1.552547
1.553672
1.552547
1.552547
1.555172
1.554047
1.555735
1.55386
1.552547
1.55386
1.556298
1.554798
1.55536
1.55536
1.551235
1.553297
1.553297
1.55461
1.55536
1.551235
1.55236
1.552922
1.552735
1.552735
1.554422
1.55386
1.553672
1.552735
1.552922
1.556298
1.55686
1.553297
1.553297
1.553672
1.55611
1.551797
1.554047
1.554047
1.553485
1.552735
1.551985
1.55461
1.55461
1.55461
1.555923
1.553672
1.552547
1.553485
1.555923
1.55536
1.55386
1.554985
1.554985
1.553485
1.553672
1.555172
1.553297
1.552172
1.550485
1.551047
1.553297
1.552922
1.552922
1.553485
1.553672
1.55311
1.551797
1.555735
1.55461
1.552547
1.552735
1.55386
1.55386
1.553672
1.55611
1.552547
1.55236
1.551422
1.553297
1.554235
1.555923
1.555923
1.554798
1.551797
1.551422
1.551985
1.557047
1.554985
1.555172
1.555172
1.551797
1.551797
1.553297
1.55386
1.553672
1.551235
1.551797
1.55236
1.55311
1.553485
1.555735
1.555735
1.554985
1.552922
1.553485
1.554985
1.555172
1.55461
1.552735
1.555172
1.553485
1.553485
1.554047
1.554235
1.55386
1.551797
1.553672
1.55386
1.554047
1.554798
1.553672
1.553672
1.550672
1.551797
1.556298
1.554798
1.555172
1.553485
1.551797
1.55311
1.553672
1.553672
1.554047
1.55311
1.551047
1.552922
1.551422
1.55386
1.554422
1.552922
1.552922
1.552922
1.553485
1.555923
1.554422
1.55386
1.554047
1.553297
1.55386
1.55386
1.55386
1.55611
1.553297
1.55086
1.55161
1.553485
1.555547
1.555172
1.554047
1.551047
1.551047
1.554798
1.557047
1.557235
1.552735
1.556485
1.553485
1.553672
1.552547
1.554422
1.554422
1.552735
1.549735
1.552922
1.55461
1.55611
1.55686
1.554422
1.55311
1.552922
1.552922
1.555923
1.555923
1.553672
1.55461
1.55311
1.552547
1.55386
1.556485
1.556485
1.553672
1.551985
1.552547
1.552735
1.555547
1.553297
1.553485
1.551985
1.553672
1.553672
1.555172
1.554235
1.554422
1.55311
1.554422
1.553297
1.553672
1.55386
1.553297
1.553297
1.551047
1.554798
1.55461
1.55536
1.555923
1.556672
1.55236
1.554798
1.554985
1.554985
1.55536
1.554047
1.554985
1.553485
1.554047
1.554047
1.55461
1.55461
1.552547
1.552547
1.553485
1.552922
1.555735
1.553672
1.554235
1.552922
1.555547
1.555923
1.555923
1.557235
1.555172
1.555172
1.554235
1.55311
1.554798
1.554422
1.554235
1.552922
1.552922
1.553672
1.55536
1.554985
1.55686
1.556298
1.55161
1.553297
1.55536
1.557047
1.557047
1.55461
1.555923
1.55461
1.554798
1.55536
1.55611
1.552547
1.551985
1.553297
1.553297
1.554798
1.55461
1.55536
1.55611
1.552922
1.553297
1.55386
1.55686
1.555923
1.555923
1.555547
1.554422
1.552922
1.553297
1.555735
1.554047
1.55236
1.554047
1.554047
1.55236
1.555735
1.55536
1.55686
1.55311
1.552922
1.556485
1.556672
1.554985
1.554985
1.555735
1.554798
1.553485
1.554047
1.554798
1.55311
1.551797
1.55236
1.553672
1.553672
1.555547
1.557235
1.557047
1.555172
1.555172
1.554798
1.558735
1.55611
1.554798
1.554798
1.553297
1.554235
1.555547
1.55536
1.554798
1.551047
1.551235
1.55611
1.555923
1.555923
1.55461
1.555923
1.554047
1.55311
1.553297
1.556672
1.55611
1.553672
1.553672
1.554235
1.554422
1.554798
1.55536
1.552735
1.552172
1.554047
1.555172
1.55536
1.55536
1.55611
1.557235
1.552735
1.554985
1.55311
1.55686
1.557047
1.55536
1.554235
1.554235
1.55461
1.554235
1.554985
1.55611
1.552922
1.552922
1.553297
1.55611
1.557235
1.557235
1.555172
1.554985
1.554047
1.555547
1.557797
1.55686
1.555172
1.552922
1.554235
1.554235
1.55536
1.557047
1.55461
1.554235
1.554422
1.554422
1.55536
1.55611
1.55611
1.556485
1.555547
1.553672
1.55386
1.55686
1.555735
1.555172
1.555547
1.554422
1.554422
1.55461
1.555735
1.556298
1.553672
1.55461
1.553672
1.555923
1.558548
1.556485
1.556485
1.554985
1.553485
1.555735
1.558548
1.555547
1.55611
1.55536
1.554047
1.554235
1.554235
1.55611
1.555547
1.553672
1.551797
1.553297
1.554798
1.554985
1.557047
1.555172
1.555172
1.554798
1.556485
1.55686
1.555923
1.554422
1.55461
1.553485
1.554235
1.555923
1.555923
1.55536
1.55161
1.55611
1.554798
1.55461
1.558173
1.554985
1.554047
1.554047
1.55611
1.558173
1.55686
1.555735
1.554235
1.553485
1.55611
1.555547
1.553297
1.554985
1.554985
1.554422
1.55461
1.555735
1.55761
1.555923
1.555547
1.554985
1.55461
1.557423
1.557423
1.556672
1.555547
1.554985
1.555547
1.55461
1.55686
1.55536
1.552172
1.55311
1.55311
1.554985
1.55461
1.557985
1.55686
1.55611
1.553485
1.555172
1.558735
1.555547
1.555547
1.554985
1.55611
1.555735
1.554985
1.554985
1.556672
1.553672
1.550672
1.553297
1.553297
1.555547
1.557235
1.55461
1.554798
1.554047
1.554047
1.558923
1.556298
1.556298
1.554422
1.55536
1.55461
1.55461
1.555923
1.555735
1.553485
1.55161
1.556298
1.556298
1.554235
1.558173
1.556672
1.554422
1.554422
1.555735
1.558923
1.559485
1.554985
1.554985
1.555547
1.554047
1.555923
1.55461
1.555547
1.554235
1.552735
1.552922
1.55311
1.55311
1.555172
1.554985
1.556298
1.554235
1.55686
1.556298
1.55611
1.55386
1.555172
1.555172
1.55461
1.557047
1.555923
1.554047
1.553485
1.553672
1.554985
1.556672
1.556672
1.556672
1.557423
1.556672
1.554047
1.555547
1.555923
1.556672
1.55536
1.55536
1.55536
1.554422
1.554985
1.55686
1.556672
1.55461
1.554235
1.554985
1.55386
1.557047
1.557047
1.557235
1.556672
1.553672
1.55461
1.55761
1.556298
1.557235
1.55611
1.55461
1.55461
1.555172
1.556485
1.557235
1.55536
1.552735
1.554422
1.55386
1.557985
1.55611
1.55611
1.557423
1.554422
1.555735
1.557797
1.555923
1.55611
1.557797
1.55536
1.55686
1.55686
1.555735
1.557235
1.554985
1.554235
1.554422
1.55536
1.55611
1.556485
1.556485
1.55686
1.556298
1.55536
1.558923
1.55686
1.557423
1.556298
1.555172
1.554798
1.554798
1.556672
1.555735
1.555172
1.554047
1.554235
1.554985
1.556485
1.556672
1.55761
1.55761
1.554422
1.55461
1.55611
1.559673
1.556672
1.55536
1.554798
1.556298
1.555735
1.555735
1.556485
1.555735
1.554798
1.553485
1.554798
1.556672
1.557235
1.55836
1.554985
1.554985
1.557235
1.556485
1.558923
1.55686
1.55761
1.555923
1.555547
1.55611
1.55836
1.55836
1.556298
1.55236
1.555172
1.55611
1.55836
1.555547
1.557235
1.554422
1.554422
1.557047
1.555547
1.560235
1.557423
1.556672
1.552735
1.557047
1.555547
1.558735
1.558735
1.555735
1.553672
1.55536
1.555547
1.55686
1.558173
1.558173
1.555172
1.55761
1.55761
1.55761
1.558923
1.55686
1.557047
1.555923
1.556298
1.557797
1.557423
1.55536
1.55536
1.554985
1.554985
1.554798
1.558735
1.55686
1.558173
1.556298
1.55611
1.557423
1.557423
1.55986
1.557235
1.557235
1.554422
1.55536
1.555735
1.558923
1.555547
1.555547
1.554235
1.556298
1.556672
1.558173
1.55911
1.55761
1.55386
1.55611
1.557047
1.557047
1.55986
1.556672
1.558173
1.554985
1.556485
1.557235
1.55686
1.557797
1.554798
1.554798
1.556672
1.558548
1.558548
1.56061
1.55911
1.555923
1.556672
1.55761
1.558735
1.558735
1.55836
1.557985
1.556298
1.557235
1.55461
1.558923
1.555923
1.555923
1.555547
1.555547
1.55686
1.555172
1.55836
1.55911
1.557985
1.557235
1.55836
1.559485
1.559485
1.560048
1.557235
1.55611
1.55761
1.55611
1.55986
1.557423
1.554235
1.554985
1.554985
1.556672
1.557985
1.55911
1.560048
1.555923
1.557047
1.55836
1.560235
1.560048
1.560048
1.557797
1.557235
1.557047
1.555735
1.558735
1.55686
1.55686
1.554985
1.558923
1.558923
1.557985
1.559485
1.558735
1.555547
1.556485
1.557423
1.559673
1.560235
1.556672
1.556672
1.556298
1.55686
1.557047
1.557423
1.557423
1.556298
1.554047
1.555923
1.555923
1.556485
1.559485
1.559298
1.557235
1.556485
1.556672
1.560235
1.558173
1.557985
1.557985
1.555923
1.556672
1.557047
1.558735
1.557047
1.557797
1.555923
1.55686
1.558173
1.558173
1.558548
1.55986
1.556485
1.556485
1.557423
1.558735
1.557797
1.55686
1.557235
1.557235
1.557235
1.558923
1.558173
1.55611
1.556485
1.55611
1.557235
1.557047
1.560048
1.560048
1.557797
1.557985
1.556485
1.557047
1.558548
1.559673
1.558923
1.555735
1.55611
1.55611
1.557235
1.557985
1.555735
1.555923
1.554235
1.555547
1.556672
1.55836
1.55836
1.56061
1.557235
1.555735
1.55536
1.558173
1.557797
1.55761
1.555923
1.55536
1.55536
1.558548
1.557047
1.55761
1.555172
1.55461
1.556672
1.555547
1.558923
1.558548
1.558548
1.557797
1.555547
1.557423
1.559298
1.558735
1.557235
1.557423
1.556672
1.555547
1.555547
1.557235
1.558173
1.555735
1.554235
1.555172
1.558735
1.55761
1.557797
1.557797
1.557797
1.557423
1.555923
1.559673
1.557985
1.558173
1.556485
1.555172
1.55611
1.55611
1.55761
1.555923
1.557235
1.554798
1.557047
1.556672
1.558548
1.560235
1.55686
1.55686
1.556298
1.55761
1.558923
1.557797
1.55761
1.557235
1.557235
1.556672
1.556485
1.556485
1.556485
1.557423
1.554235
1.55461
1.556672
1.55686
1.558735
1.557797
1.55461
1.55461
1.556672
1.557423
1.557047
1.557235
1.557235
1.55611
1.555923
1.556298
1.557423
1.557423
1.555172
1.555923
1.556485
1.556672
1.557423
1.55836
1.557797
1.55536
1.55536
1.55536
1.559673
1.559673
1.557797
1.557047
1.555547
1.555735
1.555735
1.55911
1.55911
1.554422
1.55686
1.556298
1.55611
1.55836
1.560798
1.55761
1.557047
1.555735
1.555735
1.55911
1.559298
1.557985
1.557985
1.557985
1.55686
1.556672
1.557985
1.557047
1.557047
1.55536
1.555735
1.555172
1.558923
1.557985
1.557985
1.556672
1.556298
1.559298
1.559298
1.55836
1.559298
1.557797
1.555735
1.555735
1.558173
1.557797
1.555735
1.555735
1.556485
1.555547
1.55536
1.55686
1.557985
1.557235
1.55611
1.557047
1.558735
1.558735
1.558923
1.55611
1.557047
1.557047
1.555923
1.556298
1.558173
1.555923
1.554422
1.554422
1.555923
1.555923
1.557423
1.555923
1.55761
1.554047
1.556672
1.557797
1.559673
1.559673
1.557423
1.558548
1.55611
1.556672
1.556485
1.557985
1.555172
1.553485
1.555547
1.555547
1.557423
1.557797
1.556672
1.55911
1.556485
1.55536
1.559298
1.560048
1.557797
1.557797
1.557423
1.557423
1.557047
1.556485
1.55761
1.557235
1.554235
1.55536
1.55536
1.557797
1.557797
1.55986
1.559673
1.555735
1.557047
1.557047
1.559673
1.558923
1.558923
1.555923
1.556672
1.55761
1.556298
1.55761
1.556298
1.55386
1.557047
1.55611
1.55611
1.55686
1.557985
1.557047
1.556298
1.557423
1.556298
1.559673
1.557797
1.557235
1.557235
1.55536
1.556485
1.558173
1.557797
1.557985
1.55386
1.554798
1.555923
1.556672
1.556672
1.558548
1.557985
1.55611
1.555923
1.55761
1.560048
1.558173
1.557985
1.557985
1.55461
1.55761
1.55836
1.55686
1.557423
1.554798
1.556672
1.55761
1.556672
1.556672
1.558548
1.557797
1.557235
1.557235
1.555923
1.559298
1.558923
1.557797
1.555923
1.555923
1.554985
1.556298
1.55686
1.555547
1.55386
1.554985
1.554798
1.55611
1.557797
1.557797
1.557423
1.556298
1.556298
1.556298
1.55836
1.55686
1.55461
1.55536
1.55761
1.55536
1.55536
1.557797
1.55461
1.554798
1.557985
1.555923
1.558173
1.558548
1.55686
1.556298
1.556298
1.55536
1.560048
1.557985
1.559673
1.55536
1.554047
1.554235
1.555547
1.555547
1.556298
1.555923
1.557797
1.556485
1.556298
1.556485
1.557797
1.556298
1.557235
1.557235
1.555172
1.560235
1.558548
1.557797
1.556298
1.557423
1.557235
1.557423
1.557047
1.557047
1.55536
1.553672
1.556298
1.555172
1.558735
1.559485
1.556672
1.555547
1.557235
1.557235
1.558548
1.558923
1.555547
1.555547
1.557423
1.55536
1.557047
1.556485
1.554798
1.554798
1.55461
1.55686
1.557797
1.559485
1.560048
1.556485
1.55536
1.557235
1.558735
1.558735
1.558173
1.557423
1.556298
1.557797
1.555923
1.556672
1.55686
1.555172
1.555172
1.55461
1.555547
1.554985
1.56061
1.557423
1.557797
1.555735
1.55536
1.55911
1.55911
1.55761
1.557797
1.555735
1.557985
1.555172
1.55611
1.55386
1.556672
1.55386
1.55386
1.55686
1.555547
1.558735
1.558548
1.55536
1.555547
1.556298
1.55836
1.558735
1.558735
1.55686
1.558173
1.557985
1.555172
1.556672
1.556672
1.55461
1.554047
1.55761
1.55761
1.556672
1.557985
1.557423
1.556485
1.55536
1.555735
1.560423
1.559485
1.559485
1.557797
1.55611
1.557985
1.557797
1.558923
1.55536
1.557047
1.553485
1.557047
1.557047
1.55686
1.55836
1.560423
1.557423
1.553672
1.55611
1.555735
1.55686
1.55836
1.55836
1.559298
1.556672
1.55836
1.555735
1.557235
1.55611
1.555735
1.55611
1.556672
1.556672
1.558173
1.558548
1.557985
1.556485
1.554985
1.558923
1.557797
1.555923
1.556298
1.556298
1.55536
1.555547
1.55536
1.556298
1.555547
1.554798
1.555172
1.555735
1.555735
1.560423
1.560235
1.55836
1.55536
1.555923
1.557423
1.559485
1.558548
1.557423
1.557423
1.556672
1.555735
1.555735
1.557235
1.55536
1.552735
1.554985
1.555547
1.559298
1.559298
1.557797
1.557235
1.55836
1.555172
1.55911
1.55911
1.55611
1.55686
1.555547
1.555547
1.557047
1.556672
1.555547
1.555172
1.55236
1.554047
1.55536
1.55686
1.558735
1.558735
1.55686
1.55536
1.555735
1.560048
1.557985
1.554985
1.55611
1.55686
1.556298
1.556298
1.555547
1.557235
1.555735
1.553672
1.55686
1.555923
1.557235
1.557985
1.557985
1.559298
1.55536
1.555547
1.55686
1.55911
1.55686
1.558173
1.556298
1.556672
1.556672
1.556298
1.555923
1.556672
1.55311
1.55761
1.556485
1.557985
1.55761
1.557235
1.557235
1.555547
1.55536
1.557235
1.557985
1.556672
1.55686
1.554422
1.557423
1.556672
1.556672
1.555735
1.55461
1.553672
1.554985
1.55611
1.55686
1.557797
1.557235
1.556672
1.556672
1.55536
1.556298
1.558548
1.557423
1.55536
1.556298
1.555547
1.555735
1.555735
1.557235
1.555547
1.554235
1.55611
1.55611
1.55686
1.556485
1.557797
1.554235
1.554235
1.554235
1.557985
1.558548
1.556298
1.555172
1.554235
1.55686
1.555923
1.557797
1.557797
1.554798
1.552735
1.554047
1.554422
1.557423
1.556672
1.55686
1.55536
1.555172
1.555172
1.55686
1.559298
1.557235
1.55686
1.55536
1.55686
1.555172
1.555735
1.55311
1.55311
1.552922
1.55311
1.558173
1.555547
1.55761
1.558735
1.55536
1.554985
1.554985
1.556298
1.558923
1.557047
1.556485
1.555547
1.556485
1.555172
1.557047
1.55461
1.55461
1.552172
1.553297
1.553672
1.55611
1.55686
1.55986
1.555547
1.554985
1.55461
1.55461
1.558548
1.557423
1.554798
1.555923
1.554985
1.555923
1.556298
1.55611
1.55236
1.55236
1.552922
1.55611
1.557047
1.556672
1.557047
1.554047
1.553672
1.554985
1.558548
1.558548
1.556298
1.557047
1.55536
1.555547
1.55386
1.55536
1.55536
1.553485
1.554047
1.554047
1.55611
1.55611
1.55611
1.55761
1.554422
1.554985
1.557423
1.55836
1.55836
1.556672
1.554798
1.554047
1.556298
1.555735
1.55536
1.555172
1.553672
1.55461
1.55461
1.554985
1.55686
1.556298
1.558735
1.554235
1.554235
1.555547
1.557797
1.55611
1.55611
1.556298
1.554235
1.55461
1.552922
1.55536
1.555172
1.552172
1.554422
1.554422
1.554422
1.553297
1.556298
1.557423
1.55536
1.554985
1.555547
1.558548
1.55611
1.55536
1.55536
1.553297
1.55386
1.556672
1.554235
1.55311
1.552922
1.552735
1.55386
1.55386
1.554798
1.557235
1.55911
1.554798
1.554985
1.556298
1.557235
1.554985
1.555172
1.555172
1.554235
1.554422
1.553485
1.55536
1.555172
1.552547
1.554047
1.554422
1.55461
1.55461
1.556298
1.55386
1.555172
1.554235
1.553485
1.557423
1.555547
1.555735
1.555172
1.555172
1.556672
1.55611
1.555923
1.554985
1.55386
1.552172
1.554047
1.55386
1.558548
1.558548
1.55686
1.555172
1.554047
1.552547
1.557423
1.555735
1.55761
1.555735
1.555735
1.555735
1.555172
1.55236
1.554798
1.554235
1.553485
1.554047
1.555923
1.557235
1.557235
1.555923
1.555547
1.552922
1.554047
1.557047
1.556298
1.554798
1.555172
1.55311
1.55311
1.555923
1.554047
1.55536
1.552735
1.551985
1.553485
1.553485
1.55611
1.557047
1.557047
1.555172
1.554235
1.555172
1.556485
1.556298
1.555735
1.553297
1.555172
1.55311
1.55311
1.552547
1.55461
1.553672
1.552922
1.55311
1.554047
1.557235
1.556485
1.554422
1.554422
1.552547
1.554422
1.556298
1.557423
1.555735
1.555172
1.554985
1.555172
1.555172
1.55536
1.554422
1.55536
1.551422
1.554985
1.555735
1.55536
1.557235
1.55536
1.55536
1.553297
1.554798
1.555735
1.555735
1.556485
1.55386
1.555547
1.553485
1.555172
1.555172
1.555735
1.554235
1.552735
1.553297
1.554235
1.555547
1.556672
1.555172
1.55386
1.55386
1.55311
1.558173
1.55761
1.557423
1.554422
1.553672
1.554422
1.557797
1.55536
1.55536
1.553672
1.552735
1.553672
1.551797
1.555172
1.554798
1.555735
1.553297
1.553297
1.55536
1.556485
1.554798
1.553485
1.55611
1.554235
1.555172
1.55386
1.55461
1.55461
1.552172
1.551235
1.552547
1.553297
1.556298
1.55611
1.554985
1.55011
1.553672
1.553672
1.55686
1.554798
1.554422
1.55611
1.555923
1.55461
1.554047
1.554235
1.554798
1.554798
1.552922
1.554047
1.552735
1.555547
1.555735
1.555172
1.552547
1.554798
1.556298
1.556298
1.555547
1.555923
1.554798
1.55386
1.554422
1.555172
1.553672
1.55461
1.55236
1.55236
1.554422
1.552922
1.555172
1.55761
1.55686
1.553297
1.55236
1.556485
1.556485
1.556485
1.556298
1.555923
1.555547
1.55386
1.55311
1.553297
1.554798
1.552172
1.552172
1.554047
1.55386
1.556485
1.554985
1.557235
1.55311
1.552547
1.55761
1.55836
1.55836
1.557047
1.555735
1.55386
1.554798
1.55461
1.555547
1.55461
1.553672
1.554422
1.554422
1.552922
1.55611
1.556485
1.555735
1.55461
1.554422
1.55536
1.556485
1.557047
1.557047
1.55536
1.55536
1.554798
1.554422
1.555172
1.552922
1.551422
1.554985
1.554985
1.553672
1.554422
1.555172
1.55686
1.55386
1.553672
1.557235
1.559485
1.555172
1.555172
1.556485
1.554422
1.555172
1.555172
1.556298
1.551235
1.555735
1.553297
1.555547
1.557235
1.557235
1.557423
1.555172
1.554985
1.554422
1.55686
1.556485
1.554985
1.556298
1.556298
1.55461
1.55461
1.55536
1.55461
1.55236
1.55311
1.554235
1.555735
1.557797
1.557797
1.55386
1.55386
1.55461
1.557797
1.55836
1.557235
1.557423
1.554047
1.555547
1.555547
1.555547
1.55611
1.553672
1.551985
1.555547
1.55311
1.554798
1.555547
1.55761
1.55761
1.554422
1.55386
1.554798
1.560423
1.557423
1.555923
1.553672
1.557235
1.555735
1.555735
1.556485
1.555547
1.55161
1.554047
1.554235
1.555735
1.558173
1.55686
1.55686
1.554047
1.554985
1.555923
1.560985
1.557985
1.55836
1.554422
1.557235
1.554985
1.554985
1.55386
1.555172
1.553672
1.555547
1.554985
1.55611
1.557047
1.556298
1.55461
1.55461
1.555547
1.55686
1.560048
1.559485
1.55761
1.556672
1.558173
1.556672
1.556298
1.556298
1.555923
1.555547
1.554422
1.556485
1.555547
1.55761
1.55986
1.556485
1.556485
1.556485
1.557985
1.558735
1.557985
1.557235
1.55761
1.556485
1.55611
1.557423
1.557423
1.558548
1.555547
1.554985
1.555923
1.555547
1.55986
1.559673
1.555923
1.55686
1.55686
1.557423
1.558735
1.560985
1.559673
1.557235
1.558548
1.55611
1.557423
1.557047
1.557047
1.554798
1.55761
1.556298
1.555547
1.560985
1.559485
1.558548
1.557985
1.557235
1.557235
1.56061
1.55986
1.55836
1.55761
1.557423
1.55686
1.558173
1.557423
1.555172
1.555172
1.555735
1.55611
1.557047
1.56061
1.559485
1.560423
1.557423
1.558173
1.560798
1.560798
1.55911
1.558735
1.55911
1.558735
1.557985
1.55986
1.555923
1.55686
1.55686
1.554235
1.558173
1.559673
1.56061
1.558173
1.55761
1.557423
1.558548
1.559673
1.559673
1.559673
1.557797
1.557797
1.558923
1.559298
1.558923
1.557985
1.556485
1.554985
1.554985
1.557985
1.55686
1.560798
1.560235
1.560798
1.558548
1.557423
1.560423
1.55986
1.55986
1.559673
1.559673
1.557797
1.557235
1.55911
1.557423
1.556485
1.55686
1.557423
1.557423
1.557235
1.55986
1.55911
1.559485
1.558173
1.556672
1.562485
1.559298
1.559298
1.560423
1.55836
1.560048
1.560423
1.559485
1.558548
1.55836
1.556485
1.556672
1.556672
1.556672
1.560235
1.560423
1.559485
1.558173
1.559485
1.560423
1.56211
1.561173
1.561173
1.560235
1.558173
1.558548
1.55761
1.560235
1.557423
1.55611
1.557423
1.559673
1.559673
1.560048
1.560423
1.559298
1.55986
1.558735
1.560985
1.560423
1.559673
1.559673
1.559673
1.55911
1.560235
1.558735
1.559673
1.557985
1.555547
1.557797
1.556672
1.556672
1.561548
1.56136
1.561548
1.55836
1.557985
1.561173
1.561735
1.560798
1.559673
1.559673
1.559485
1.559485
1.559298
1.558923
1.55836
1.55686
1.558548
1.55686
1.559485
1.559485
1.562485
1.560048
1.55761
1.557797
1.560798
1.561735
1.560423
1.560985
1.560423
1.560423
1.55686
1.558923
1.560235
1.55911
1.556672
1.558173
1.558923
1.560423
1.56061
1.56061
1.562298
1.557047
1.557797
1.562298
1.56136
1.560048
1.560798
1.558548
1.558548
1.558923
1.56211
1.560048
1.558173
1.558735
1.55761
1.557985
1.55986
1.559298
1.559298
1.560048
1.55911
1.557985
1.56211
1.561923
1.56361
1.56136
1.559485
1.559673
1.559673
1.558173
1.55911
1.559485
1.557985
1.558173
1.55836
1.559298
1.560235
1.561548
1.561548
1.559298
1.558923
1.560798
1.56361
1.56061
1.561173
1.55986
1.559673
1.55911
1.55911
1.560235
1.559485
1.55836
1.55986
1.560423
1.562485
1.563048
1.560985
1.560985
1.560423
1.560423
1.560423
1.560985
1.56061
1.561735
1.560235
1.561548
1.560048
1.560048
1.560048
1.559485
1.55686
1.558923
1.558923
1.559673
1.560423
1.561735
1.55986
1.55986
1.55986
1.56136
1.56136
1.563048
1.561923
1.56061
1.56211
1.561735
1.561173
1.561173
1.558548
1.55761
1.55761
1.560048
1.559673
1.561173
1.561923
1.560798
1.560235
1.560235
1.560985
1.562485
1.560423
1.562673
1.560985
1.562673
1.55911
1.560423
1.561923
1.561923
1.55911
1.557423
1.560048
1.56061
1.562298
1.56136
1.56061
1.55911
1.55911
1.560798
1.563423
1.563235
1.560985
1.56061
1.560048
1.559485
1.560235
1.55986
1.55986
1.559298
1.557985
1.560423
1.561548
1.562673
1.563423
1.558923
1.559673
1.561735
1.561735
1.56286
1.564173
1.562485
1.56211
1.562298
1.560798
1.56136
1.559673
1.55911
1.55911
1.560798
1.560798
1.560048
1.56136
1.561923
1.558735
1.558735
1.559673
1.56361
1.56361
1.562485
1.561923
1.55986
1.560798
1.560985
1.559485
1.55911
1.55911
1.55911
1.559485
1.55911
1.560048
1.56061
1.561548
1.55986
1.55836
1.560048
1.563048
1.563048
1.561548
1.561923
1.560048
1.562673
1.559298
1.559673
1.560048
1.557235
1.558548
1.558548
1.559485
1.560235
1.560985
1.56286
1.560423
1.557235
1.559485
1.563235
1.561923
1.561923
1.562485
1.560235
1.55836
1.558548
1.560235
1.560235
1.559485
1.558173
1.557797
1.557797
1.558548
1.561923
1.561548
1.558548
1.559298
1.558735
1.563423
1.562485
1.562485
1.560235
1.55911
1.559485
1.559298
1.55836
1.558548
1.558548
1.557235
1.558735
1.558735
1.558923
1.55986
1.56136
1.55686
1.556485
1.559673
1.564735
1.56136
1.560985
1.560985
1.558548
1.557047
1.56061
1.559298
1.557985
1.556485
1.55536
1.557423
1.557797
1.557797
1.561548
1.561923
1.557797
1.557235
1.558548
1.561923
1.562485
1.560423
1.558173
1.558173
1.559673
1.557797
1.559298
1.557423
1.55761
1.555547
1.557797
1.55536
1.55986
1.55986
1.558923
1.558923
1.556298
1.55761
1.560235
1.561173
1.558923
1.557985
1.557985
1.55761
1.557985
1.559298
1.55686
1.556485
1.554047
1.555172
1.557423
1.560048
1.560048
1.559673
1.557423
1.55686
1.558173
1.55986
1.558735
1.560235
1.558173
1.557985
1.557985
1.557985
1.557047
1.557797
1.55611
1.555547
1.555735
1.555547
1.558173
1.55836
1.55836
1.55611
1.556298
1.556672
1.557985
1.55911
1.557797
1.557423
1.555923
1.55686
1.55686
1.55536
1.557235
1.55761
1.554047
1.555735
1.556672
1.55836
1.55836
1.55836
1.555547
1.555735
1.556298
1.560048
1.560235
1.558735
1.557423
1.553672
1.554985
1.554985
1.557985
1.556485
1.555735
1.554047
1.557423
1.554798
1.557985
1.557797
1.557423
1.557423
1.555547
1.555735
1.55836
1.55686
1.557423
1.556485
1.558548
1.55536
1.556672
1.556672
1.55611
1.554798
1.554047
1.555172
1.556672
1.559673
1.55911
1.557797
1.555923
1.555923
1.556298
1.55761
1.55911
1.556672
1.558173
1.555547
1.555547
1.558173
1.556298
1.556298
1.555735
1.554798
1.554798
1.553297
1.556298
1.557047
1.557985
1.55461
1.55461
1.555735
1.558548
1.558735
1.556485
1.556672
1.556298
1.556298
1.555172
1.555735
1.555735
1.554422
1.551235
1.554047
1.555172
1.55986
1.557235
1.557797
1.55611
1.553297
1.553297
1.557047
1.55836
1.55536
1.557423
1.556485
1.556485
1.556485
1.555923
1.553485
1.55311
1.55311
1.555923
1.556298
1.557423
1.558548
1.55686
1.554235
1.55836
1.557797
1.55536
1.55536
1.558173
1.55461
1.55686
1.55536
1.556298
1.556672
1.552922
1.55536
1.55536
1.55536
1.55761
1.557235
1.557423
1.55461
1.55311
1.556298
1.559298
1.556672
1.556672
1.55611
1.55386
1.555172
1.555547
1.556485
1.554422
1.553297
1.553485
1.55536
1.55536
1.55461
1.557423
1.557423
1.555735
1.55386
1.554047
1.557985
1.557047
1.55761
1.55761
1.554047
1.554235
1.554235
1.556672
1.554985
1.552547
1.552735
1.553297
1.555735
1.555735
1.55761
1.557047
1.55611
1.55611
1.555547
1.55836
1.557985
1.55536
1.553297
1.553297
1.554985
1.557047
1.55536
1.554235
1.554798
1.552547
1.555547
1.555735
1.555735
1.559485
1.556298
1.55536
1.554235
1.55536
1.55686
1.555735
1.556672
1.553672
1.553672
1.55536
1.554798
1.555172
1.555172
1.552922
1.551797
1.554985
1.556298
1.55611
1.55611
1.557423
1.554798
1.555735
1.55536
1.559673
1.556298
1.55686
1.556298
1.557047
1.557047
1.556298
1.555547
1.555172
1.552922
1.55386
1.555923
1.557047
1.555735
1.55611
1.55611
1.55461
1.553672
1.557985
1.558548
1.558735
1.55836
1.557985
1.556298
1.556298
1.555172
1.55686
1.554047
1.554798
1.553672
1.55386
1.55611
1.559298
1.559298
1.559298
1.55686
1.554798
1.557797
1.559673
1.558173
1.557797
1.558735
1.557985
1.55611
1.55611
1.555923
1.556298
1.555923
1.554985
1.555735
1.555735
1.558923
1.557423
1.557235
1.557235
1.556672
1.557423
1.561923
1.559673
1.557985
1.55686
1.559673
1.556298
1.556298
1.556298
1.558173
1.554422
1.556298
1.556298
1.55836
1.55836
1.55836
1.557423
1.55761
1.55761
1.560048
1.560985
1.56136
1.55986
1.559298
1.55686
1.557235
1.558173
1.558173
1.557423
1.55836
1.55836
1.555923
1.557423
1.55986
1.55986
1.558923
1.558173
1.558173
1.560798
1.561548
1.560048
1.560798
1.559485
1.560798
1.557423
1.56061
1.56061
1.56061
1.55761
1.559298
1.558923
1.558548
1.560798
1.56061
1.55986
1.55911
1.56061
1.56061
1.56211
1.562485
1.56061
1.560423
1.561735
1.560423
1.56061
1.56061
1.560048
1.560048
1.557797
1.560235
1.55986
1.56361
1.563798
1.56361
1.560048
1.559485
1.559485
1.563048
1.56286
1.561923
1.561923
1.560985
1.560423
1.563048
1.559485
1.558735
1.558735
1.560423
1.56061
1.560048
1.56361
1.560798
1.561548
1.560423
1.561923
1.564548
1.564548
1.565298
1.56211
1.56211
1.562673
1.562673
1.562485
1.562298
1.560235
1.55911
1.55911
1.56211
1.561173
1.563235
1.564548
1.563985
1.561548
1.560235
1.564735
1.564735
1.564735
1.563985
1.563798
1.562673
1.56286
1.563048
1.563235
1.560423
1.560423
1.560423
1.560985
1.56361
1.56436
1.563235
1.56361
1.56286
1.561735
1.564173
1.566985
1.566985
1.56436
1.563985
1.563798
1.56361
1.56286
1.566048
1.561923
1.559673
1.562673
1.562673
1.563048
1.566235
1.567548
1.561735
1.563423
1.563798
1.568485
1.566048
1.565298
1.565298
1.567173
1.563235
1.564173
1.564923
1.565298
1.565485
1.562485
1.563798
1.563985
1.563985
1.56436
1.56511
1.566985
1.564548
1.565485
1.567173
1.567735
1.567173
1.567173
1.56661
1.56586
1.563798
1.56586
1.56661
1.564923
1.563423
1.56361
1.56361
1.56361
1.567173
1.565485
1.566235
1.564173
1.56511
1.56811
1.566048
1.566423
1.565485
1.565485
1.562673
1.564735
1.563985
1.566985
1.56436
1.562298
1.564735
1.565673
1.567923
1.567923
1.568673
1.565298
1.56361
1.564548
1.56811
1.56886
1.566235
1.566423
1.565485
1.565485
1.56586
1.565298
1.567548
1.565485
1.562673
1.565673
1.56511
1.56736
1.56661
1.56661
1.567923
1.566423
1.565298
1.569048
1.570173
1.569048
1.568298
1.566423
1.566423
1.567173
1.56661
1.565673
1.565673
1.563423
1.565298
1.566235
1.568298
1.56661
1.56661
1.567548
1.565485
1.565485
1.56886
1.570173
1.567548
1.567923
1.566985
1.566798
1.566798
1.56736
1.566235
1.565485
1.565485
1.566048
1.566423
1.567923
1.566798
1.569235
1.569235
1.56661
1.567923
1.569985
1.570173
1.56811
1.56886
1.567548
1.566423
1.56811
1.56811
1.56661
1.56736
1.56586
1.566985
1.565673
1.569798
1.567735
1.56811
1.56811
1.567173
1.567173
1.567923
1.570173
1.569985
1.569423
1.56736
1.567173
1.56586
1.56586
1.568485
1.567548
1.56661
1.565673
1.56511
1.566798
1.567735
1.569048
1.569235
1.569235
1.56661
1.567735
1.57111
1.568673
1.569235
1.567548
1.567173
1.567923
1.569985
1.569985
1.567548
1.566798
1.568298
1.56961
1.56961
1.569798
1.57036
1.569048
1.569048
1.569048
1.569985
1.57336
1.570923
1.572048
1.56886
1.570173
1.568298
1.569985
1.569985
1.567548
1.56511
1.567548
1.568673
1.570548
1.567923
1.570548
1.568485
1.56811
1.56811
1.571486
1.572048
1.56961
1.570735
1.571486
1.57036
1.56961
1.571486
1.568673
1.568673
1.56886
1.569235
1.569798
1.56886
1.571673
1.570173
1.56886
1.569423
1.570173
1.570173
1.57336
1.571298
1.572423
1.569798
1.569985
1.569048
1.571486
1.570173
1.569985
1.569985
1.568673
1.57036
1.569985
1.572423
1.571486
1.57036
1.569048
1.571673
1.571673
1.572986
1.570923
1.572423
1.570735
1.57111
1.56961
1.57036
1.570735
1.56886
1.56886
1.568298
1.569423
1.569798
1.572048
1.572423
1.57036
1.571298
1.570735
1.572798
1.572798
1.570735
1.574111
1.569423
1.570735
1.570923
1.570735
1.572235
1.570548
1.568298
1.568298
1.570173
1.569798
1.572048
1.572798
1.572798
1.569985
1.572798
1.573923
1.572798
1.572798
1.572423
1.57186
1.57111
1.57111
1.57186
1.572048
1.57036
1.571486
1.571486
1.571486
1.573173
1.574111
1.574298
1.572423
1.573173
1.572798
1.576923
1.574486
1.574486
1.57186
1.57111
1.57111
1.571486
1.573923
1.57336
1.570923
1.570735
1.57261
1.57261
1.572048
1.572986
1.572798
1.57186
1.572798
1.572423
1.576736
1.575611
1.573173
1.573173
1.573173
1.575236
1.572986
1.575423
1.572235
1.570923
1.57111
1.57261
1.571486
1.571486
1.574673
1.572423
1.57261
1.572423
1.575236
1.576361
1.576361
1.577673
1.572048
1.572048
1.575236
1.572798
1.573173
1.574486
1.57186
1.572235
1.574298
1.575423
1.575423
1.576923
1.575798
1.575236
1.574673
1.575236
1.576173
1.576361
1.576736
1.576923
1.576923
1.573923
1.576361
1.576548
1.575798
1.574298
1.57336
1.574673
1.574673
1.577486
1.577486
1.577673
1.577673
1.575048
1.576548
1.578798
1.579173
1.576173
1.578048
1.574486
1.574486
1.574298
1.575611
1.578236
1.575611
1.573548
1.575423
1.575611
1.576548
1.575798
1.575798
1.577111
1.574486
1.576923
1.579923
1.577861
1.576923
1.578048
1.577861
1.577861
1.576548
1.578611
1.575798
1.576361
1.573923
1.575423
1.576923
1.578986
1.578048
1.578048
1.577298
1.578048
1.576736
1.579173
1.579548
1.579923
1.577673
1.577486
1.575611
1.575611
1.579173
1.579361
1.578236
1.575798
1.576548
1.580486
1.577298
1.579173
1.577673
1.577673
1.578986
1.580673
1.580673
1.580298
1.579548
1.578611
1.576548
1.578611
1.580298
1.580298
1.578423
1.575611
1.577298
1.579736
1.581611
1.578611
1.579361
1.580111
1.578048
1.578048
1.582173
1.582173
1.579923
1.580298
1.579548
1.578048
1.580673
1.581611
1.579736
1.579736
1.577111
1.581048
1.579361
1.581048
1.580861
1.580673
1.578986
1.578986
1.583298
1.583298
1.583486
1.582736
1.581423
1.580298
1.580298
1.582173
1.579923
1.580298
1.580298
1.577486
1.579361
1.578611
1.582548
1.580111
1.583298
1.579361
1.580298
1.584048
1.584048
1.582923
1.583298
1.582548
1.582361
1.581423
1.580298
1.583673
1.580861
1.578611
1.578611
1.581611
1.581611
1.582361
1.580486
1.583298
1.581986
1.580111
1.585736
1.584423
1.584423
1.583111
1.582548
1.581986
1.582923
1.582548
1.582548
1.581986
1.577861
1.581986
1.581986
1.583111
1.584423
1.582548
1.583673
1.582173
1.584423
1.584986
1.587048
1.587048
1.584048
1.584423
1.582361
1.585173
1.582923
1.582923
1.583486
1.581611
1.581423
1.581423
1.582548
1.584986
1.583861
1.586111
1.584611
1.582736
1.584986
1.585736
1.587986
1.587986
1.586486
1.584048
1.583673
1.584611
1.586861
1.583298
1.582173
1.582923
1.582548
1.582548
1.584798
1.585173
1.585361
1.584986
1.582548
1.585736
1.586673
1.585548
1.585923
1.585923
1.584048
1.583673
1.584798
1.584798
1.583673
1.582736
1.585173
1.584048
1.584048
1.585736
1.584798
1.587048
1.584423
1.583861
1.582923
1.589298
1.588361
1.586298
1.586298
1.583486
1.585361
1.584423
1.586673
1.586298
1.583673
1.583298
1.584048
1.586861
1.586861
1.587799
1.587986
1.584611
1.583861
1.586486
1.590236
1.588361
1.587236
1.587611
1.587611
1.586298
1.585736
1.585923
1.588173
1.584048
1.584986
1.585548
1.586298
1.586673
1.586673
1.588736
1.587236
1.586111
1.586861
1.590236
1.587423
1.588736
1.586486
1.586486
1.586486
1.586486
1.586486
1.584611
1.584611
1.584798
1.587048
1.587986
1.587048
1.587048
1.587799
1.587236
1.586298
1.587236
1.590799
1.589298
1.587611
1.585923
1.585923
1.585923
1.585361
1.586111
1.585923
1.586111
1.584236
1.585923
1.587236
1.587236
1.587611
1.587611
1.586486
1.587611
1.587611
1.590611
1.589674
1.589298
1.585923
1.586111
1.587799
1.587799
1.588361
1.586861
1.585361
1.586486
1.587611
1.586861
1.587236
1.588923
1.586861
1.586861
1.586486
1.587986
1.590986
1.586673
1.587611
1.587048
1.584798
1.587236
1.587236
1.588361
1.587611
1.585923
1.583111
1.585736
1.586861
1.587799
1.588923
1.586111
1.586111
1.585548
1.587611
1.590986
1.590424
1.588548
1.586486
1.587611
1.587423
1.586486
1.586486
1.587236
1.586111
1.584236
1.588173
1.586298
1.588173
1.589111
1.586673
1.585923
1.585923
1.587423
1.589298
1.587611
1.588548
1.584611
1.587423
1.585923
1.588923
1.587611
1.587611
1.586861
1.584236
1.586486
1.587423
1.588361
1.587986
1.587048
1.585923
1.586111
1.586111
1.589111
1.588923
1.588548
1.586298
1.584423
1.584986
1.587423
1.587423
1.587423
1.585173
1.584798
1.584611
1.584798
1.587236
1.586673
1.585548
1.585548
1.585736
1.585736
1.587423
1.589111
1.588923
1.586486
1.586486
1.584798
1.585548
1.587236
1.584986
1.584986
1.584048
1.585736
1.585548
1.587423
1.586298
1.586673
1.585736
1.585736
1.588548
1.588548
1.584986
1.586673
1.586111
1.585548
1.583673
1.586111
1.587611
1.583298
1.583298
1.583298
1.583673
1.584611
1.585361
1.585736
1.585361
1.584236
1.586111
1.587986
1.587986
1.586673
1.585548
1.586111
1.583673
1.583861
1.585173
1.584423
1.584048
1.582736
1.582736
1.585736
1.585173
1.586298
1.584798
1.585923
1.584798
1.585548
1.586861
1.586673
1.586673
1.585923
1.584611
1.582736
1.584611
1.585173
1.584423
1.581611
1.582736
1.583486
1.583486
1.583861
1.586111
1.585736
1.584236
1.582736
1.583486
1.587986
1.586111
1.586673
1.586673
1.586298
1.583111
1.582923
1.584423
1.584986
1.582361
1.580298
1.583486
1.583486
1.583486
1.586298
1.584611
1.586486
1.584236
1.584986
1.585548
1.586673
1.582923
1.582923
1.584611
1.583861
1.583486
1.583298
1.584798
1.584048
1.579736
1.581423
1.582173
1.582173
1.584048
1.583111
1.586111
1.582548
1.583673
1.586298
1.584236
1.584986
1.583673
1.583673
1.583673
1.582736
1.582173
1.584423
1.582923
1.578611
1.581986
1.581798
1.583673
1.583673
1.583298
1.583298
1.581236
1.581423
1.584611
1.585361
1.584611
1.585736
1.584798
1.584798
1.583486
1.583111
1.583673
1.583111
1.579923
1.582923
1.580673
1.583673
1.583673
1.583486
1.582923
1.582361
1.582923
1.584986
1.583861
1.583486
1.582923
1.581236
1.581236
1.581423
1.581611
1.582548
1.580298
1.580486
1.581986
1.581236
1.583673
1.583111
1.583111
1.584798
1.580673
1.582173
1.583861
1.586111
1.583673
1.583673
1.582548
1.583111
1.583111
1.581798
1.583298
1.582173
1.580861
1.582173
1.580298
1.581798
1.581236
1.583486
1.583486
1.581611
1.581048
1.582173
1.584986
1.583486
1.583673
1.581986
1.582548
1.582548
1.582361
1.583673
1.582548
1.579173
1.580673
1.580298
1.584423
1.582548
1.584236
1.584236
1.581986
1.582173
1.583111
1.585736
1.582361
1.583673
1.582173
1.580673
1.581611
1.581611
1.582361
1.580298
1.579923
1.580298
1.582173
1.582173
1.584986
1.583673
1.582361
1.582361
1.580861
1.581423
1.584048
1.584236
1.584423
1.582736
1.582548
1.581986
1.584611
1.584611
1.581798
1.578423
1.578236
1.581611
1.582736
1.583111
1.582173
1.582173
1.582173
1.580861
1.583861
1.586298
1.582923
1.584423
1.580298
1.582361
1.582548
1.582923
1.582923
1.583673
1.580861
1.580673
1.580111
1.581423
1.581423
1.583298
1.582173
1.580673
1.580673
1.584048
1.586298
1.583673
1.583673
1.581798
1.582923
1.582361
1.583298
1.580861
1.580861
1.578611
1.578798
1.581236
1.581611
1.582361
1.585736
1.580861
1.581423
1.578798
1.578798
1.584611
1.583861
1.585736
1.580486
1.581611
1.581611
1.582173
1.581611
1.581611
1.580486
1.580673
1.581798
1.580673
1.584236
1.581611
1.581236
1.581798
1.583673
1.583673
1.585736
1.583111
1.583861
1.581986
1.581423
1.580861
1.583486
1.582736
1.580486
1.580486
1.581048
1.582361
1.581423
1.583673
1.584423
1.581798
1.582736
1.584048
1.583861
1.583861
1.582361
1.584048
1.584798
1.582548
1.582736
1.582173
1.580861
1.580673
1.580111
1.580111
1.583111
1.581798
1.583298
1.583861
1.582548
1.584236
1.582361
1.585923
1.585923
1.582173
1.583298
1.582548
1.581611
1.583486
1.583673
1.582548
1.580486
1.580111
1.580111
1.582923
1.582736
1.584048
1.584986
1.583111
1.583486
1.583298
1.585361
1.584423
1.584423
1.586111
1.582548
1.584423
1.581423
1.583673
1.583673
1.581798
1.581423
1.583298
1.583298
1.582736
1.584048
1.584798
1.583861
1.581986
1.584611
1.586861
1.586111
1.584798
1.584798
1.584798
1.583298
1.584236
1.585923
1.583861
1.581423
1.581423
1.583861
1.584986
1.584986
1.585361
1.583861
1.582173
1.583298
1.587611
1.587799
1.585736
1.584986
1.583673
1.583673
1.583861
1.581986
1.586486
1.583111
1.582548
1.584048
1.583111
1.585173
1.586486
1.586486
1.583298
1.581798
1.583486
1.588923
1.589486
1.586861
1.585736
1.584423
1.584423
1.584423
1.585736
1.586298
1.584986
1.583673
1.583673
1.583861
1.587236
1.586111
1.584423
1.584423
1.584048
1.584986
1.588361
1.589674
1.587236
1.586111
1.586111
1.586486
1.585173
1.585173
1.586298
1.585361
1.583111
1.584798
1.584611
1.586486
1.587611
1.587048
1.585361
1.585361
1.585548
1.588736
1.588548
1.587236
1.586673
1.586486
1.585548
1.586486
1.586486
1.587048
1.586673
1.583111
1.585923
1.584611
1.586298
1.588548
1.586111
1.585736
1.585736
1.586111
1.589861
1.588361
1.587236
1.587611
1.585923
1.585736
1.587611
1.587423
1.587423
1.585548
1.583673
1.584611
1.586861
1.587799
1.589111
1.588923
1.587048
1.586673
1.586673
1.590049
1.589674
1.588548
1.589861
1.588173
1.589674
1.588923
1.588736
1.587799
1.587799
1.586673
1.585548
1.585361
1.588736
1.587799
1.588548
1.587611
1.588736
1.588736
1.590611
1.590049
1.590424
1.589111
1.589486
1.586111
1.587611
1.588923
1.587611
1.587611
1.584236
1.587799
1.588548
1.591924
1.587611
1.589674
1.588361
1.587799
1.590049
1.590049
1.590424
1.590236
1.589298
1.589486
1.589486
1.589298
1.588736
1.589298
1.586861
1.586861
1.586486
1.588923
1.590424
1.588736
1.591361
1.588173
1.588923
1.592111
1.592486
1.592486
1.590236
1.589486
1.588923
1.589861
1.589111
1.590049
1.591361
1.586861
1.586861
1.587236
1.590049
1.592861
1.590986
1.591736
1.589486
1.590236
1.591361
1.593986
1.593986
1.592486
1.592111
1.589861
1.589674
1.590049
1.590424
1.588736
1.586298
1.589486
1.589486
1.589861
1.590424
1.590424
1.590236
1.589298
1.590049
1.591924
1.592674
1.592111
1.592111
1.592861
1.591549
1.590799
1.590799
1.590424
1.591549
1.588173
1.587799
1.589861
1.589861
1.590986
1.592111
1.592486
1.590049
1.590799
1.591924
1.595674
1.591924
1.591924
1.591549
1.590049
1.589298
1.592299
1.592674
1.589486
1.590424
1.589486
1.591549
1.591549
1.591549
1.592486
1.592861
1.591549
1.590986
1.592861
1.593236
1.593049
1.593424
1.593424
1.593049
1.593049
1.592861
1.592674
1.591549
1.592111
1.589674
1.590424
1.590986
1.590986
1.593236
1.593611
1.590799
1.591174
1.591736
1.593986
1.594174
1.594174
1.593799
1.593799
1.592486
1.592299
1.593986
1.590611
1.590611
1.591361
1.592111
1.593049
1.593049
1.593424
1.594361
1.592861
1.591549
1.592486
1.596799
1.593986
1.595299
1.592299
1.592299
1.594361
1.593236
1.593799
1.592299
1.589486
1.590236
1.592111
1.594361
1.594549
1.594549
1.593611
1.591549
1.591549
1.593799
1.597924
1.596236
1.596424
1.593611
1.594174
1.594174
1.593424
1.593236
1.594361
1.591361
1.593236
1.593236
1.593236
1.594736
1.593611
1.593611
1.593799
1.591549
1.594736
1.599424
1.597174
1.594736
1.594736
1.593236
1.593236
1.594736
1.594924
1.593236
1.593049
1.592861
1.594736
1.593424
1.595111
1.595486
1.595486
1.594549
1.594924
1.594174
1.596236
1.595486
1.595299
1.593236
1.593611
1.594361
1.594361
1.595486
1.593799
1.592674
1.592486
1.594549
1.593799
1.595861
1.595299
1.594736
1.594736
1.592111
1.594736
1.597549
1.596049
1.595486
1.594361
1.594924
1.594736
1.596049
1.596049
1.594549
1.591549
1.592111
1.594736
1.594174
1.596236
1.595486
1.594174
1.593611
1.593611
1.594924
1.597736
1.596236
1.597361
1.596049
1.594924
1.594736
1.597174
1.597174
1.595299
1.592299
1.593424
1.594924
1.594174
1.597361
1.596986
1.595861
1.595111
1.595111
1.595674
1.597174
1.597174
1.596424
1.596799
1.595111
1.595111
1.595299
1.595486
1.595486
1.594924
1.596236
1.594549
1.596049
1.596236
1.596986
1.596424
1.594361
1.595486
1.595486
1.597736
1.598861
1.598299
1.597174
1.596986
1.595111
1.597736
1.596799
1.595299
1.595299
1.594174
1.595674
1.592486
1.596986
1.598486
1.597361
1.596049
1.596986
1.596986
1.599236
1.598486
1.599236
1.597174
1.597174
1.596799
1.598674
1.596424
1.595674
1.595674
1.594924
1.596049
1.595674
1.596424
1.597549
1.595486
1.594174
1.596611
1.602049
1.602049
1.598861
1.598299
1.596986
1.598674
1.595486
1.597736
1.598861
1.596424
1.596799
1.596799
1.596424
1.596424
1.598299
1.596799
1.599611
1.597361
1.597361
1.600736
1.599049
1.599049
1.598674
1.598486
1.596424
1.599049
1.598861
1.597924
1.596986
1.595674
1.594361
1.594361
1.596611
1.599236
1.599049
1.597924
1.599049
1.597174
1.601486
1.600549
1.600549
1.598861
1.598861
1.597549
1.596424
1.595299
1.598111
1.597736
1.594174
1.597736
1.597736
1.597924
1.599611
1.599049
1.598486
1.598674
1.598299
1.600736
1.599049
1.599611
1.599611
1.598861
1.600174
1.596799
1.598111
1.599424
1.596611
1.596236
1.598486
1.596986
1.596986
1.600174
1.600174
1.599799
1.596611
1.597549
1.599986
1.599049
1.600361
1.600174
1.600174
1.599049
1.597174
1.597549
1.599799
1.596424
1.596424
1.597924
1.598111
1.598111
1.600924
1.599986
1.600361
1.599236
1.597736
1.600736
1.602049
1.599799
1.599799
1.599799
1.598674
1.598299
1.596799
1.600361
1.598674
1.596799
1.597174
1.599049
1.601486
1.601486
1.600361
1.599049
1.597549
1.598486
1.601486
1.601486
1.599986
1.599611
1.599049
1.599049
1.599611
1.599424
1.600174
1.599611
1.596799
1.597174
1.597174
1.600549
1.599049
1.599049
1.600361
1.598674
1.599986
1.600924
1.601861
1.600361
1.601111
1.599611
1.599611
1.597924
1.599236
1.599986
1.597549
1.596799
1.598486
1.597549
1.600361
1.599986
1.599986
1.602049
1.599049
1.597736
1.601111
1.602611
1.601111
1.601674
1.599424
1.599799
1.599799
1.598299
1.601299
1.600361
1.596986
1.596986
1.598674
1.600736
1.602986
1.600361
1.600361
1.599986
1.599611
1.600736
1.602237
1.600174
1.600924
1.597549
1.599799
1.598674
1.598674
1.599799
1.600736
1.597924
1.599236
1.599799
1.601674
1.602237
1.600924
1.600924
1.600361
1.598111
1.601299
1.603174
1.602799
1.601674
1.597924
1.601486
1.601299
1.601299
1.599424
1.600736
1.598486
1.600361
1.598861
1.599799
1.601674
1.601486
1.599799
1.599799
1.600361
1.600924
1.603174
1.603736
1.601861
1.601861
1.601111
1.600549
1.600736
1.600736
1.601486
1.597549
1.599611
1.600736
1.600174
1.601861
1.602986
1.602237
1.598861
1.598861
1.602049
1.604674
1.602799
1.601861
1.599799
1.600549
1.599611
1.600924
1.599611
1.599611
1.599611
1.598674
1.601486
1.601861
1.601299
1.603736
1.599611
1.599424
1.599424
1.600736
1.605049
1.604111
1.602986
1.601299
1.600174
1.599236
1.601486
1.601299
1.601299
1.599611
1.598861
1.599799
1.602237
1.602237
1.602986
1.601111
1.600361
1.601486
1.601486
1.604111
1.603174
1.604486
1.601674
1.599611
1.601674
1.602424
1.602237
1.599611
1.599611
1.601486
1.602799
1.602237
1.603174
1.604299
1.602049
1.602237
1.606174
1.604111
1.604111
1.602986
1.602611
1.600736
1.602799
1.604299
1.601111
1.600174
1.601674
1.601861
1.601861
1.600924
1.604486
1.602986
1.600924
1.603362
1.602237
1.605799
1.605424
1.604674
1.604674
1.600549
1.602986
1.602611
1.605049
1.603924
1.601299
1.600924
1.603736
1.602424
1.602424
1.602986
1.603549
1.604111
1.601299
1.603549
1.606174
1.604861
1.604674
1.604674
1.605986
1.601299
1.601861
1.602611
1.601674
1.600549
1.602237
1.602799
1.601861
1.601861
1.604861
1.604486
1.603174
1.601486
1.602799
1.606362
1.606362
1.605611
1.604861
1.604861
1.603549
1.602799
1.604299
1.604674
1.601674
1.599799
1.603174
1.603362
1.604299
1.604299
1.604861
1.603362
1.601861
1.604861
1.605424
1.608237
1.605799
1.605799
1.604111
1.604111
1.603736
1.604861
1.605611
1.602799
1.602986
1.603924
1.604861
1.606924
1.606924
1.605611
1.603736
1.603362
1.604674
1.606737
1.606737
1.606924
1.604299
1.605049
1.605049
1.604674
1.605424
1.605236
1.604299
1.603174
1.604486
1.603924
1.605799
1.608237
1.608237
1.605424
1.603736
1.605236
1.608987
1.606362
1.606924
1.605049
1.606174
1.605236
1.605236
1.606174
1.606924
1.606737
1.602424
1.605049
1.605049
1.604861
1.605986
1.605799
1.605799
1.606549
1.606174
1.607862
1.606362
1.606737
1.607112
1.605424
1.604486
1.604486
1.605424
1.606362
1.604674
1.603549
1.604111
1.604861
1.607862
1.606362
1.606174
1.606174
1.605799
1.605236
1.608612
1.606924
1.606174
1.605049
1.605611
1.605799
1.607112
1.607112
1.606737
1.607299
1.603549
1.606362
1.604674
1.607299
1.609737
1.607112
1.605986
1.605986
1.605986
1.609737
1.608237
1.606549
1.606174
1.605611
1.606737
1.606549
1.606362
1.606362
1.607112
1.603924
1.605986
1.606362
1.609174
1.609174
1.607862
1.606362
1.605049
1.605049
1.609549
1.608799
1.606174
1.608612
1.605236
1.606362
1.606362
1.607299
1.607299
1.607299
1.604111
1.604861
1.607674
1.607487
1.607299
1.606362
1.607112
1.606174
1.606174
1.609924
1.610674
1.607674
1.609924
1.606174
1.606549
1.608424
1.607862
1.608799
1.608799
1.606737
1.606362
1.606174
1.607674
1.609174
1.609549
1.607112
1.608049
1.610674
1.610674
1.609362
1.611049
1.609174
1.608049
1.607299
1.608612
1.609924
1.607674
1.605049
1.605049
1.607487
1.610112
1.609737
1.609737
1.608049
1.606174
1.608612
1.609549
1.609549
1.611799
1.609174
1.609174
1.608237
1.607487
1.608799
1.608799
1.606737
1.607112
1.607112
1.609174
1.608987
1.609549
1.609737
1.609362
1.607299
1.608799
1.610674
1.613299
1.613299
1.608799
1.609174
1.608612
1.608612
1.607299
1.609174
1.610112
1.606737
1.608049
1.608049
1.606737
1.609362
1.610112
1.611237
1.608049
1.609737
1.610299
1.613112
1.609737
1.609737
1.612549
1.608049
1.609362
1.610487
1.610674
1.607862
1.607299
1.606924
1.608987
1.608987
1.608612
1.610674
1.611424
1.609362
1.610112
1.610299
1.612737
1.613674
1.613674
1.611612
1.607862
1.610674
1.608799
1.611612
1.610299
1.608612
1.609362
1.609362
1.609362
1.609737
1.610487
1.611237
1.609924
1.608049
1.610299
1.612362
1.610112
1.611799
1.611799
1.610862
1.610674
1.610487
1.612924
1.611237
1.609174
1.610674
1.610299
1.611424
1.611424
1.610112
1.612924
1.609924
1.609549
1.609549
1.614237
1.612737
1.609924
1.610487
1.610487
1.610299
1.610299
1.611799
1.610674
1.610112
1.610862
1.610487
1.612549
1.612549
1.611237
1.612549
1.609737
1.610862
1.610674
1.613862
1.612737
1.611987
1.609174
1.609174
1.609549
1.610299
1.613674
1.609924
1.610299
1.610299
1.608987
1.610674
1.612362
1.612362
1.611049
1.608237
1.610487
1.610674
1.613487
1.612549
1.611987
1.611237
1.610112
1.610112
1.611987
1.612924
1.610674
1.608237
1.609174
1.611424
1.611612
1.611987
1.613112
1.613112
1.610112
1.612174
1.610674
1.615174
1.612924
1.612549
1.611612
1.610112
1.610112
1.610862
1.610299
1.611612
1.609549
1.609174
1.610862
1.611799
1.612174
1.613487
1.613487
1.610487
1.610674
1.610862
1.614237
1.613862
1.612362
1.610112
1.610487
1.609549
1.609549
1.613487
1.611987
1.609737
1.608987
1.610487
1.612362
1.613862
1.612924
1.611424
1.611424
1.609174
1.612362
1.613299
1.611612
1.610299
1.608049
1.611237
1.611612
1.614424
1.614424
1.611987
1.609362
1.609362
1.612549
1.612924
1.614237
1.614424
1.611049
1.611049
1.610487
1.609924
1.613299
1.611987
1.611799
1.611424
1.611049
1.612924
1.613112
1.613112
1.611987
1.609362
1.610862
1.609737
1.610674
1.611987
1.615174
1.610674
1.608612
1.608612
1.610862
1.616112
1.613487
1.611987
1.610674
1.612362
1.611612
1.612924
1.611799
1.611799
1.611237
1.610299
1.610487
1.612924
1.612924
1.614237
1.611424
1.610487
1.610299
1.610299
1.614237
1.613862
1.611237
1.612174
1.611237
1.610487
1.613487
1.610674
1.610674
1.610862
1.612924
1.612549
1.612362
1.613674
1.611424
1.611799
1.611237
1.612174
1.612174
1.614612
1.614237
1.613112
1.610299
1.611049
1.610862
1.611237
1.612174
1.612362
1.612362
1.609549
1.610862
1.611237
1.614424
1.612924
1.613299
1.610862
1.611424
1.613487
1.613487
1.612362
1.611987
1.611424
1.611237
1.612174
1.612737
1.611424
1.610112
1.611237
1.611237
1.611237
1.610674
1.614049
1.613862
1.612549
1.610674
1.609174
1.614237
1.613299
1.613299
1.612924
1.614049
1.612737
1.612174
1.613299
1.612362
1.612549
1.610487
1.610487
1.609737
1.609924
1.614049
1.613862
1.613487
1.610487
1.610299
1.613862
1.611237
1.611237
1.612549
1.611049
1.610112
1.612174
1.610674
1.612174
1.611049
1.610299
1.611987
1.611987
1.610674
1.613862
1.611987
1.612174
1.611799
1.611424
1.614237
1.612924
1.612737
1.612737
1.612924
1.611987
1.611049
1.611424
1.611424
1.611799
1.609737
1.610862
1.611424
1.611424
1.613112
1.612924
1.612737
1.609174
1.611424
1.612737
1.613674
1.610862
1.610862
1.610674
1.610674
1.611424
1.612924
1.611049
1.610674
1.608799
1.610674
1.612549
1.612549
1.612174
1.611237
1.612737
1.610862
1.610674
1.612362
1.612549
1.611987
1.611424
1.611424
1.609549
1.608237
1.611799
1.612174
1.609924
1.609924
1.613674
1.611799
1.611987
1.611987
1.612362
1.612737
1.610112
1.611612
1.612549
1.613299
1.611799
1.611799
1.610487
1.610487
1.611237
1.611612
1.613299
1.610862
1.606924
1.611612
1.611799
1.613112
1.613112
1.610112
1.611612
1.609174
1.608987
1.611987
1.613112
1.611424
1.613112
1.610862
1.610862
1.611799
1.612362
1.611987
1.608799
1.609174
1.608612
1.610674
1.612924
1.610862
1.610862
1.612924
1.608424
1.611237
1.612737
1.613862
1.611049
1.610674
1.608987
1.608612
1.608612
1.610112
1.611049
1.609549
1.607862
1.609924
1.611424
1.611987
1.611799
1.611612
1.611612
1.608424
1.609924
1.611612
1.611612
1.614049
1.611987
1.608799
1.610674
1.610674
1.610299
1.611612
1.611237
1.608049
1.610674
1.609924
1.611799
1.611799
1.609924
1.609924
1.608049
1.608612
1.609549
1.613112
1.608799
1.609737
1.609362
1.607862
1.611049
1.610487
1.610487
1.608424
1.609362
1.609174
1.611237
1.609174
1.612362
1.609549
1.608987
1.608987
1.608987
1.613112
1.611424
1.610112
1.609362
1.606737
1.610487
1.611612
1.611237
1.608049
1.608049
1.608612
1.609924
1.610674
1.611424
1.610862
1.606737
1.609174
1.609549
1.611237
1.611237
1.611237
1.609174
1.609362
1.610299
1.610299
1.611612
1.610487
1.607487
1.608237
1.608237
1.610112
1.608612
1.609549
1.611049
1.607674
1.609174
1.609174
1.611799
1.611799
1.611237
1.611049
1.609362
1.608612
1.608612
1.611049
1.610112
1.607299
1.608612
1.608612
1.607487
1.609362
1.610862
1.611612
1.609549
1.606737
1.608237
1.612549
1.610487
1.610487
1.609924
1.607862
1.610112
1.609924
1.609737
1.610487
1.608237
1.607299
1.608049
1.608049
1.608237
1.609549
1.609737
1.606549
1.607862
1.608799
1.612924
1.610299
1.609362
1.609362
1.608612
1.607674
1.608237
1.609174
1.608612
1.605611
1.607487
1.607487
1.607487
1.607674
1.611049
1.610674
1.607112
1.607674
1.609174
1.612174
1.608612
1.609174
1.609174
1.609549
1.606549
1.606924
1.606924
1.606924
1.606174
1.606924
1.607299
1.607674
1.607674
1.609549
1.609362
1.608424
1.608987
1.606924
1.612362
1.608799
1.607674
1.608237
1.608237
1.606174
1.606549
1.610299
1.606737
1.607674
1.604861
1.606549
1.607487
1.606924
1.606924
1.606549
1.606362
1.605799
1.606924
1.610112
1.607299
1.607487
1.606737
1.606737
1.607674
1.606924
1.608424
1.607862
1.604861
1.605611
1.604674
1.608237
1.609174
1.609174
1.608237
1.605236
1.603924
1.605049
1.609924
1.606924
1.608049
1.605424
1.607862
1.607862
1.607112
1.608237
1.606362
1.604861
1.604674
1.605424
1.607112
1.608612
1.608799
1.608799
1.605799
1.606174
1.605611
1.608987
1.606362
1.605049
1.606549
1.606362
1.606362
1.606362
1.604674
1.606549
1.604299
1.601861
1.603924
1.606362
1.609174
1.608987
1.608987
1.606174
1.603174
1.605236
1.608799
1.606737
1.605236
1.607487
1.603924
1.605049
1.605049
1.604674
1.606174
1.604486
1.603549
1.605049
1.606362
1.606549
1.606362
1.605236
1.605236
1.603549
1.602049
1.607487
1.606362
1.606174
1.605424
1.605236
1.604486
1.604486
1.604486
1.605049
1.606362
1.603362
1.602986
1.604861
1.605424
1.607674
1.606549
1.603924
1.603924
1.604111
1.605986
1.606924
1.604299
1.604299
1.602611
1.603924
1.604674
1.604861
1.604861
1.604486
1.600549
1.602799
1.603924
1.604111
1.605049
1.605424
1.601861
1.601861
1.603736
1.604111
1.605424
1.603549
1.604299
1.603736
1.601861
1.605049
1.605236
1.605236
1.604674
1.600174
1.604299
1.603549
1.603924
1.604861
1.604861
1.602611
1.602799
1.602799
1.606174
1.605799
1.605799
1.603174
1.603924
1.602799
1.603736
1.604674
1.601674
1.601674
1.602611
1.599986
1.601111
1.604674
1.604674
1.603736
1.602799
1.600736
1.605611
1.605611
1.604861
1.603736
1.603736
1.601674
1.601674
1.603174
1.603362
1.604111
1.604111
1.599236
1.601486
1.602611
1.602611
1.604299
1.603549
1.603362
1.602799
1.604674
1.604674
1.605049
1.602986
1.602049
1.600736
1.601486
1.602799
1.601861
1.602424
1.601111
1.601111
1.601486
1.602049
1.605049
1.602424
1.602049
1.599799
1.599611
1.603736
1.602424
1.602424
1.601299
1.601674
1.599424
1.601486
1.601861
1.602611
1.601861
1.599049
1.600361
1.600361
1.600924
1.602611
1.601861
1.601861
1.599986
1.599986
1.599799
1.603174
1.603174
1.602611
1.601111
1.600736
1.600549
1.600924
1.602049
1.600549
1.598486
1.599799
1.599799
1.598111
1.601861
1.600924
1.601111
1.599799
1.597549
1.600549
1.602986
1.599986
1.599986
1.600361
1.599049
1.600361
1.600549
1.601486
1.599799
1.597549
1.599799
1.598674
1.598674
1.601861
1.601674
1.601486
1.597174
1.598674
1.600924
1.599424
1.599799
1.600924
1.600924
1.597549
1.597549
1.598486
1.601111
1.600736
1.596236
1.597361
1.599236
1.600924
1.600924
1.599799
1.602799
1.597549
1.597549
1.599611
1.600361
1.599424
1.598674
1.598674
1.599049
1.599049
1.599611
1.599986
1.599424
1.596049
1.597174
1.597924
1.600174
1.600174
1.600174
1.598299
1.598111
1.597736
1.599049
1.601299
1.600549
1.598111
1.597174
1.597174
1.596049
1.597549
1.599424
1.597174
1.595299
1.596611
1.598111
1.599424
1.597736
1.597736
1.599049
1.598861
1.595111
1.597549
1.599986
1.598486
1.599986
1.593611
1.598674
1.598674
1.597361
1.599049
1.598111
1.595111
1.596799
1.596236
1.597174
1.597736
1.597736
1.596799
1.596611
1.596049
1.596049
1.598674
1.598861
1.598674
1.596799
1.596236
1.596236
1.596611
1.599049
1.597924
1.595486
1.596424
1.595861
1.596611
1.596799
1.596799
1.596799
1.595674
1.596236
1.595674
1.599049
1.596799
1.598299
1.595486
1.596049
1.596424
1.596424
1.598299
1.595486
1.594361
1.594174
1.593424
1.596236
1.596611
1.597736
1.593236
1.593236
1.596049
1.595486
1.598111
1.596424
1.595674
1.595674
1.595674
1.596049
1.596049
1.598111
1.596611
1.593799
1.594549
1.595861
1.595486
1.596236
1.596611
1.595486
1.595486
1.594736
1.595299
1.598111
1.595486
1.595674
1.594549
1.594361
1.593236
1.594549
1.594549
1.596236
1.592674
1.593424
1.594924
1.596424
1.596424
1.596424
1.593986
1.593049
1.593049
1.592486
1.596611
1.597736
1.594549
1.593424
1.593799
1.594361
1.594924
1.594174
1.594174
1.593799
1.591174
1.592486
1.595299
1.595486
1.595674
1.594549
1.593049
1.592674
1.592674
1.596424
1.594736
1.595674
1.593236
1.593611
1.590986
1.594924
1.594549
1.594549
1.592674
1.593424
1.593236
1.595299
1.595299
1.594736
1.592861
1.591736
1.591736
1.591736
1.596799
1.596611
1.593799
1.593236
1.593049
1.593799
1.592861
1.593424
1.592486
1.592486
1.592111
1.592299
1.592674
1.595674
1.593611
1.591736
1.592674
1.591549
1.595299
1.595299
1.593799
1.592861
1.594549
1.593049
1.592861
1.592674
1.594549
1.590049
1.591924
1.591924
1.591361
1.592111
1.592299
1.593424
1.592674
1.590986
1.591361
1.595111
1.595111
1.592674
1.591924
1.591174
1.591361
1.591361
1.591549
1.592111
1.590799
1.589486
1.589486
1.591174
1.593049
1.593986
1.593424
1.590799
1.590236
1.590986
1.593799
1.592486
1.592486
1.592486
1.590236
1.592861
1.592674
1.592861
1.590986
1.590799
1.589298
1.591361
1.591361
1.592299
1.592299
1.592861
1.590799
1.588736
1.589861
1.593424
1.593799
1.590986
1.590986
1.590424
1.589674
1.590236
1.591361
1.591174
1.591736
1.589861
1.590611
1.590611
1.590049
1.590611
1.592486
1.592111
1.590049
1.588736
1.592861
1.592674
1.590799
1.590799
1.590236
1.590611
1.590424
1.589861
1.591549
1.590236
1.588548
1.591736
1.589111
1.589111
1.591924
1.591174
1.589674
1.587799
1.588173
1.591174
1.593049
1.590799
1.589861
1.589861
1.590986
1.587611
1.590986
1.590986
1.590236
1.587611
1.590049
1.588361
1.591924
1.591924
1.590049
1.589674
1.586486
1.588923
1.591549
1.591174
1.590799
1.588361
1.588361
1.588548
1.589486
1.591174
1.589486
1.588361
1.587799
1.589486
1.587799
1.589298
1.589861
1.589861
1.587799
1.586486
1.587799
1.590986
1.589111
1.587799
1.588173
1.589861
1.587986
1.587986
1.588923
1.588548
1.586673
1.587423
1.586486
1.589298
1.588923
1.589861
1.589861
1.586673
1.584798
1.589486
1.589298
1.587986
1.587986
1.588923
1.586298
1.589486
1.589486
1.589486
1.588173
1.585361
1.587048
1.587236
1.588173
1.587986
1.588923
1.586673
1.586673
1.586861
1.589674
1.590236
1.590611
1.587611
1.586486
1.585736
1.587986
1.588361
1.588361
1.587236
1.586861
1.586111
1.587611
1.588923
1.588173
1.589486
1.585548
1.585736
1.585736
1.588923
1.589674
1.588548
1.588548
1.585548
1.585361
1.586673
1.586673
1.586673
1.587423
1.584236
1.586486
1.587611
1.587423
1.586673
1.588736
1.586486
1.586111
1.586111
1.587423
1.588736
1.588173
1.586673
1.586486
1.584986
1.587611
1.588173
1.587048
1.587048
1.584798
1.585361
1.586298
1.586861
1.586861
1.587986
1.586486
1.585173
1.587048
1.587048
1.586861
1.586861
1.586111
1.585361
1.585173
1.585923
1.586298
1.586486
1.584048
1.584048
1.584798
1.586486
1.585736
1.587048
1.587048
1.584986
1.584611
1.584986
1.587799
1.587799
1.587799
1.584986
1.584048
1.585173
1.585923
1.586111
1.585361
1.583298
1.583298
1.582736
1.583673
1.585923
1.585173
1.586298
1.584236
1.584236
1.585361
1.587799
1.587799
1.587986
1.586298
1.584986
1.584236
1.584423
1.585923
1.584986
1.583486
1.584611
1.584611
1.584798
1.585548
1.583861
1.586673
1.583486
1.584048
1.585361
1.586673
1.585736
1.585736
1.585173
1.583486
1.584048
1.581986
1.586298
1.583861
1.584611
1.583861
1.582923
1.582923
1.585361
1.584423
1.584986
1.584236
1.581611
1.582736
1.587611
1.584611
1.584611
1.584423
1.581048
1.582923
1.583673
1.585361
1.583298
1.581611
1.583111
1.584611
1.584611
1.584986
1.584423
1.584048
1.583111
1.582361
1.582173
1.585548
1.582736
1.583486
1.583486
1.583298
1.580111
1.581048
1.584048
1.583486
1.580861
1.581236
1.581798
1.582361
1.582361
1.583298
1.584611
1.581611
1.581986
1.581423
1.584423
1.583673
1.583673
1.582548
1.582548
1.580673
1.581986
1.582548
1.582173
1.580486
1.578423
1.581611
1.581048
1.581048
1.580673
1.581798
1.581798
1.580861
1.581048
1.581986
1.582173
1.582548
1.581048
1.581048
1.581236
1.580486
1.582548
1.580861
1.579173
1.578236
1.580486
1.581048
1.582923
1.582923
1.581986
1.580298
1.577861
1.579736
1.582173
1.583673
1.581798
1.579736
1.580486
1.580486
1.579923
1.581986
1.580673
1.579923
1.578236
1.578423
1.581048
1.582548
1.583486
1.583486
1.580486
1.580673
1.579173
1.581986
1.580111
1.580298
1.578798
1.579548
1.579548
1.578986
1.580861
1.579736
1.577861
1.577298
1.580673
1.581048
1.581048
1.580486
1.580486
1.578986
1.578048
1.578611
1.581611
1.580298
1.581423
1.579923
1.577298
1.577861
1.577861
1.578798
1.578798
1.579173
1.577298
1.579361
1.578236
1.580673
1.579361
1.580673
1.580673
1.577861
1.579173
1.580861
1.581611
1.581048
1.579361
1.577486
1.578798
1.579736
1.579736
1.578236
1.577298
1.576923
1.577111
1.578611
1.581423
1.580298
1.579923
1.576736
1.576736
1.577486
1.581986
1.579736
1.580298
1.576548
1.575986
1.576923
1.580111
1.580111
1.579736
1.577673
1.576923
1.578048
1.577111
1.578798
1.580298
1.578611
1.576736
1.576736
1.577298
1.579548
1.579361
1.578236
1.578236
1.577486
1.576923
1.577861
1.578236
1.578236
1.577298
1.574111
1.575423
1.578798
1.579173
1.578986
1.577673
1.575423
1.575986
1.575986
1.579736
1.577861
1.577673
1.578423
1.576548
1.576736
1.576173
1.579173
1.577298
1.577298
1.574298
1.575236
1.577673
1.578236
1.578423
1.577111
1.576923
1.574486
1.574486
1.578236
1.579173
1.577298
1.575048
1.576173
1.577298
1.575423
1.576548
1.576548
1.576548
1.574673
1.576361
1.576173
1.577861
1.577861
1.577673
1.574673
1.574486
1.577111
1.577111
1.578236
1.576361
1.578423
1.575611
1.574298
1.575423
1.577111
1.575423
1.574111
1.574111
1.574673
1.575048
1.576173
1.578986
1.577111
1.573548
1.574486
1.577298
1.578236
1.578236
1.574486
1.575236
1.574486
1.574673
1.575986
1.578048
1.575423
1.574486
1.574486
1.574673
1.575611
1.576548
1.577111
1.576736
1.574486
1.575048
1.575611
1.574861
1.574861
1.576736
1.574298
1.574673
1.574486
1.575611
1.575986
1.574861
1.572986
1.572986
1.572986
1.574486
1.577861
1.574111
1.575798
1.572986
1.57336
1.575236
1.577298
1.575236
1.575236
1.575048
1.57261
1.574673
1.573923
1.575986
1.573923
1.572048
1.572986
1.573735
1.573735
1.574673
1.575986
1.575048
1.57261
1.57186
1.574298
1.577298
1.574673
1.574673
1.575798
1.573173
1.572986
1.575423
1.577111
1.574298
1.570548
1.573735
1.572798
1.572798
1.573923
1.574861
1.573923
1.572986
1.573548
1.573735
1.574673
1.574298
1.57261
1.57261
1.573923
1.571673
1.573173
1.574111
1.572986
1.571486
1.571673
1.572423
1.575423
1.575423
1.574861
1.575611
1.570735
1.573173
1.574861
1.575611
1.575611
1.574298
1.572423
1.572423
1.57186
1.573173
1.574298
1.572235
1.56886
1.572798
1.570923
1.575048
1.574111
1.574111
1.572798
1.57036
1.573173
1.572798
1.574673
1.57261
1.573923
1.571673
1.571673
1.57186
1.573173
1.574673
1.573923
1.57261
1.571673
1.573173
1.57336
1.572986
1.572986
1.572423
1.571298
1.571673
1.573548
1.573735
1.573735
1.571486
1.57336
1.572423
1.572423
1.571298
1.573548
1.572798
1.572048
1.569985
1.572048
1.57261
1.573923
1.573173
1.573173
1.57111
1.570735
1.572048
1.575986
1.57261
1.571673
1.572423
1.57186
1.57336
1.57336
1.575986
1.572986
1.56886
1.569423
1.571673
1.574298
1.572986
1.572798
1.572798
1.570923
1.57036
1.571298
1.574486
1.575048
1.573923
1.57186
1.57111
1.570923
1.570923
1.575048
1.570923
1.57036
1.570173
1.571298
1.572798
1.572423
1.572423
1.570548
1.570548
1.56961
1.570548
1.575423
1.572048
1.572423
1.571673
1.572798
1.572235
1.573173
1.573173
1.572235
1.570173
1.56961
1.572235
1.572048
1.573173
1.572986
1.570548
1.56961
1.56961
1.571486
1.573548
1.572986
1.573548
1.572235
1.569985
1.570735
1.572048
1.572048
1.571298
1.570173
1.57036
1.571673
1.570923
1.569985
1.573548
1.570923
1.569048
1.569048
1.569985
1.572986
1.574298
1.571486
1.57111
1.570923
1.572048
1.573548
1.572235
1.572235
1.569048
