157.9633,1.33
157.9633,1.348
157.9643,1.439
157.9643,1.68
157.9653,1.8
157.9653,1.915
157.9663,1.994
157.9663,2.025
157.9663,2.008
157.9673,1.852
157.9683,1.726
157.9693,1.603
157.9703,1.489
157.9713,1.392
157.9713,1.34
157.9723,1.357
157.9723,1.43
157.9733,1.542
157.9789,1.659
157.9794,1.789
157.9794,1.981
157.9804,2.009
157.9804,1.995
157.9804,1.944
157.9856,1.851
157.9866,1.734
157.9866,1.476
157.9875,1.381
157.9875,1.312
157.9929,1.323
157.9936,1.341
157.9936,1.422
157.9936,1.528
157.9946,1.773
158.0007,1.883
158.0018,1.97
158.0028,2.015
158.0029,1.988
158.0037,1.853
158.0037,1.727
158.0081,1.61
158.0081,1.491
158.0091,1.39
158.0091,1.33
158.0091,1.344
158.0185,1.419
158.0325,1.518
158.0335,1.635
158.0465,1.764
158.0495,1.879
158.0554,2.001
158.0554,1.986
158.0565,1.949
158.0565,1.857
158.0565,1.737
158.0575,1.613
158.0575,1.39
158.0585,1.325
158.0585,1.31
158.0585,1.329
158.0595,1.396
158.0595,1.506
158.0605,1.749
158.0605,1.865
158.0605,1.957
158.0618,2.003
158.0625,2.006
158.0635,1.958
158.0635,1.756
158.0635,1.622
158.0645,1.494
158.0645,1.394
158.0645,1.333
158.0655,1.313
158.0655,1.393
158.0664,1.504
158.0664,1.625
158.0664,1.759
158.0675,1.872
158.0682,1.953
158.0685,2.001
158.0695,1.95
158.0704,1.85
158.0704,1.762
158.0704,1.641
158.0714,1.507
158.0714,1.331
158.0724,1.308
158.0735,1.328
158.0735,1.394
158.0745,1.495
158.0745,1.611
158.0755,1.855
158.0807,1.949
158.0807,1.997
158.0815,2.004
158.0815,1.968
158.0825,1.885
158.0886,1.636
158.0886,1.511
158.0895,1.416
158.0895,1.349
158.0895,1.314
158.0905,1.331
158.0956,1.479
158.0956,1.601
158.0966,1.73
158.0966,1.846
158.0966,1.934
158.1019,2.0
158.1029,1.974
158.1029,1.889
158.1039,1.777
158.1040,1.656
158.1096,1.529
158.1106,1.421
158.1106,1.319
158.1116,1.327
158.1116,1.382
158.1116,1.479
158.1179,1.596
158.1179,1.729
158.1195,1.846
158.1199,2.003
158.1209,2.005
158.1244,1.97
158.1244,1.88
158.1257,1.78
158.1303,1.669
158.1344,1.439
158.1463,1.354
158.1473,1.341
158.1632,1.347
158.1672,1.394
158.1742,1.488
158.1752,1.73
158.1752,1.853
158.1762,1.954
158.1762,2.002
158.1772,2.012
158.1772,1.993
158.1772,1.799
158.1782,1.681
158.1782,1.559
158.1796,1.459
158.1802,1.379
158.1812,1.337
158.1812,1.391
158.1822,1.475
158.1822,1.589
158.1827,1.728
158.1832,1.828
158.1832,1.931
158.1852,2.001
158.1862,1.975
158.1872,1.894
158.1872,1.791
158.1882,1.672
158.1882,1.53
158.1882,1.338
158.1892,1.297
158.1902,1.304
158.1902,1.346
158.1912,1.432
158.1922,1.548
158.1922,1.808
158.1922,1.904
158.1932,1.979
158.1932,1.998
158.1932,1.977
158.1942,1.908
158.1942,1.674
158.1952,1.555
158.1952,1.445
158.1952,1.36
158.1962,1.32
158.1962,1.325
158.1972,1.454
158.1972,1.575
158.1972,1.706
158.1981,1.828
158.1981,1.917
158.1991,1.975
158.1991,1.983
158.2047,1.917
158.2051,1.815
158.2051,1.693
158.2061,1.561
158.2061,1.372
158.2111,1.327
158.2121,1.324
158.2121,1.352
158.2131,1.444
158.2131,1.565
158.2188,1.816
158.2199,1.905
158.2199,1.981
158.2209,2.005
158.2209,1.979
158.2218,1.916
158.2271,1.699
158.2280,1.568
158.2280,1.456
158.2280,1.375
158.2290,1.328
158.2340,1.317
158.2350,1.441
158.2360,1.559
158.2362,1.69
158.2370,1.813
158.2410,1.922
158.2449,1.979
158.2579,2.006
158.2579,1.936
158.2732,1.829
158.2759,1.721
158.2809,1.588
158.2819,1.471
158.2819,1.32
158.2819,1.319
158.2829,1.349
158.2829,1.432
158.2839,1.542
158.2839,1.66
158.2848,1.906
158.2853,1.978
158.2864,2.013
158.2868,1.99
158.2868,1.935
158.2879,1.725
158.2879,1.601
158.2879,1.481
158.2889,1.387
158.2889,1.332
158.2899,1.321
158.2899,1.416
158.2899,1.538
158.2909,1.673
158.2909,1.797
158.2909,1.915
158.2919,1.999
158.2926,2.023
158.2928,1.952
158.2928,1.847
158.2928,1.735
158.2939,1.615
158.2939,1.503
158.2939,1.373
158.2948,1.348
158.2948,1.359
158.2958,1.415
158.2958,1.493
158.2958,1.567
158.2998,1.707
158.2998,1.755
158.3009,1.748
158.3018,1.688
158.3028,1.582
158.3075,1.426
158.3075,1.246
158.3086,1.238
158.3086,1.238
158.3086,1.238
158.3096,1.244
158.3146,1.28
158.3156,1.384
158.3156,1.485
158.3156,1.657
158.3166,1.856
158.3218,2.023
158.3218,2.159
158.3229,2.229
158.3229,2.118
158.3238,1.985
158.3296,1.858
158.3296,1.741
158.3307,1.629
158.3307,1.525
158.3307,1.556
158.3317,1.642
158.3367,1.735
158.3376,1.838
158.3376,2.022
158.3386,2.106
158.3386,2.131
158.3436,2.107
158.3436,2.047
158.3446,1.938
158.3446,1.665
158.3446,1.536
158.3553,1.433
158.3595,1.365
158.3755,1.334
158.3940,1.349
158.3968,1.534
158.4028,1.647
158.4028,1.783
158.4038,1.909
158.4038,1.994
158.4048,2.046
158.4048,1.992
158.4048,1.902
158.4058,1.779
158.4058,1.649
158.4068,1.526
158.4068,1.421
158.4068,1.319
158.4078,1.336
158.4078,1.399
158.4088,1.508
158.4088,1.627
158.4088,1.759
158.4098,1.97
158.4098,2.006
158.4098,2.005
158.4108,1.965
158.4108,1.883
158.4118,1.652
158.4118,1.524
158.4118,1.418
158.4128,1.351
158.4128,1.318
158.4138,1.333
158.4138,1.492
158.4148,1.608
158.4148,1.74
158.4159,1.858
158.4159,1.956
158.4168,2.009
158.4168,1.976
158.4168,1.89
158.4182,1.783
158.4188,1.653
158.4198,1.523
158.4198,1.429
158.4208,1.331
158.4208,1.344
158.4218,1.4
158.4218,1.5
158.4218,1.61
158.4228,1.733
158.4228,1.952
158.4228,2.009
158.4237,2.018
158.4247,1.977
158.4249,1.889
158.4249,1.655
158.4257,1.529
158.4257,1.435
158.4317,1.361
158.4317,1.32
158.4327,1.34
158.4327,1.485
158.4337,1.598
158.4386,1.734
158.4396,1.86
158.4396,1.952
158.4407,2.004
158.4407,1.994
158.4416,1.908
158.4465,1.805
158.4465,1.683
158.4477,1.55
158.4530,1.453
158.4565,1.333
158.4683,1.341
158.4833,1.395
158.4863,1.491
158.4913,1.594
158.4913,1.73
158.4923,1.948
158.4923,2.017
158.4933,2.034
158.4933,2.003
158.4933,1.93
158.4943,1.826
158.4953,1.569
158.4953,1.466
158.4953,1.394
158.4963,1.351
158.4963,1.352
158.4974,1.4
158.4974,1.605
158.4974,1.736
158.4984,1.861
158.4984,1.964
158.4992,2.027
158.4992,2.01
158.4992,1.936
158.5002,1.829
158.5007,1.713
158.5014,1.576
158.5022,1.467
158.5034,1.337
158.5034,1.349
158.5042,1.395
158.5042,1.482
158.5042,1.599
158.5052,1.721
158.5052,1.948
158.5062,2.005
158.5062,2.034
158.5062,2.011
158.5072,1.937
158.5072,1.832
158.5082,1.572
158.5082,1.456
158.5082,1.379
158.5125,1.327
158.5132,1.321
158.5132,1.368
158.5132,1.571
158.5142,1.688
158.5196,1.815
158.5196,1.913
158.5196,1.982
158.5206,2.006
158.5206,1.913
158.5272,1.807
158.5278,1.685
158.5278,1.55
158.5289,1.437
158.5289,1.312
158.5289,1.306
158.5346,1.334
158.5356,1.424
158.5356,1.541
158.5356,1.658
158.5366,1.889
158.5417,1.956
158.5417,1.995
158.5427,1.967
158.5427,1.91
158.5437,1.802
158.5493,1.555
158.5499,1.439
158.5499,1.353
158.5509,1.307
158.5509,1.306
158.5509,1.325
158.5563,1.508
158.5581,1.641
158.5641,1.772
158.5781,1.875
158.5911,1.949
158.5941,1.978
158.5980,1.899
158.5980,1.799
158.5991,1.688
158.5991,1.565
158.6001,1.448
158.6001,1.3
158.6001,1.298
158.6011,1.33
158.6021,1.407
158.6030,1.51
158.6030,1.63
158.6040,1.88
158.6040,1.958
158.6050,1.99
158.6050,1.972
158.6050,1.92
158.6060,1.826
158.6060,1.583
158.6070,1.463
158.6070,1.378
158.6070,1.326
158.6080,1.317
158.6080,1.346
158.6090,1.53
158.6090,1.646
158.6090,1.776
158.6100,1.895
158.6100,1.976
158.6100,2.003
158.6110,1.849
158.6110,1.74
158.6120,1.617
158.6120,1.411
158.6120,1.353
158.6130,1.33
158.6130,1.358
158.6171,1.43
158.6171,1.539
158.6181,1.786
158.6192,1.912
158.6201,1.99
158.6201,2.029
158.6240,2.022
158.6250,1.965
158.6250,1.756
158.6250,1.632
158.6260,1.509
158.6311,1.414
158.6311,1.363
158.6321,1.339
158.6321,1.427
158.6331,1.538
158.6388,1.649
158.6393,1.775
158.6393,1.895
158.6403,1.98
158.6403,2.018
158.6403,1.968
158.6457,1.864
158.6467,1.758
158.6467,1.638
158.6477,1.516
158.6477,1.364
158.6529,1.339
158.6529,1.352
158.6540,1.41
158.6540,1.531
158.6550,1.775
158.6602,1.889
158.6613,1.969
158.6613,2.009
158.6623,2.013
158.6623,1.963
158.6623,1.754
158.6725,1.633
158.6864,1.514
158.7004,1.426
158.7044,1.358
158.7084,1.326
158.7094,1.405
158.7098,1.514
158.7098,1.62
158.7104,1.751
158.7104,1.86
158.7114,1.943
158.7118,1.987
158.7118,1.952
158.7124,1.873
158.7124,1.763
158.7124,1.649
158.7135,1.522
158.7135,1.356
158.7144,1.327
158.7144,1.336
158.7144,1.398
158.7154,1.497
158.7154,1.737
158.7163,1.846
158.7163,1.93
158.7174,1.982
158.7174,1.99
158.7184,1.949
158.7196,1.772
158.7196,1.648
158.7203,1.532
158.7203,1.432
158.7214,1.364
158.7214,1.332
158.7224,1.399
158.7224,1.485
158.7224,1.596
158.7234,1.717
158.7234,1.827
158.7243,1.921
158.7243,1.981
158.7243,1.95
158.7267,1.867
158.7274,1.767
158.7274,1.644
158.7274,1.528
158.7285,1.364
158.7285,1.326
158.7335,1.336
158.7345,1.386
158.7353,1.478
158.7363,1.586
158.7363,1.834
158.7407,1.927
158.7407,1.985
158.7418,1.983
158.7418,1.948
158.7428,1.872
158.7486,1.665
158.7489,1.535
158.7489,1.428
158.7500,1.365
158.7500,1.325
158.7510,1.329
158.7557,1.469
158.7557,1.574
158.7567,1.7
158.7567,1.817
158.7577,1.91
158.7627,1.97
158.7627,1.965
158.7636,1.892
158.7636,1.796
158.7646,1.68
158.7703,1.553
158.7703,1.444
158.7714,1.325
158.7714,1.334
158.7714,1.376
158.7724,1.467
158.7831,1.582
158.7841,1.696
158.7861,1.899
158.8001,1.97
158.8163,1.988
158.8210,1.96
158.8290,1.896
158.8300,1.796
158.8320,1.559
158.8320,1.45
158.8327,1.373
158.8330,1.329
158.8330,1.331
158.8341,1.379
158.8360,1.58
158.8380,1.694
158.8390,1.81
158.8390,1.911
158.8390,1.979
158.8400,2.002
158.8400,1.914
158.8411,1.808
158.8420,1.689
158.8430,1.571
158.8440,1.463
158.8440,1.381
158.8450,1.338
158.8450,1.376
158.8460,1.463
158.8460,1.578
158.8460,1.69
158.8470,1.812
158.8470,1.916
158.8480,2.006
158.8489,1.99
158.8489,1.913
158.8520,1.815
158.8529,1.71
158.8529,1.588
158.8539,1.399
158.8544,1.34
158.8549,1.335
158.8559,1.381
158.8569,1.455
158.8580,1.57
158.8589,1.81
158.8589,1.921
158.8589,1.984
158.8599,2.014
158.8599,1.993
158.8609,1.928
158.8609,1.725
158.8609,1.584
158.8619,1.469
158.8629,1.4
158.8629,1.344
158.8639,1.334
158.8664,1.446
158.8670,1.558
158.8682,1.674
158.8690,1.79
158.8690,1.895
158.8704,1.964
158.8729,1.969
158.8729,1.908
158.8739,1.808
158.8739,1.702
158.8749,1.574
158.8749,1.449
158.8749,1.31
158.8759,1.307
158.8759,1.331
158.8769,1.407
158.8779,1.517
158.8797,1.639
158.8799,1.879
158.8799,1.955
158.8809,1.985
158.8809,1.973
158.8809,1.922
158.8869,1.829
158.8926,1.588
158.9007,1.484
158.9115,1.407
158.9285,1.347
158.9334,1.33
158.9364,1.431
158.9385,1.544
158.9385,1.661
158.9385,1.788
158.9395,1.895
158.9395,1.97
158.9405,1.985
158.9405,1.93
158.9405,1.839
158.9415,1.727
158.9415,1.597
158.9429,1.483
158.9434,1.349
158.9474,1.32
158.9474,1.349
158.9474,1.426
158.9484,1.533
158.9489,1.636
158.9494,1.881
158.9501,1.949
158.9504,1.991
158.9514,1.982
158.9534,1.939
158.9534,1.849
158.9544,1.62
158.9544,1.493
158.9554,1.405
158.9554,1.345
158.9554,1.322
158.9564,1.343
158.9569,1.519
158.9569,1.633
158.9574,1.757
158.9574,1.861
158.9584,1.952
158.9584,1.995
158.9595,1.936
158.9595,1.841
158.9595,1.736
158.9604,1.612
158.9604,1.496
158.9614,1.337
158.9614,1.315
158.9614,1.34
158.9624,1.409
158.9624,1.512
158.9635,1.625
158.9635,1.861
158.9635,1.941
158.9644,1.989
158.9654,1.99
158.9654,1.958
158.9679,1.873
158.9679,1.627
158.9693,1.515
158.9699,1.414
158.9699,1.352
158.9709,1.328
158.9749,1.343
158.9760,1.526
158.9760,1.624
158.9770,1.768
158.9770,1.882
158.9819,1.966
158.9829,2.012
158.9829,1.973
158.9829,1.89
158.9839,1.779
158.9898,1.67
158.9898,1.561
158.9909,1.383
158.9910,1.336
158.9910,1.34
158.9919,1.365
159.0028,1.422
159.0038,1.497
159.0191,1.661
159.0357,1.728
159.0417,1.717
159.0437,1.67
159.0447,1.581
159.0467,1.478
159.0467,1.257
159.0467,1.243
159.0477,1.263
159.0477,1.334
159.0487,1.324
159.0487,1.287
159.0497,1.37
159.0497,1.524
159.0497,1.738
159.0507,1.946
159.0507,2.207
159.0527,2.356
159.0547,2.234
159.0557,2.117
159.0557,2.025
159.0567,1.893
159.0567,1.743
159.0567,1.635
159.0577,1.545
159.0580,1.544
159.0587,1.583
159.0587,1.65
159.0597,1.736
159.0597,1.84
159.0597,2.023
159.0607,2.064
159.0607,2.051
159.0607,2.011
159.0617,1.905
159.0617,1.671
159.0626,1.542
159.0626,1.427
159.0626,1.352
159.0637,1.312
159.0637,1.325
159.0637,1.488
159.0647,1.595
159.0647,1.716
159.0657,1.84
159.0659,1.927
159.0666,1.982
159.0677,1.962
159.0677,1.882
159.0677,1.78
159.0686,1.66
159.0697,1.533
159.0697,1.431
159.0697,1.311
159.0706,1.322
159.0706,1.364
159.0776,1.457
159.0776,1.576
159.0776,1.691
159.0785,1.914
159.0785,1.966
159.0785,1.991
159.0845,1.957
159.0845,1.874
159.0855,1.678
159.0855,1.55
159.0855,1.44
159.0916,1.361
159.0916,1.316
159.0916,1.316
159.0925,1.456
159.0925,1.565
159.0993,1.673
159.0993,1.806
159.1000,1.902
159.1000,1.97
159.1000,1.952
159.1010,1.879
159.1080,1.789
159.1099,1.677
159.1190,1.55
159.1299,1.442
159.1339,1.323
159.1359,1.324
159.1369,1.361
159.1369,1.446
159.1369,1.552
159.1369,1.67
159.1379,1.901
159.1379,1.964
159.1390,1.993
159.1391,1.965
159.1399,1.906
159.1399,1.801
159.1409,1.566
159.1409,1.457
159.1409,1.376
159.1419,1.336
159.1419,1.336
159.1419,1.456
159.1419,1.549
159.1429,1.673
159.1429,1.796
159.1429,1.901
159.1429,1.968
159.1439,1.973
159.1439,1.899
159.1439,1.81
159.1439,1.7
159.1449,1.578
159.1502,1.466
159.1508,1.327
159.1508,1.323
159.1518,1.346
159.1518,1.441
159.1577,1.546
159.1577,1.663
159.1577,1.901
159.1587,1.972
159.1587,1.994
159.1656,1.983
159.1656,1.922
159.1656,1.832
159.1666,1.588
159.1666,1.476
159.1670,1.402
159.1724,1.343
159.1724,1.335
159.1733,1.444
159.1733,1.54
159.1733,1.654
159.1797,1.786
159.1797,1.9
159.1797,1.965
159.1806,1.988
159.1806,1.922
159.1876,1.822
159.1876,1.709
159.1876,1.599
159.1876,1.481
159.1888,1.337
159.1888,1.32
159.1946,1.359
159.1946,1.417
159.1946,1.527
159.1955,1.639
159.1955,1.868
159.2015,1.944
159.2015,1.978
159.2022,1.964
159.2022,1.909
159.2022,1.819
159.2094,1.58
159.2094,1.464
159.2094,1.37
159.2106,1.317
159.2106,1.295
159.2106,1.313
159.2165,1.488
159.2165,1.611
159.2165,1.732
159.2175,1.835
159.2177,1.916
159.2245,1.953
159.2344,1.889
159.2453,1.801
159.2474,1.686
159.2504,1.566
159.2524,1.451
159.2534,1.361
159.2534,1.29
159.2534,1.3
159.2534,1.358
159.2544,1.465
159.2548,1.586
159.2554,1.707
159.2565,1.913
159.2565,1.943
159.2574,1.94
159.2574,1.886
159.2574,1.801
159.2574,1.566
159.2584,1.436
159.2584,1.347
159.2584,1.303
159.2594,1.287
159.2594,1.3
159.2594,1.463
159.2594,1.57
159.2604,1.696
159.2604,1.824
159.2604,1.909
159.2604,1.955
159.2615,1.91
159.2615,1.821
159.2674,1.709
159.2684,1.587
159.2684,1.472
159.2694,1.375
159.2694,1.295
159.2753,1.324
159.2753,1.382
159.2760,1.474
159.2763,1.585
159.2763,1.722
159.2763,1.928
159.2840,1.976
159.2848,1.973
159.2848,1.937
159.2848,1.629
159.2858,1.504
159.2907,1.398
159.2907,1.337
159.2917,1.324
159.2927,1.354
159.2927,1.498
159.2988,1.621
159.2996,1.737
159.2996,1.859
159.3006,1.934
159.3006,1.995
159.3016,1.962
159.3059,1.877
159.3069,1.775
159.3079,1.652
159.3089,1.534
159.3089,1.37
159.3132,1.343
159.3134,1.364
159.3144,1.423
159.3154,1.512
159.3164,1.626
159.3197,1.86
159.3218,1.956
159.3218,2.019
159.3228,2.013
159.3228,1.977
159.3228,1.899
159.3287,1.68
159.3297,1.557
159.3350,1.458
159.3516,1.391
159.3687,1.349
159.3716,1.361
159.3765,1.514
159.3795,1.626
159.3795,1.747
159.3805,1.862
159.3805,1.947
159.3805,2.006
159.3815,1.979
159.3825,1.905
159.3825,1.786
159.3825,1.67
159.3835,1.553
159.3835,1.444
159.3855,1.333
159.3865,1.343
159.3865,1.4
159.3875,1.496
159.3875,1.601
159.3875,1.722
159.3885,1.937
159.3885,1.993
159.3895,2.009
159.3895,1.979
159.3895,1.887
159.3905,1.787
159.3905,1.546
159.3915,1.441
159.3926,1.366
159.3926,1.329
159.3936,1.328
159.3945,1.462
159.3945,1.575
159.3955,1.699
159.3955,1.829
159.3955,1.943
159.3965,1.995
159.3965,1.973
159.3975,1.898
159.3975,1.793
159.3985,1.664
159.3985,1.529
159.3985,1.422
159.3995,1.307
159.3995,1.307
159.4005,1.357
159.4005,1.458
159.4011,1.572
159.4015,1.693
159.4025,1.919
159.4025,1.984
159.4035,2.004
159.4035,1.975
159.4035,1.903
159.4078,1.794
159.4088,1.537
159.4088,1.425
159.4098,1.352
159.4098,1.304
159.4108,1.308
159.4155,1.352
159.4165,1.549
159.4165,1.676
159.4165,1.798
159.4175,1.911
159.4226,1.978
159.4226,2.01
159.4236,1.906
159.4236,1.795
159.4246,1.669
159.4302,1.544
159.4302,1.43
159.4312,1.341
159.4312,1.3
159.4312,1.341
159.4322,1.43
159.4373,1.54
159.4384,1.658
159.4384,1.801
159.4384,1.979
159.4393,2.002
159.4481,1.982
159.4533,1.914
159.4651,1.814
159.4811,1.692
159.4880,1.447
159.4890,1.358
159.4890,1.312
159.4900,1.307
159.4900,1.34
159.4900,1.428
159.4910,1.537
159.4910,1.801
159.4920,1.903
159.4920,1.973
159.4920,2.0
159.4930,1.979
159.4930,1.92
159.4940,1.7
159.4940,1.579
159.4940,1.457
159.4950,1.364
159.4950,1.314
159.4950,1.308
159.4960,1.425
159.4960,1.532
159.4970,1.66
159.4970,1.788
159.4970,1.899
159.4980,1.978
159.4980,1.99
159.4990,1.933
159.4990,1.82
159.4990,1.712
159.5000,1.591
159.5000,1.471
159.5010,1.318
159.5018,1.314
159.5020,1.339
159.5030,1.413
159.5030,1.523
159.5030,1.663
159.5040,1.893
159.5040,1.972
159.5050,2.007
159.5050,1.986
159.5050,1.934
159.5060,1.837
159.5060,1.595
159.5100,1.478
159.5100,1.391
159.5110,1.338
159.5110,1.326
159.5110,1.351
159.5177,1.539
159.5187,1.656
159.5192,1.782
159.5197,1.895
159.5197,1.97
159.5207,2.017
159.5251,1.95
159.5251,1.853
159.5261,1.737
159.5261,1.609
159.5261,1.493
159.5316,1.393
159.5321,1.322
159.5321,1.342
159.5332,1.414
159.5332,1.525
159.5395,1.642
159.5395,1.774
159.5406,1.884
159.5406,2.0
159.5415,1.989
159.5415,1.928
159.5466,1.835
159.5476,1.718
159.5476,1.599
159.5476,1.383
159.5486,1.321
159.5535,1.296
159.5541,1.318
159.5541,1.378
159.5551,1.471
159.5602,1.72
159.5753,1.84
159.5760,1.913
159.5910,1.962
159.5942,1.965
159.5990,1.931
159.6000,1.731
159.6000,1.614
159.6000,1.504
159.6014,1.417
159.6020,1.36
159.6030,1.349
159.6030,1.411
159.6030,1.509
159.6040,1.612
159.6040,1.733
159.6050,1.848
159.6050,1.979
159.6050,1.971
159.6060,1.934
159.6060,1.858
159.6070,1.765
159.6070,1.64
159.6079,1.426
159.6079,1.36
159.6079,1.332
159.6090,1.356
159.6090,1.408
159.6100,1.505
159.6100,1.733
159.6100,1.841
159.6110,1.92
159.6110,1.982
159.6110,1.972
159.6120,1.847
159.6120,1.742
159.6129,1.637
159.6137,1.527
159.6140,1.437
159.6140,1.376
159.6140,1.358
159.6150,1.411
159.6150,1.508
159.6160,1.601
159.6191,1.727
159.6200,1.838
159.6200,1.98
159.6210,1.985
159.6210,1.949
159.6274,1.876
159.6274,1.779
159.6280,1.654
159.6282,1.44
159.6282,1.373
159.6282,1.342
159.6347,1.358
159.6347,1.418
159.6347,1.497
159.6353,1.723
159.6353,1.834
159.6417,1.924
159.6417,1.971
159.6417,1.984
159.6417,1.954
159.6417,1.788
159.6489,1.673
159.6489,1.555
159.6489,1.457
159.6489,1.385
159.6516,1.352
159.6520,1.403
159.6570,1.501
159.6619,1.604
159.6629,1.73
159.6649,1.849
159.6649,2.003
159.6649,2.019
159.6649,1.993
159.6659,1.911
159.6659,1.813
159.6659,1.708
159.6709,1.497
159.6709,1.432
159.6709,1.394
159.6719,1.388
159.6719,1.427
159.6719,1.502
159.6779,1.659
159.6779,1.731
159.6789,1.789
159.6789,1.806
159.6789,1.794
159.6849,1.724
159.6859,1.453
159.6859,1.311
159.6859,1.25
159.6869,1.24
159.6931,1.238
159.7038,1.241
159.7042,1.415
159.7058,1.458
159.7058,1.508
159.7058,1.612
159.7068,1.732
159.7072,1.879
159.7072,2.191
159.7072,2.298
159.7078,2.26
159.7078,2.103
159.7078,1.943
159.7078,1.798
159.7088,1.609
159.7088,1.537
159.7148,1.564
159.7148,1.61
159.7158,1.677
159.7158,1.777
159.7158,1.964
159.7158,2.045
159.7218,2.089
159.7218,2.088
159.7228,2.055
159.7228,1.868
159.7228,1.743
159.7288,1.602
159.7371,1.484
159.7387,1.405
159.7387,1.347
159.7387,1.367
159.7397,1.46
159.7397,1.571
159.7397,1.681
159.7397,1.798
159.7407,1.894
159.7407,1.984
159.7438,1.962
159.7448,1.905
159.7448,1.807
159.7448,1.705
159.7448,1.587
159.7512,1.4
159.7512,1.349
159.7518,1.345
159.7518,1.376
159.7518,1.448
159.7590,1.552
159.7592,1.772
159.7592,1.863
159.7592,1.938
159.7620,1.97
159.7640,1.958
159.7779,1.899
159.7805,1.706
159.7830,1.583
159.7830,1.478
159.7830,1.399
159.7839,1.35
159.7844,1.377
159.7849,1.446
159.7853,1.547
159.7853,1.658
159.7859,1.777
159.7859,1.875
159.7859,1.974
159.7859,1.953
159.7870,1.903
159.7870,1.812
159.7883,1.701
159.7883,1.584
159.7883,1.402
159.7893,1.343
159.7893,1.333
159.7954,1.367
159.7954,1.447
159.7954,1.541
159.7962,1.763
159.7962,1.87
159.8032,1.94
159.8032,1.972
159.8032,1.956
159.8032,1.909
159.8042,1.716
159.8042,1.608
159.8103,1.5
159.8103,1.409
159.8103,1.357
159.8103,1.367
159.8113,1.439
159.8176,1.537
159.8176,1.648
159.8176,1.766
159.8186,1.865
159.8186,1.974
159.8252,1.966
159.8252,1.923
159.8257,1.831
159.8257,1.73
159.8257,1.613
159.8257,1.416
159.8321,1.362
159.8329,1.34
159.8329,1.375
159.8329,1.434
159.8329,1.532
159.8389,1.765
159.8399,1.872
159.8399,1.95
159.8399,1.988
159.8399,1.978
159.8472,1.844
159.8480,1.742
159.8480,1.636
159.8480,1.519
159.8490,1.429
159.8490,1.371
159.8542,1.367
159.8550,1.434
159.8550,1.539
159.8560,1.636
159.8560,1.751
159.8614,1.868
159.8624,1.993
159.8624,1.99
159.8624,1.954
159.8634,1.86
159.8687,1.754
159.8757,1.63
159.8886,1.434
159.9036,1.37
159.9066,1.35
159.9106,1.361
159.9118,1.425
159.9127,1.525
159.9136,1.765
159.9136,1.878
159.9148,1.962
159.9148,2.014
159.9156,2.003
159.9156,1.962
159.9166,1.755
159.9166,1.631
159.9166,1.51
159.9175,1.408
159.9186,1.341
159.9197,1.31
159.9197,1.387
159.9205,1.498
159.9205,1.602
159.9216,1.746
159.9216,1.856
159.9226,1.943
159.9226,1.984
159.9226,1.937
159.9236,1.853
159.9236,1.728
159.9246,1.614
159.9246,1.393
159.9246,1.325
159.9256,1.297
159.9256,1.31
159.9256,1.368
159.9266,1.475
159.9266,1.588
159.9276,1.822
159.9276,1.925
159.9276,1.978
159.9286,1.975
159.9286,1.933
159.9296,1.744
159.9296,1.609
159.9296,1.493
159.9306,1.39
159.9306,1.317
159.9349,1.289
159.9359,1.347
159.9359,1.45
159.9369,1.565
159.9369,1.703
159.9369,1.821
159.9422,1.911
159.9432,1.975
159.9432,1.939
159.9432,1.848
159.9442,1.745
159.9493,1.627
159.9493,1.503
159.9503,1.324
159.9503,1.292
159.9513,1.304
159.9571,1.355
159.9571,1.458
159.9582,1.574
159.9582,1.816
159.9582,1.924
159.9591,1.982
159.9655,1.987
159.9655,1.964
159.9666,1.886
159.9666,1.53
159.9676,1.43
159.9727,1.35
159.9727,1.321
159.9738,1.38
159.9738,1.483
159.9748,1.597
159.9806,1.722
159.9810,1.849
159.9810,2.003
159.9821,2.017
159.9821,1.988
159.9821,1.916
159.9875,1.803
159.9883,1.684
159.9883,1.453
159.9893,1.373
159.9893,1.334
159.9985,1.332
160.0067,1.385
160.0164,1.49
160.0324,1.733
160.0384,1.856
160.0445,1.951
160.0673,2.011
160.0723,2.031
160.0733,2.003
160.0733,1.825
160.0743,1.711
160.0743,1.591
160.0753,1.478
160.0753,1.395
160.0753,1.346
160.0763,1.392
160.0763,1.488
160.0763,1.605
160.0773,1.732
160.0773,1.853
160.0783,1.955
160.0783,2.025
160.0783,2.002
160.0793,1.945
160.0793,1.839
160.0803,1.719
160.0803,1.586
160.0803,1.391
160.0813,1.34
160.0813,1.336
160.0813,1.373
160.0823,1.464
160.0823,1.583
160.0833,1.827
160.0833,1.928
160.0833,1.995
160.0843,2.026
160.0853,2.002
160.0853,1.83
160.0863,1.704
160.0863,1.581
160.0863,1.471
160.0873,1.388
160.0873,1.337
160.0873,1.373
160.0883,1.453
160.0883,1.564
160.0892,1.687
160.0892,1.816
160.0892,1.918
160.0902,2.02
160.0902,1.995
160.0912,1.925
160.0912,1.817
160.0912,1.707
160.0922,1.571
160.0922,1.373
160.0922,1.325
160.0932,1.318
160.0932,1.353
160.0942,1.431
160.0942,1.535
160.0952,1.786
160.0952,1.896
160.0962,1.973
160.0962,2.012
160.0962,1.99
160.0972,1.932
160.0972,1.708
160.0972,1.575
160.0982,1.463
160.0982,1.376
160.0992,1.319
160.0992,1.311
160.0992,1.429
160.1002,1.541
160.1002,1.653
160.1012,1.777
160.1032,1.89
160.1096,1.971
160.1112,1.979
160.1242,1.928
160.1392,1.829
160.1491,1.712
160.1491,1.587
160.1491,1.473
160.1501,1.313
160.1501,1.314
160.1513,1.341
160.1522,1.415
160.1531,1.527
160.1531,1.641
160.1531,1.873
160.1541,1.958
160.1541,1.99
160.1551,1.976
160.1551,1.934
160.1551,1.833
160.1561,1.594
160.1561,1.477
160.1571,1.382
160.1571,1.325
160.1571,1.307
160.1581,1.334
160.1581,1.52
160.1581,1.635
160.1591,1.772
160.1591,1.885
160.1601,1.964
160.1601,2.004
160.1601,1.923
160.1611,1.842
160.1611,1.729
160.1621,1.606
160.1621,1.488
160.1621,1.392
160.1630,1.319
160.1630,1.334
160.1630,1.42
160.1642,1.523
160.1651,1.638
160.1651,1.762
160.1651,1.961
160.1661,2.0
160.1661,1.989
160.1661,1.943
160.1670,1.853
160.1680,1.747
160.1700,1.487
160.1700,1.415
160.1710,1.338
160.1710,1.32
160.1710,1.34
160.1775,1.406
160.1775,1.637
160.1785,1.755
160.1785,1.867
160.1785,1.956
160.1796,2.011
160.1846,2.001
160.1857,1.864
160.1857,1.745
160.1857,1.624
160.1867,1.501
160.1917,1.401
160.1917,1.344
160.1927,1.334
160.1927,1.396
160.1937,1.506
160.1994,1.619
160.2001,1.749
160.2001,1.861
160.2011,2.002
160.2011,1.994
160.2011,1.957
160.2063,1.873
160.2073,1.762
160.2073,1.639
160.2073,1.396
160.2083,1.356
160.2143,1.322
160.2173,1.347
160.2302,1.415
160.2452,1.514
160.2502,1.626
160.2512,1.867
160.2522,1.96
160.2522,2.017
160.2532,2.03
160.2532,1.979
160.2542,1.898
160.2542,1.664
160.2542,1.542
160.2552,1.432
160.2552,1.362
160.2562,1.337
160.2562,1.345
160.2562,1.508
160.2572,1.612
160.2572,1.739
160.2582,1.856
160.2582,1.952
160.2592,1.999
160.2592,1.964
160.2592,1.875
160.2601,1.766
160.2601,1.65
160.2601,1.52
160.2611,1.344
160.2611,1.315
160.2621,1.319
160.2621,1.363
160.2621,1.465
160.2631,1.573
160.2631,1.811
160.2641,1.905
160.2641,1.976
160.2651,1.99
160.2651,1.957
160.2661,1.879
160.2661,1.651
160.2661,1.531
160.2671,1.423
160.2723,1.353
160.2733,1.319
160.2733,1.33
160.2733,1.481
160.2743,1.595
160.2793,1.723
160.2843,1.843
160.2843,1.938
160.2853,1.996
160.2853,1.975
160.2873,1.889
160.2873,1.79
160.2883,1.666
160.2883,1.545
160.2883,1.442
160.2893,1.321
160.2943,1.327
160.2954,1.355
160.2954,1.477
160.2954,1.59
160.2964,1.707
160.3014,1.925
160.3014,1.985
160.3025,2.008
160.3025,1.978
160.3025,1.903
160.3092,1.68
160.3096,1.544
160.3096,1.441
160.3107,1.364
160.3107,1.322
160.3117,1.326
160.3167,1.456
160.3167,1.566
160.3177,1.699
160.3177,1.82
160.3177,1.921
160.3238,1.989
160.3317,1.977
160.3417,1.906
160.3719,1.806
160.3766,1.691
160.3825,1.566
160.3835,1.448
160.3845,1.324
160.3855,1.322
160.3865,1.368
160.3867,1.457
160.3875,1.569
160.3875,1.691
160.3885,1.922
160.3885,1.98
160.3895,2.01
160.3895,1.978
160.3895,1.911
160.3905,1.805
160.3905,1.563
160.3915,1.448
160.3915,1.368
160.3915,1.326
160.3925,1.315
160.3925,1.365
160.3925,1.57
160.3935,1.678
160.3935,1.794
160.3945,1.935
160.3945,1.997
160.3945,2.013
160.3955,1.953
160.3955,1.842
160.3955,1.713
160.3970,1.577
160.3975,1.466
160.3975,1.345
160.3975,1.356
160.3985,1.408
160.3985,1.475
160.3985,1.564
160.3995,1.655
160.4005,1.799
160.4015,1.812
160.4015,1.781
160.4015,1.721
160.4028,1.619
160.4035,1.462
160.4040,1.246
160.4045,1.239
160.4045,1.238
160.4055,1.238
160.4055,1.238
160.4055,1.24
160.4065,1.444
160.4065,1.545
160.4065,1.63
160.4075,1.749
160.4075,1.89
160.4085,2.0
160.4085,2.066
160.4095,2.063
160.4095,1.967
160.4095,1.839
160.4115,1.719
160.4115,1.576
160.4125,1.54
160.4135,1.556
160.4135,1.637
160.4190,1.748
160.4194,1.868
160.4194,2.071
160.4194,2.123
160.4204,2.168
160.4204,2.142
160.4264,2.073
160.4264,1.958
160.4264,1.68
160.4327,1.54
160.4374,1.427
160.4516,1.37
160.4703,1.36
160.4737,1.381
160.4783,1.554
160.4783,1.674
160.4793,1.808
160.4793,1.917
160.4803,2.0
160.4803,2.045
160.4813,1.985
160.4813,1.891
160.4823,1.765
160.4823,1.639
160.4823,1.517
160.4833,1.356
160.4833,1.346
160.4843,1.365
160.4858,1.43
160.4863,1.546
160.4873,1.667
160.4873,1.904
160.4883,1.983
160.4883,2.03
160.4893,2.019
160.4893,1.972
160.4903,1.882
160.4903,1.641
160.4903,1.517
160.4913,1.419
160.4913,1.347
160.4923,1.328
160.4923,1.345
160.4923,1.535
160.4933,1.647
160.4933,1.757
160.4943,1.89
160.4943,1.971
160.4943,2.025
160.4953,1.966
160.4953,1.877
160.4962,1.756
160.4962,1.632
160.4972,1.515
160.4972,1.346
160.4972,1.315
160.4982,1.343
160.4982,1.414
160.4982,1.519
160.4992,1.637
160.4992,1.877
160.5002,1.969
160.5002,2.022
160.5012,2.02
160.5072,1.968
160.5072,1.877
160.5082,1.643
160.5082,1.517
160.5082,1.421
160.5092,1.359
160.5141,1.333
160.5151,1.348
160.5151,1.516
160.5151,1.635
160.5161,1.77
160.5211,1.888
160.5211,1.977
160.5222,2.017
160.5222,1.986
160.5232,1.898
160.5290,1.781
160.5290,1.659
160.5300,1.536
160.5300,1.433
160.5300,1.327
160.5310,1.35
160.5417,1.415
160.5553,1.521
160.5692,1.635
160.5724,1.768
160.5762,1.978
160.5762,2.03
160.5772,2.035
160.5772,1.995
160.5782,1.889
160.5782,1.688
160.5792,1.553
160.5792,1.462
160.5792,1.391
160.5802,1.356
160.5802,1.361
160.5812,1.535
160.5812,1.649
160.5812,1.773
160.5822,1.887
160.5822,1.983
160.5822,2.034
160.5832,2.004
160.5832,1.925
160.5852,1.823
160.5852,1.7
160.5862,1.575
160.5862,1.471
160.5872,1.355
160.5872,1.371
160.5872,1.42
160.5882,1.528
160.5882,1.641
160.5882,1.761
160.5892,1.977
160.5892,2.024
160.5902,2.049
160.5902,2.018
160.5902,1.932
160.5912,1.695
160.5912,1.569
160.5912,1.457
160.5922,1.375
160.5950,1.335
160.5950,1.343
160.5961,1.486
160.5961,1.594
160.5970,1.726
160.5970,1.845
160.6020,1.94
160.6020,1.999
160.6030,1.987
160.6030,1.901
160.6040,1.796
160.6091,1.677
160.6091,1.55
160.6102,1.419
160.6102,1.318
160.6112,1.328
160.6171,1.368
160.6181,1.469
160.6181,1.58
160.6191,1.706
160.6191,1.921
160.6191,1.987
160.6240,2.004
160.6251,1.976
160.6251,1.903
160.6251,1.793
160.6261,1.54
160.6309,1.43
160.6309,1.35
160.6318,1.306
160.6318,1.302
160.6328,1.345
160.6391,1.552
160.6391,1.673
160.6401,1.802
160.6401,1.913
160.6401,1.961
160.6411,1.979
160.6538,1.881
160.6657,1.769
160.6800,1.657
160.6827,1.334
160.6877,1.296
160.6877,1.297
160.6887,1.332
160.6887,1.425
160.6897,1.536
160.6897,1.796
160.6897,1.889
160.6907,1.96
160.6907,1.985
160.6917,1.967
160.6917,1.898
160.6917,1.668
160.6928,1.546
160.6928,1.439
160.6937,1.358
160.6937,1.302
160.6947,1.309
160.6947,1.44
160.6957,1.552
160.6957,1.671
160.6957,1.802
160.6967,1.908
160.6967,1.977
160.6967,1.994
160.6977,1.923
160.6977,1.817
160.6987,1.705
160.6987,1.576
160.6987,1.464
160.6997,1.335
160.6997,1.325
160.7007,1.358
160.7007,1.454
160.7016,1.565
160.7026,1.685
160.7026,1.919
160.7036,1.993
160.7036,2.018
160.7063,2.003
160.7069,1.944
160.7069,1.726
160.7069,1.604
160.7080,1.495
160.7080,1.398
160.7133,1.341
160.7144,1.335
160.7144,1.44
160.7144,1.55
160.7154,1.676
160.7204,1.803
160.7204,1.908
160.7214,1.985
160.7214,1.998
160.7224,1.944
160.7276,1.843
160.7286,1.73
160.7297,1.602
160.7297,1.499
160.7297,1.335
160.7307,1.321
160.7349,1.366
160.7359,1.447
160.7359,1.551
160.7369,1.666
160.7369,1.904
160.7429,1.983
160.7429,2.017
160.7429,1.998
160.7439,1.947
160.7439,1.734
160.7504,1.602
160.7504,1.484
160.7515,1.402
160.7515,1.341
160.7525,1.328
160.7525,1.419
160.7604,1.529
160.7734,1.647
160.7874,1.778
160.7909,1.89
160.7943,1.969
160.7953,1.994
160.7953,1.941
160.7963,1.852
160.7963,1.744
160.7973,1.605
160.7973,1.487
160.7973,1.336
160.7983,1.32
160.7983,1.34
160.7983,1.411
160.7993,1.518
160.7993,1.64
160.8003,1.885
160.8003,1.962
160.8017,2.007
160.8023,2.006
160.8023,1.949
160.8033,1.856
160.8033,1.613
160.8043,1.505
160.8043,1.399
160.8053,1.336
160.8053,1.317
160.8053,1.334
160.8063,1.514
160.8063,1.624
160.8073,1.757
160.8073,1.869
160.8073,1.957
160.8083,2.008
160.8083,1.946
160.8093,1.844
160.8093,1.75
160.8093,1.624
160.8103,1.493
160.8103,1.396
160.8113,1.32
160.8155,1.334
160.8155,1.398
160.8167,1.499
160.8167,1.62
160.8175,1.742
160.8190,1.956
160.8231,2.006
160.8241,2.0
160.8241,1.948
160.8241,1.86
160.8251,1.753
160.8301,1.507
160.8311,1.404
160.8311,1.342
160.8311,1.309
160.8322,1.321
160.8373,1.383
160.8383,1.483
160.8383,1.728
160.8383,1.856
160.8393,1.945
160.8393,1.991
160.8449,1.991
160.8460,1.88
160.8460,1.762
160.8460,1.634
160.8470,1.516
160.8519,1.419
160.8519,1.346
160.8530,1.326
160.8530,1.383
160.8539,1.491
160.8592,1.603
160.8603,1.724
160.8603,1.841
160.8603,1.994
160.8613,1.998
160.8613,1.962
160.8702,1.873
160.8818,1.762
160.8961,1.641
160.9033,1.517
160.9041,1.347
160.9041,1.315
160.9051,1.33
160.9051,1.38
160.9051,1.475
160.9061,1.592
160.9061,1.844
160.9071,1.93
160.9071,1.992
160.9071,1.998
160.9081,1.961
160.9081,1.884
160.9091,1.643
160.9091,1.523
160.9091,1.421
160.9101,1.347
160.9101,1.315
160.9111,1.324
160.9111,1.467
160.9111,1.584
160.9121,1.713
160.9121,1.828
160.9131,1.922
160.9131,1.991
160.9131,1.967
160.9141,1.898
160.9141,1.784
160.9141,1.671
160.9151,1.544
160.9151,1.429
160.9161,1.314
160.9161,1.314
160.9161,1.365
160.9177,1.46
160.9181,1.585
160.9191,1.699
160.9191,1.94
160.9201,1.993
160.9255,2.01
160.9257,1.976
160.9257,1.91
160.9267,1.811
160.9267,1.563
160.9277,1.457
160.9320,1.386
160.9330,1.331
160.9330,1.335
160.9330,1.39
160.9340,1.592
160.9395,1.718
160.9404,1.838
160.9404,1.931
160.9404,1.996
160.9414,2.01
160.9475,1.906
160.9475,1.797
160.9486,1.679
160.9486,1.553
160.9486,1.431
160.9495,1.362
160.9541,1.319
160.9551,1.351
160.9551,1.434
160.9551,1.545
160.9561,1.668
160.9614,1.897
160.9614,1.957
160.9625,1.976
160.9625,1.954
160.9635,1.901
160.9688,1.801
160.9688,1.543
160.9698,1.436
160.9698,1.353
160.9708,1.312
160.9708,1.311
160.9777,1.353
160.9917,1.547
161.0047,1.671
161.0107,1.779
161.0117,1.934
161.0117,1.991
161.0117,2.012
161.0127,1.919
161.0127,1.816
161.0137,1.706
161.0137,1.579
161.0146,1.461
161.0146,1.365
161.0146,1.321
161.0156,1.352
161.0156,1.44
161.0166,1.553
161.0166,1.675
161.0166,1.801
161.0183,1.968
161.0186,1.996
161.0197,1.984
161.0197,1.922
161.0207,1.817
161.0207,1.566
161.0207,1.462
161.0217,1.376
161.0217,1.324
161.0227,1.318
161.0227,1.347
161.0227,1.532
161.0237,1.655
161.0237,1.783
161.0237,1.894
161.0247,1.963
161.0247,2.009
161.0257,1.928
161.0274,1.823
161.0274,1.71
161.0283,1.585
161.0283,1.472
161.0293,1.378
161.0341,1.316
161.0353,1.351
161.0362,1.432
161.0362,1.535
161.0372,1.647
161.0372,1.792
161.0423,1.971
161.0433,2.003
161.0433,1.983
161.0433,1.933
161.0443,1.835
161.0490,1.724
161.0490,1.477
161.0501,1.386
161.0501,1.328
161.0511,1.3
161.0574,1.337
161.0574,1.417
161.0584,1.645
161.0584,1.773
161.0584,1.887
161.0594,1.975
161.0640,2.018
161.0649,2.004
161.0649,1.86
161.0658,1.756
161.0658,1.629
161.0712,1.513
161.0712,1.412
161.0722,1.337
161.0722,1.349
161.0732,1.435
161.0794,1.542
161.0794,1.665
161.0804,1.804
161.0804,1.91
161.0804,1.988
161.0814,1.949
161.0874,1.85
161.0935,1.703
161.1153,1.545
161.1184,1.262
161.1223,1.242
161.1233,1.239
161.1243,1.238
161.1243,1.238
161.1253,1.238
161.1263,1.242
161.1263,1.341
161.1273,1.636
161.1283,1.845
161.1283,1.902
161.1293,1.836
161.1303,1.731
161.1303,1.699
161.1303,1.663
161.1313,1.646
161.1313,1.645
161.1313,1.613
161.1323,1.574
161.1323,1.646
161.1333,1.747
161.1333,1.861
161.1343,1.967
161.1353,2.075
161.1353,2.238
161.1363,2.227
161.1363,2.164
161.1373,2.035
161.1373,1.904
161.1383,1.771
161.1383,1.511
161.1383,1.44
161.1393,1.4
161.1393,1.394
161.1393,1.44
161.1403,1.649
161.1403,1.775
161.1413,1.89
161.1413,1.964
161.1445,2.019
161.1455,2.025
161.1455,1.901
161.1455,1.791
161.1465,1.674
161.1465,1.547
161.1524,1.447
161.1528,1.37
161.1528,1.348
161.1538,1.403
161.1538,1.502
161.1591,1.618
161.1591,1.748
161.1602,1.865
161.1602,2.018
161.1612,2.0
161.1664,1.96
161.1674,1.877
161.1674,1.771
161.1685,1.651
161.1685,1.417
161.1695,1.354
161.1740,1.315
161.1750,1.324
161.1750,1.377
161.1750,1.477
161.1760,1.724
161.1811,1.845
161.1811,1.938
161.1822,1.996
161.1822,1.999
161.1832,1.966
161.1887,1.772
161.1887,1.653
161.1895,1.527
161.1895,1.421
161.1905,1.354
161.1905,1.329
161.1975,1.378
161.2115,1.473
161.2254,1.592
161.2314,1.728
161.2324,1.85
161.2324,1.991
161.2324,2.008
161.2334,1.97
161.2344,1.898
161.2344,1.782
161.2354,1.663
161.2354,1.43
161.2364,1.354
161.2364,1.317
161.2374,1.321
161.2374,1.372
161.2374,1.484
161.2384,1.707
161.2384,1.834
161.2394,1.947
161.2394,2.007
161.2394,2.006
161.2404,1.98
161.2404,1.799
161.2414,1.681
161.2414,1.555
161.2414,1.442
161.2424,1.366
161.2424,1.331
161.2424,1.381
161.2434,1.472
161.2434,1.58
161.2444,1.709
161.2444,1.832
161.2444,2.009
161.2454,2.017
161.2454,1.991
161.2471,1.925
161.2471,1.81
161.2480,1.69
161.2480,1.459
161.2490,1.378
161.2550,1.341
161.2550,1.342
161.2560,1.382
161.2560,1.478
161.2570,1.719
161.2570,1.844
161.2619,1.942
161.2627,2.008
161.2627,2.024
161.2637,2.001
161.2637,1.83
161.2692,1.71
161.2692,1.584
161.2701,1.475
161.2701,1.391
161.2711,1.346
161.2769,1.387
161.2769,1.473
161.2780,1.585
161.2780,1.696
161.2780,1.834
161.2790,2.013
161.2841,2.03
161.2851,2.007
161.2851,1.946
161.2861,1.83
161.2861,1.717
161.2907,1.462
161.2907,1.382
161.2918,1.327
161.2918,1.326
161.2928,1.361
161.2989,1.451
161.2989,1.679
161.3000,1.803
161.3000,1.908
161.3010,1.976
161.3010,2.001
161.3069,1.979
161.3209,1.806
161.3359,1.698
161.3388,1.564
161.3428,1.445
161.3428,1.356
161.3428,1.31
161.3439,1.339
161.3439,1.424
161.3439,1.526
161.3449,1.651
161.3449,1.763
161.3459,1.871
161.3459,1.984
161.3459,1.961
161.3469,1.898
161.3469,1.802
161.3469,1.678
161.3479,1.436
161.3479,1.297
161.3488,1.296
161.3488,1.319
161.3488,1.509
161.3498,1.629
161.3498,1.751
161.3511,1.86
161.3518,1.937
161.3528,1.969
161.3528,1.893
161.3528,1.801
161.3538,1.681
161.3538,1.547
161.3548,1.426
161.3548,1.342
161.3548,1.286
161.3558,1.303
161.3558,1.379
161.3581,1.489
161.3581,1.622
161.3592,1.742
161.3592,1.938
161.3602,1.977
161.3665,1.964
161.3665,1.912
161.3674,1.813
161.3684,1.697
161.3694,1.453
161.3694,1.361
161.3737,1.307
161.3737,1.295
161.3737,1.321
161.3747,1.401
161.3747,1.632
161.3803,1.761
161.3810,1.878
161.3810,1.942
161.3810,2.003
161.3820,1.939
161.3884,1.84
161.3884,1.725
161.3894,1.601
161.3894,1.482
161.3894,1.386
161.3904,1.318
161.3956,1.34
161.3956,1.419
161.3967,1.524
161.3967,1.641
161.3976,1.761
161.4024,1.961
161.4024,2.011
161.4035,2.007
161.4035,1.961
161.4045,1.874
161.4098,1.76
161.4108,1.519
161.4168,1.42
161.4317,1.357
161.4467,1.333
161.4497,1.358
161.4557,1.422
161.4566,1.643
161.4572,1.759
161.4576,1.872
161.4576,1.961
161.4576,2.005
161.4587,1.953
161.4587,1.865
161.4597,1.756
161.4597,1.637
161.4597,1.517
161.4607,1.434
161.4607,1.332
161.4617,1.352
161.4617,1.413
161.4617,1.515
161.4627,1.632
161.4627,1.76
161.4627,1.96
161.4637,2.005
161.4637,1.994
161.4646,1.962
161.4646,1.876
161.4646,1.776
161.4657,1.523
161.4657,1.429
161.4666,1.358
161.4676,1.327
161.4676,1.34
161.4696,1.404
161.4706,1.616
161.4711,1.744
161.4716,1.854
161.4726,1.938
161.4726,1.989
161.4726,1.994
161.4736,1.866
161.4736,1.763
161.4746,1.651
161.4746,1.52
161.4746,1.419
161.4756,1.355
161.4756,1.331
161.4766,1.388
161.4766,1.491
161.4766,1.604
161.4776,1.727
161.4776,1.844
161.4831,1.981
161.4839,1.979
161.4849,1.948
161.4859,1.874
161.4859,1.766
161.4901,1.65
161.4909,1.441
161.4909,1.375
161.4909,1.326
161.4919,1.334
161.4980,1.387
161.4980,1.474
161.4990,1.713
161.4990,1.833
161.5000,1.924
161.5000,1.977
161.5050,1.984
161.5050,1.955
161.5060,1.777
161.5060,1.651
161.5070,1.533
161.5121,1.438
161.5121,1.37
161.5130,1.33
161.5130,1.385
161.5140,1.465
161.5197,1.578
161.5243,1.705
161.5403,1.817
161.5562,1.904
161.5629,1.99
161.5659,1.958
161.5680,1.882
161.5700,1.784
161.5708,1.676
161.5708,1.55
161.5718,1.382
161.5718,1.336
161.5728,1.341
161.5738,1.383
161.5738,1.491
161.5749,1.586
161.5758,1.827
161.5758,1.915
161.5774,1.978
161.5778,2.001
161.5778,1.973
161.5778,1.903
161.5788,1.686
161.5788,1.565
161.5788,1.463
161.5798,1.395
161.5798,1.357
161.5809,1.357
161.5818,1.493
161.5828,1.6
161.5828,1.719
161.5842,1.841
161.5848,1.931
161.5858,1.993
161.5868,1.986
161.5871,1.923
161.5878,1.824
161.5888,1.709
161.5898,1.59
161.5909,1.499
161.5918,1.373
161.5928,1.378
161.5938,1.413
161.5938,1.5
161.5948,1.607
161.5958,1.722
161.5958,1.925
161.5968,1.986
161.5968,2.016
161.5968,2.005
161.5979,1.941
161.5979,1.844
161.5988,1.604
161.5988,1.485
161.5997,1.431
161.5997,1.387
161.5997,1.385
161.6013,1.417
161.6017,1.602
161.6039,1.712
161.6047,1.828
161.6057,1.927
161.6067,1.989
161.6077,2.018
161.6087,1.938
161.6099,1.845
161.6107,1.735
161.6117,1.619
161.6127,1.515
161.6137,1.432
161.6147,1.379
161.6157,1.411
161.6157,1.488
161.6177,1.593
161.6187,1.702
161.6217,1.819
161.6247,1.987
161.6337,2.016
161.6566,2.0
161.6576,1.946
161.6576,1.857
161.6741,1.75
161.6779,1.531
161.6805,1.44
161.6805,1.386
161.6805,1.379
161.6805,1.409
161.6815,1.485
161.6819,1.705
161.6819,1.819
161.6825,1.922
161.6825,1.987
161.6825,2.021
161.6835,1.951
161.6835,1.859
161.6847,1.75
161.6847,1.636
161.6855,1.523
161.6855,1.437
161.6865,1.372
161.6865,1.391
161.6865,1.455
161.6875,1.556
161.6875,1.661
161.6875,1.775
161.6884,1.94
161.6885,1.983
161.6885,1.97
161.6895,1.916
161.6895,1.819
161.6905,1.717
161.6908,1.486
161.6908,1.395
161.6915,1.342
161.6915,1.324
161.6925,1.345
161.6925,1.423
161.6925,1.634
161.6925,1.767
161.6935,1.883
161.6935,1.96
161.6935,1.998
161.6945,1.944
161.6945,1.85
161.6945,1.734
161.6945,1.624
161.6955,1.514
161.6958,1.418
161.6958,1.336
161.6965,1.353
161.6965,1.434
161.6965,1.55
161.6965,1.654
161.6975,1.776
161.7020,1.97
161.7020,2.014
161.7031,2.008
161.7031,1.958
161.7031,1.866
161.7094,1.754
161.7094,1.509
161.7094,1.406
161.7105,1.342
161.7105,1.329
161.7174,1.349
161.7184,1.419
161.7188,1.642
161.7194,1.76
161.7194,1.881
161.7194,1.967
161.7245,2.003
161.7245,1.954
161.7255,1.866
161.7255,1.756
161.7255,1.631
161.7315,1.509
161.7315,1.412
161.7326,1.319
161.7326,1.335
161.7326,1.41
161.7385,1.514
161.7535,1.627
161.7698,1.766
161.7726,1.949
161.7764,1.997
161.7774,1.993
161.7784,1.954
161.7784,1.869
161.7794,1.761
161.7794,1.504
161.7794,1.417
161.7804,1.348
161.7804,1.319
161.7804,1.34
161.7814,1.406
161.7824,1.614
161.7824,1.745
161.7831,1.865
161.7834,1.953
161.7834,2.001
161.7849,1.964
161.7854,1.865
161.7864,1.752
161.7874,1.641
161.7874,1.521
161.7884,1.408
161.7884,1.317
161.7884,1.339
161.7894,1.402
161.7894,1.516
161.7904,1.634
161.7904,1.763
161.7904,1.954
161.7914,2.005
161.7914,2.011
161.7914,1.987
161.7924,1.899
161.7924,1.808
161.7934,1.561
161.7934,1.445
161.7934,1.351
161.7944,1.294
161.7944,1.276
161.7979,1.275
161.7984,1.386
161.7994,1.47
161.7994,1.538
161.8004,1.574
161.8052,1.556
161.8052,1.529
161.8062,1.313
161.8062,1.263
161.8062,1.267
161.8072,1.334
161.8127,1.346
161.8127,1.287
161.8136,1.249
161.8147,1.282
161.8147,1.447
161.8194,1.639
161.8194,1.891
161.8194,2.124
161.8204,2.258
161.8204,2.248
161.8268,2.227
161.8268,2.146
161.8277,2.03
161.8286,1.893
161.8286,1.655
161.8296,1.589
161.8346,1.534
161.8346,1.521
161.8346,1.536
161.8356,1.618
161.8356,1.837
161.8416,1.935
161.8416,1.999
161.8427,2.046
161.8427,2.034
161.8427,1.913
161.8496,1.808
161.8636,1.701
161.8775,1.57
161.8809,1.455
161.8867,1.383
161.8867,1.35
161.8875,1.403
161.8875,1.492
161.8885,1.595
161.8885,1.715
161.8885,1.835
161.8895,1.98
161.8895,1.997
161.8895,1.98
161.8905,1.893
161.8905,1.78
161.8915,1.676
161.8915,1.463
161.8925,1.383
161.8926,1.331
161.8926,1.335
161.8935,1.38
161.8935,1.462
161.8935,1.691
161.8945,1.802
161.8945,1.888
161.8955,1.959
161.8955,1.987
161.8955,1.898
161.8965,1.791
161.8965,1.682
161.8975,1.56
161.8975,1.46
161.8975,1.381
161.8985,1.334
161.8985,1.366
161.8985,1.452
161.8995,1.563
161.8995,1.671
161.9005,1.797
161.9015,1.952
161.9015,1.979
161.9025,1.953
161.9073,1.893
161.9081,1.806
161.9081,1.697
161.9091,1.459
161.9091,1.384
161.9144,1.335
161.9154,1.329
161.9154,1.363
161.9164,1.447
161.9164,1.663
161.9174,1.781
161.9224,1.889
161.9234,1.96
161.9234,1.99
161.9243,1.965
161.9243,1.812
161.9295,1.706
161.9301,1.589
161.9305,1.471
161.9305,1.388
161.9316,1.338
161.9372,1.366
161.9372,1.442
161.9380,1.553
161.9380,1.661
161.9390,1.783
161.9390,1.972
161.9437,1.996
161.9448,1.979
161.9448,1.93
161.9448,1.827
161.9458,1.716
161.9506,1.485
161.9517,1.392
161.9517,1.338
161.9517,1.336
161.9527,1.374
161.9589,1.447
161.9646,1.67
161.9816,1.786
162.0045,1.897
162.0097,1.966
162.0175,1.998
162.0188,1.984
162.0195,1.849
162.0205,1.724
162.0215,1.603
162.0222,1.498
162.0225,1.415
162.0236,1.361
162.0245,1.378
162.0248,1.449
162.0255,1.556
162.0265,1.668
162.0275,1.79
162.0275,1.969
162.0284,1.999
162.0295,1.987
162.0295,1.946
162.0306,1.862
162.0320,1.742
162.0324,1.511
162.0334,1.419
162.0344,1.361
162.0364,1.343
162.0374,1.371
162.0384,1.435
162.0394,1.645
162.0404,1.772
162.0415,1.873
162.0424,1.946
162.0434,1.982
162.0434,1.985
162.0444,1.837
162.0444,1.728
162.0460,1.602
162.0464,1.485
162.0474,1.392
162.0484,1.33
162.0496,1.402
162.0504,1.497
162.0504,1.601
162.0514,1.835
162.0524,1.913
162.0534,1.949
162.0544,1.94
162.0554,1.912
162.0564,1.817
162.0564,1.582
162.0574,1.465
162.0584,1.385
162.0584,1.325
162.0594,1.298
162.0594,1.312
162.0605,1.481
162.0614,1.588
162.0693,1.72
162.0883,1.825
162.1092,1.896
162.1122,1.954
162.1180,1.884
162.1192,1.805
162.1202,1.692
162.1212,1.58
162.1212,1.461
162.1222,1.379
162.1222,1.293
162.1222,1.31
162.1232,1.36
162.1232,1.458
162.1242,1.57
162.1242,1.687
162.1242,1.88
162.1253,1.931
162.1253,1.932
162.1262,1.898
162.1262,1.815
162.1272,1.592
162.1272,1.484
162.1272,1.388
162.1284,1.327
162.1284,1.308
162.1292,1.321
162.1292,1.483
162.1292,1.583
162.1302,1.708
162.1302,1.815
162.1312,1.906
162.1312,1.954
162.1322,1.928
162.1322,1.854
162.1322,1.747
162.1332,1.636
162.1352,1.517
162.1362,1.424
162.1372,1.335
162.1382,1.354
162.1382,1.403
162.1392,1.504
162.1392,1.621
162.1402,1.736
162.1411,1.934
162.1421,1.988
162.1421,1.984
162.1431,1.949
162.1431,1.882
162.1441,1.663
162.1441,1.543
162.1451,1.452
162.1451,1.381
162.1451,1.338
162.1461,1.356
162.1461,1.509
162.1471,1.619
162.1477,1.739
162.1481,1.845
162.1481,1.931
162.1491,1.988
162.1491,1.973
162.1502,1.904
162.1502,1.802
162.1511,1.682
162.1515,1.562
162.1521,1.463
162.1521,1.349
162.1521,1.355
162.1531,1.397
162.1531,1.502
162.1541,1.607
162.1541,1.727
162.1549,1.937
162.1551,1.983
162.1551,1.989
162.1561,1.961
162.1561,1.892
162.1561,1.805
162.1571,1.559
162.1571,1.452
162.1571,1.389
162.1571,1.337
162.1581,1.347
162.1581,1.404
162.1581,1.591
162.1581,1.708
162.1581,1.831
162.1581,1.918
162.1591,1.987
162.1651,2.001
162.1651,1.898
162.1651,1.792
162.1651,1.684
162.1661,1.566
162.1772,1.458
162.1800,1.381
162.1970,1.339
162.2159,1.378
162.2199,1.473
162.2259,1.57
162.2259,1.685
162.2259,1.807
162.2270,1.961
162.2279,1.982
162.2289,1.958
162.2299,1.887
162.2309,1.791
162.2309,1.675
162.2309,1.453
162.2319,1.375
162.2319,1.334
162.2330,1.334
162.2330,1.382
162.2343,1.453
162.2349,1.674
