11.5995,0.0
11.6005,0.81
11.6125,1.3
11.6195,1.36
11.6324,1.1
11.6394,0.75
11.6494,0.51
11.6618,0.41
11.6699,0.35
11.6800,0.22
11.6898,-0.0
11.7007,-0.22
11.7127,-0.35
11.7206,-0.41
11.7307,-0.51
11.7407,-0.75
11.7507,-1.1
11.7605,-1.36
11.7705,-1.3
11.7807,-0.81
11.7904,0.0
11.8004,0.81
11.8114,1.3
11.8243,1.36
11.8313,1.1
11.8413,0.75
11.8516,0.51
11.8616,0.41
11.8716,0.35
11.8815,0.22
11.8925,-0.0
11.9025,-0.22
11.9125,-0.35
11.9224,-0.41
11.9364,-0.51
11.9424,-0.75
11.9527,-1.1
11.9627,-1.36
11.9726,-1.3
11.9826,-0.81
11.9926,0.0
12.0036,0.81
12.0135,1.3
12.0235,1.36
12.0404,1.1
12.0464,0.75
12.0534,0.51
12.0633,0.41
12.0735,0.35
12.0835,0.22
12.0945,-0.0
12.1044,-0.22
12.1144,-0.35
12.1244,-0.41
12.1344,-0.51
12.1493,-0.75
12.1563,-1.1
12.1643,-1.36
12.1742,-1.3
12.1842,-0.81
12.1942,0.0
12.2052,0.81
12.2156,1.3
12.2255,1.36
12.2355,1.1
12.2455,0.75
12.2585,0.51
12.2664,0.41
12.2764,0.35
12.2854,0.22
12.2964,-0.0
12.3066,-0.22
12.3166,-0.35
12.3266,-0.41
12.3365,-0.51
12.3465,-0.75
12.3565,-1.1
12.3705,-1.36
12.3794,-1.3
12.3866,-0.81
12.3966,0.0
12.4076,0.81
12.4176,1.3
12.4275,1.36
12.4375,1.1
12.4475,0.75
12.4576,0.51
12.4677,0.41
12.4836,0.35
12.4876,0.22
12.4987,-0.0
12.5087,-0.22
12.5187,-0.35
12.5286,-0.41
12.5386,-0.51
12.5486,-0.75
12.5587,-1.1
12.5687,-1.36
12.5787,-1.3
12.5956,-0.81
12.6036,0.0
12.6097,0.81
12.6197,1.3
12.6288,1.36
12.6390,1.1
12.6500,0.75
12.6599,0.51
12.6699,0.41
12.6799,0.35
12.6938,0.22
12.6998,-0.0
12.7098,-0.22
12.7208,-0.35
12.7308,-0.41
12.7407,-0.51
12.7516,-0.75
12.7607,-1.1
12.7705,-1.36
12.7805,-1.3
12.7907,-0.81
12.8116,0.0
12.8136,0.81
12.8215,1.3
12.8316,1.36
12.8416,1.1
12.8516,0.75
12.8615,0.51
12.8745,0.41
12.8815,0.35
12.8914,0.22
12.9014,-0.0
12.9403,-0.22
12.9433,-0.35
12.9443,-0.41
12.9443,-0.51
12.9523,-0.75
12.9623,-1.1
12.9727,-1.36
12.9827,-1.3
12.9927,-0.81
13.0027,0.0
13.0126,0.81
13.0236,1.3
13.0336,1.36
13.0436,1.1
13.0535,0.75
13.0637,0.51
13.0735,0.41
13.0837,0.35
13.0937,0.22
13.1035,-0.0
13.1145,-0.22
13.1265,-0.35
13.1424,-0.41
13.1484,-0.51
13.1544,-0.75
13.1644,-1.1
13.1744,-1.36
13.1843,-1.3
13.1943,-0.81
13.2043,0.0
13.2142,0.81
13.2252,1.3
13.2382,1.36
13.2561,1.1
13.2661,0.75
13.2691,0.51
13.2761,0.41
13.2851,0.35
13.2950,0.22
13.3055,-0.0
13.3166,-0.22
13.3266,-0.35
13.3366,-0.41
13.3566,-0.51
13.3576,-0.75
13.3665,-1.1
13.3766,-1.36
13.3867,-1.3
13.3966,-0.81
13.4066,0.0
13.4166,0.81
13.4266,1.3
13.4375,1.36
13.4475,1.1
13.4615,0.75
13.4694,0.51
13.4774,0.41
13.4874,0.35
13.4975,0.22
13.5075,-0.0
13.5175,-0.22
13.5285,-0.35
13.5384,-0.41
13.5484,-0.51
13.5584,-0.75
13.5744,-1.1
13.5783,-1.36
13.5883,-1.3
13.5993,-0.81
13.6083,0.0
13.6182,0.81
13.6282,1.3
13.6382,1.36
13.6491,1.1
13.6596,0.75
13.6696,0.51
13.6816,0.41
13.6896,0.35
13.6996,0.22
13.7096,-0.0
13.7196,-0.22
13.7306,-0.35
13.7406,-0.41
13.7506,-0.51
13.7606,-0.75
13.7703,-1.1
13.7803,-1.36
13.7973,-1.3
13.8013,-0.81
13.8106,0.0
13.8206,0.81
13.8306,1.3
13.8415,1.36
13.8526,1.1
13.8616,0.75
13.8716,0.51
13.8813,0.41
13.8916,0.35
13.9055,0.22
13.9116,-0.0
13.9217,-0.22
13.9327,-0.35
13.9426,-0.41
13.9527,-0.51
13.9627,-0.75
13.9727,-1.1
13.9827,-1.36
13.9927,-1.3
14.0026,-0.81
14.0166,0.0
14.0227,0.81
14.0327,1.3
14.0437,1.36
14.0537,1.1
14.0637,0.75
14.0736,0.51
14.0835,0.41
14.0937,0.35
14.1037,0.22
14.1137,-0.0
14.1275,-0.22
14.1335,-0.35
14.1434,-0.41
14.1544,-0.51
14.1644,-0.75
14.1744,-1.1
14.1843,-1.36
14.1943,-1.3
14.2043,-0.81
14.2143,0.0
14.2242,0.81
14.2422,1.3
14.2482,1.36
14.2551,1.1
14.2651,0.75
14.2757,0.51
14.2857,0.41
14.2957,0.35
14.3056,0.22
14.3157,-0.0
14.3257,-0.22
14.3366,-0.35
14.3486,-0.41
14.3567,-0.51
14.3667,-0.75
14.3767,-1.1
14.3867,-1.36
14.3967,-1.3
14.4067,-0.81
14.4166,0.0
14.4267,0.81
14.4367,1.3
14.4487,1.36
14.4577,1.1
14.4677,0.75
14.4777,0.51
14.4877,0.41
14.4977,0.35
14.5077,0.22
14.5177,-0.0
14.5277,-0.22
14.5377,-0.35
14.5527,-0.41
14.5607,-0.51
14.5687,-0.75
14.5786,-1.1
14.5887,-1.36
14.5987,-1.3
14.6086,-0.81
14.6187,0.0
14.6286,0.81
14.6386,1.3
14.6487,1.36
14.6666,1.1
14.6695,0.75
14.6797,0.51
14.6897,0.41
14.7007,0.35
14.7096,0.22
14.7246,-0.0
14.7296,-0.22
14.7395,-0.35
14.7505,-0.41
14.7605,-0.51
14.7765,-0.75
14.7824,-1.1
14.7905,-1.36
14.8004,-1.3
14.8104,-0.81
14.8203,0.0
14.8303,0.81
14.8403,1.3
14.8503,1.36
14.8614,1.1
14.8716,0.75
14.8886,0.51
14.8916,0.41
14.9016,0.35
14.9117,0.22
14.9217,-0.0
14.9317,-0.22
14.9417,-0.35
14.9537,-0.41
14.9627,-0.51
14.9727,-0.75
14.9827,-1.1
14.9937,-1.36
15.0027,-1.3
15.0126,-0.81
15.0226,0.0
15.0326,0.81
15.0495,1.3
15.0665,1.36
15.0745,1.1
15.0765,0.75
15.0914,0.51
15.1044,0.41
15.1064,0.35
15.1173,0.22
15.1293,-0.0
15.1343,-0.22
15.1453,-0.35
15.1542,-0.41
15.1642,-0.51
15.1742,-0.75
15.1852,-1.1
15.2101,-1.36
15.2310,-1.3
15.2340,-0.81
15.2350,0.0
15.2350,0.81
15.2440,1.3
15.2540,1.36
15.2650,1.1
15.2749,0.75
15.2849,0.51
15.2949,0.41
15.3058,0.35
15.3178,0.22
15.3497,-0.0
15.3507,-0.22
15.3507,-0.35
15.3567,-0.41
15.3667,-0.51
15.3806,-0.75
15.3876,-1.1
15.3966,-1.36
15.4066,-1.3
15.4166,-0.81
15.5901,0.0
15.5901,0.81
15.5911,1.3
15.5941,1.36
15.5941,1.1
15.5941,0.75
15.5951,0.51
15.5951,0.41
15.5951,0.35
15.5961,0.22
15.5961,-0.0
15.5961,-0.22
15.5971,-0.35
15.5971,-0.41
15.5971,-0.51
15.5971,-0.75
15.6001,-1.1
15.6001,-1.36
15.9521,-1.3
15.9571,-0.81
16.0628,0.0
16.2912,0.81
16.2922,1.3
16.4857,1.36
16.4877,1.1
16.4877,0.75
16.4887,0.51
16.4887,0.41
16.4887,0.35
16.4887,0.22
16.4897,-0.0
16.4897,-0.22
16.4897,-0.35
16.4897,-0.41
16.4907,-0.51
16.4907,-0.75
16.4907,-1.1
16.4917,-1.36
16.4917,-1.3
16.4917,-0.81
16.4927,0.0
16.4927,0.81
16.4927,1.3
16.4937,1.36
16.4937,1.1
16.4937,0.75
16.4937,0.51
16.4947,0.41
16.4947,0.35
16.4947,0.22
16.4957,-0.0
16.4957,-0.22
16.4957,-0.35
16.4967,-0.41
16.4967,-0.51
16.4967,-0.75
16.4977,-1.1
16.4987,-1.36
16.4987,-1.3
16.4987,-0.81
16.4987,0.0
16.4997,0.81
16.4997,1.3
16.4997,1.36
16.4997,1.1
16.5007,0.75
16.5007,0.51
16.5017,0.41
16.5017,0.35
16.5017,0.22
16.5017,-0.0
16.5027,-0.22
16.5027,-0.35
16.5037,-0.41
16.5037,-0.51
16.5037,-0.75
16.5047,-1.1
16.5047,-1.36
16.5047,-1.3
16.5057,-0.81
16.5057,0.0
16.5057,0.81
16.5057,1.3
16.5067,1.36
16.5067,1.1
16.5067,0.75
16.5076,0.51
16.5076,0.41
16.5076,0.35
16.5076,0.22
16.5087,-0.0
16.5087,-0.22
16.5087,-0.35
16.5096,-0.41
16.5096,-0.51
16.5096,-0.75
16.5106,-1.1
16.5106,-1.36
16.5106,-1.3
16.5116,-0.81
16.5116,0.0
16.5116,0.81
16.5116,1.3
16.5126,1.36
16.5126,1.1
16.5126,0.75
16.5126,0.51
16.5136,0.41
16.5226,0.35
16.6602,0.22
16.6602,-0.0
16.6612,-0.22
16.6632,-0.35
16.6692,-0.41
16.7600,-0.51
16.7600,-0.75
16.7600,-1.1
16.7650,-1.36
16.7660,-1.3
16.7709,-0.81
16.7719,0.0
16.7739,0.81
16.7759,1.3
16.7859,1.36
16.7879,1.1
16.7879,0.75
16.7889,0.51
16.7889,0.41
16.7889,0.35
16.7899,0.22
16.7899,-0.0
16.7899,-0.22
16.7909,-0.35
16.7909,-0.41
16.7909,-0.51
16.7919,-0.75
16.8009,-1.1
16.8108,-1.36
16.8238,-1.3
16.8308,-0.81
16.8408,0.0
16.8507,0.81
16.8607,1.3
16.8787,1.36
16.8856,1.1
16.8926,0.75
16.9016,0.51
16.9116,0.41
16.9225,0.35
16.9315,0.22
16.9415,-0.0
16.9525,-0.22
16.9744,-0.35
16.9744,-0.41
16.9894,-0.51
16.9934,-0.75
17.0023,-1.1
17.0123,-1.36
17.0223,-1.3
17.0322,-0.81
17.0422,0.0
17.0522,0.81
17.0622,1.3
17.0801,1.36
17.0901,1.1
17.0941,0.75
17.1061,0.51
17.1130,0.41
17.1230,0.35
17.1340,0.22
17.1439,-0.0
17.1539,-0.22
17.1639,-0.35
17.1739,-0.41
17.2108,-0.51
17.2118,-0.75
17.2128,-1.1
17.2148,-1.36
17.2247,-1.3
17.2387,-0.81
17.2447,0.0
17.2547,0.81
17.2646,1.3
17.2746,1.36
17.3195,1.1
17.3205,0.75
17.3215,0.51
17.3225,0.41
17.3255,0.35
17.3374,0.22
17.3464,-0.0
17.3564,-0.22
17.3664,-0.35
17.3763,-0.41
17.3863,-0.51
17.3983,-0.75
17.4112,-1.1
17.4202,-1.36
17.4262,-1.3
17.4362,-0.8
17.4461,0.0
17.4561,0.81
17.4661,1.3
17.4761,1.36
17.4870,1.1
17.4960,0.75
17.5080,0.51
17.5209,0.41
17.5349,0.35
17.5379,0.22
17.5558,-0.0
17.5578,-0.22
17.5678,-0.35
17.5778,-0.41
17.5888,-0.51
17.5987,-0.75
17.6147,-1.1
17.6386,-1.36
17.6396,-1.3
17.6406,-0.8
17.6566,0.0
17.6596,0.81
17.6685,1.3
17.6785,1.36
17.6885,1.1
17.6985,0.75
17.7084,0.51
17.7423,0.41
17.7463,0.35
17.7463,0.22
17.7493,-0.0
17.7603,-0.22
17.7693,-0.35
17.7792,-0.41
17.7902,-0.51
17.7992,-0.75
17.8102,-1.1
17.8201,-1.36
17.8301,-1.3
17.8501,-0.8
17.8590,0.0
17.8630,0.81
17.8710,1.3
17.8800,1.36
17.8900,1.1
17.8999,0.75
17.9099,0.51
17.9209,0.41
17.9308,0.35
17.9468,0.22
17.9548,-0.0
17.9618,-0.22
17.9717,-0.35
17.9817,-0.41
17.9917,-0.51
18.0017,-0.75
18.0126,-1.1
18.0226,-1.36
18.0326,-1.3
18.0425,-0.8
18.0605,0.0
18.0655,0.81
18.0725,1.3
18.0824,1.36
18.0924,1.1
18.1024,0.75
18.1124,0.51
18.1223,0.41
18.1333,0.35
18.1433,0.22
18.1532,-0.0
18.1682,-0.22
18.1762,-0.35
18.1832,-0.41
18.1941,-0.51
18.2031,-0.75
18.2131,-1.1
18.2241,-1.36
18.2340,-1.3
18.2456,-0.8
18.2546,0.0
18.2646,0.81
18.2806,1.3
18.2845,1.36
18.2945,1.1
18.3045,0.75
18.3145,0.51
18.3244,0.41
18.3354,0.35
18.3454,0.22
18.3554,-0.0
18.3663,-0.22
18.3773,-0.35
18.3883,-0.41
18.3962,-0.51
18.4052,-0.75
18.4152,-1.1
18.4262,-1.36
18.4361,-1.3
18.4461,-0.8
18.4561,0.0
18.4661,0.81
18.4760,1.3
18.4860,1.36
18.5050,1.1
18.5079,0.75
18.5159,0.51
18.5259,0.41
18.5369,0.35
18.5468,0.22
18.5578,-0.0
18.5678,-0.22
18.5778,-0.35
18.5877,-0.41
18.6067,-0.51
18.6157,-0.75
18.6196,-1.1
18.6286,-1.36
18.6386,-1.3
18.6486,-0.8
18.6585,0.0
18.6685,0.81
18.6785,1.3
18.6885,1.36
18.6984,1.1
18.7164,0.75
18.7244,0.51
18.7284,0.41
18.7393,0.35
18.7493,0.22
18.7593,-0.0
18.7692,-0.22
18.7792,-0.35
18.7892,-0.41
18.7992,-0.51
18.8101,-0.75
18.8281,-1.1
18.8371,-1.36
18.8411,-1.3
18.8500,-0.8
18.8600,0.0
18.8700,0.81
18.8809,1.3
18.8909,1.36
18.9009,1.1
18.9109,0.75
18.9208,0.51
18.9428,0.41
18.9438,0.35
18.9518,0.22
18.9617,-0.0
18.9717,-0.22
18.9817,-0.35
18.9917,-0.41
19.0016,-0.51
19.0116,-0.75
19.0216,-1.1
19.0325,-1.36
19.0505,-1.3
19.0535,-0.8
19.0625,0.0
19.0724,0.81
19.0824,1.3
19.0924,1.36
19.1024,1.1
19.1153,0.75
19.1223,0.51
19.1323,0.41
19.1422,0.35
19.1642,0.22
19.1652,-0.0
19.1732,-0.22
19.1831,-0.35
19.1931,-0.41
19.2041,-0.51
19.2131,-0.75
19.2260,-1.1
19.2340,-1.36
19.2440,-1.3
19.2889,-0.8
19.2889,0.0
19.2899,0.81
19.2899,1.3
19.2948,1.36
19.3048,1.1
19.3148,0.75
19.3248,0.51
19.3367,0.41
19.3457,0.35
19.3557,0.22
19.3826,-0.0
19.3866,-0.22
19.3886,-0.35
19.3956,-0.41
19.4055,-0.51
19.4155,-0.75
19.4255,-1.1
19.4355,-1.36
19.4464,-1.3
19.4564,-0.8
19.4664,0.0
19.4843,0.81
19.4913,1.3
19.4963,1.36
19.5063,1.1
19.5162,0.75
19.5262,0.51
19.5362,0.41
19.5462,0.35
19.5571,0.22
19.5671,-0.0
19.5771,-0.22
19.6010,-0.35
19.6060,-0.41
19.6080,-0.51
19.6180,-0.75
19.6280,-1.1
19.6379,-1.36
19.6479,-1.3
19.6579,-0.8
19.6678,0.0
19.6788,0.81
19.6898,1.3
19.7067,1.36
19.7087,1.1
19.7187,0.75
19.7287,0.51
19.7466,0.41
19.7486,0.35
19.7586,0.22
19.7696,-0.0
19.7795,-0.22
19.7895,-0.35
19.8075,-0.41
19.8154,-0.51
19.8194,-0.75
19.8294,-1.1
19.8394,-1.36
19.8504,-1.3
19.8603,-0.8
19.8703,0.0
19.8803,0.81
19.8902,1.3
19.9002,1.36
19.9192,1.1
19.9281,0.75
19.9321,0.51
19.9401,0.41
19.9501,0.35
19.9611,0.22
19.9710,-0.0
19.9810,-0.22
19.9920,-0.35
20.0010,-0.41
20.0119,-0.51
20.0279,-0.75
20.0369,-1.1
20.0418,-1.36
20.0518,-1.3
20.0618,-0.8
20.0728,0.0
20.0827,0.81
20.0927,1.3
20.1027,1.36
20.1127,1.1
20.1226,0.75
20.1376,0.51
20.1456,0.41
20.1525,0.35
20.1625,0.22
20.1735,-0.0
20.1835,-0.22
20.1934,-0.35
20.2034,-0.41
20.2134,-0.51
20.2234,-0.75
20.2333,-1.1
20.2473,-1.36
20.2563,-1.3
20.2642,-0.8
20.2742,0.0
20.2842,0.81
20.2942,1.3
20.3041,1.36
20.3141,1.1
20.3241,0.75
20.3341,0.51
20.3440,0.41
20.3580,0.35
20.3660,0.22
20.3759,-0.0
20.3849,-0.22
20.3959,-0.35
20.4049,-0.41
20.4158,-0.51
20.4258,-0.75
20.4378,-1.1
20.4458,-1.36
20.4577,-1.3
20.4677,-0.8
20.4777,0.0
20.4867,0.81
20.4966,1.3
20.5066,1.36
20.5166,1.1
20.5265,0.75
20.5365,0.51
20.5465,0.41
20.5565,0.35
20.5694,0.22
20.5784,-0.0
20.5874,-0.22
20.5974,-0.35
20.6073,-0.41
20.6173,-0.51
20.6273,-0.75
20.6372,-1.1
20.6472,-1.36
20.6572,-1.3
20.6672,-0.8
20.6801,0.0
20.6931,0.81
20.6981,1.3
20.7081,1.36
20.7180,1.1
20.7290,0.75
20.7380,0.51
20.7480,0.41
20.7579,0.35
20.7679,0.22
20.7789,-0.0
20.7968,-0.22
20.8048,-0.35
20.8098,-0.41
20.8198,-0.51
20.8297,-0.75
20.8397,-1.1
20.8497,-1.36
20.8597,-1.3
20.8706,-0.8
20.8796,0.0
20.8906,0.81
20.9055,1.3
20.9125,1.36
20.9205,1.1
20.9305,0.75
20.9404,0.51
20.9504,0.41
20.9604,0.35
20.9704,0.22
20.9813,-0.0
20.9913,-0.22
21.0013,-0.35
21.0212,-0.41
21.0222,-0.51
21.0312,-0.75
21.0412,-1.1
21.0511,-1.36
21.0611,-1.3
21.0711,-0.8
21.0821,0.0
21.0920,0.81
21.1020,1.3
21.1120,1.36
21.1259,1.1
21.1329,0.75
21.1419,0.51
21.1519,0.41
21.1628,0.35
21.1718,0.22
21.1828,-0.0
21.1928,-0.22
21.2037,-0.35
21.2137,-0.41
21.2307,-0.51
21.2337,-0.75
21.2436,-1.1
21.2536,-1.36
21.2636,-1.3
21.2735,-0.8
21.2845,0.0
21.2945,0.81
21.3045,1.3
21.3144,1.36
21.3244,1.1
21.3354,0.75
21.3444,0.51
21.3543,0.41
21.3643,0.35
21.3743,0.22
21.3852,-0.0
21.3952,-0.22
21.4052,-0.35
21.4152,-0.41
21.4251,-0.51
21.4381,-0.75
21.4501,-1.1
21.4551,-1.36
21.4650,-1.3
21.4750,-0.8
21.4860,0.0
21.4960,0.81
21.5059,1.3
21.5159,1.36
21.5259,1.1
21.5378,0.75
21.5488,0.51
21.5568,0.41
21.5668,0.35
21.5767,0.22
21.5867,-0.0
21.5977,-0.22
21.6077,-0.35
21.6176,-0.41
21.6276,-0.51
21.6376,-0.75
21.6475,-1.1
21.6575,-1.36
21.6735,-1.3
21.6775,-0.8
21.6874,0.0
21.6984,0.81
21.7084,1.3
21.7184,1.36
21.7283,1.1
21.7383,0.75
21.7493,0.51
21.7822,0.41
21.7822,0.35
21.7832,0.22
21.8161,-0.0
21.8161,-0.22
21.8171,-0.35
21.8370,-0.41
21.8370,-0.51
21.8410,-0.75
21.8490,-1.1
21.8590,-1.36
21.8690,-1.3
21.8849,-0.8
21.8919,0.0
21.8999,0.81
21.9098,1.3
21.9208,1.36
21.9298,1.1
21.9398,0.75
21.9507,0.51
21.9607,0.41
21.9707,0.35
21.9807,0.22
21.9986,-0.0
22.0016,-0.22
22.0116,-0.35
22.0215,-0.41
22.0315,-0.51
22.0415,-0.75
22.0515,-1.1
22.0614,-1.36
22.0714,-1.3
22.0814,-0.8
22.0914,0.0
22.1083,0.81
22.1123,1.3
22.1223,1.36
22.1322,1.1
22.1422,0.75
22.1522,0.51
22.1622,0.41
22.1721,0.35
22.1821,0.22
22.1931,-0.0
22.2031,-0.22
22.2200,-0.35
22.2230,-0.41
22.2330,-0.51
22.2430,-0.75
22.2539,-1.1
22.2629,-1.36
22.2729,-1.3
22.2828,-0.8
22.2928,0.0
22.3028,0.81
22.3138,1.3
22.3257,1.36
22.3347,1.1
22.3447,0.75
22.3547,0.51
22.3646,0.41
22.3746,0.35
22.3846,0.22
22.3945,-0.0
22.4055,-0.22
22.4155,-0.35
22.4275,-0.41
22.4364,-0.51
22.4454,-0.75
22.4554,-1.1
22.4654,-1.36
22.4753,-1.3
22.4853,-0.8
22.4953,0.0
22.5052,0.81
22.5162,1.3
22.5262,1.36
22.5382,1.1
22.5501,0.75
22.5561,0.51
22.5661,0.41
22.5761,0.35
22.5860,0.22
22.5960,-0.0
22.6070,-0.22
22.6170,-0.35
22.6279,-0.41
22.6369,-0.51
22.6489,-0.75
22.6608,-1.1
22.6678,-1.36
22.6778,-1.3
22.6878,-0.8
22.6977,0.0
22.7077,0.81
22.7177,1.3
22.7287,1.36
22.7386,1.1
22.7486,0.75
22.7636,0.51
22.7705,0.41
22.7785,0.35
22.7885,0.22
22.7985,-0.0
22.8094,-0.22
22.8194,-0.35
22.8294,-0.41
22.8394,-0.51
22.8493,-0.75
22.8593,-1.1
22.8703,-1.36
22.8793,-1.3
22.8897,-0.8
22.8997,0.0
22.9096,0.81
22.9197,1.3
22.9306,1.36
22.9406,1.1
22.9507,0.75
22.9610,0.51
22.9750,0.41
22.9810,0.35
22.9909,0.22
23.0010,-0.0
23.0110,-0.22
23.0220,-0.35
23.0310,-0.41
23.0419,-0.51
23.0519,-0.75
23.0618,-1.1
23.0717,-1.36
23.0905,-1.3
23.0925,-0.8
23.1017,0.0
23.1117,0.81
23.1216,1.3
23.1327,1.36
23.1427,1.1
23.1522,0.75
23.1627,0.51
23.1727,0.41
23.1827,0.35
23.1936,0.22
23.2096,-0.0
23.2126,-0.22
23.2236,-0.35
23.2336,-0.41
23.2435,-0.51
23.2536,-0.75
23.2635,-1.1
23.2735,-1.36
23.2835,-1.3
23.2934,-0.8
23.3163,0.0
23.3194,0.81
23.3236,1.3
23.3345,1.36
23.3444,1.1
23.3544,0.75
23.3644,0.51
23.3744,0.41
23.3843,0.35
23.3943,0.22
23.4043,-0.0
23.4162,-0.22
23.4262,-0.35
23.4352,-0.41
23.4452,-0.51
23.4551,-0.75
23.4655,-1.1
23.4755,-1.36
23.4855,-1.3
23.4955,-0.8
23.5055,0.0
23.5174,0.81
23.5274,1.3
23.5364,1.36
23.5464,1.1
23.5563,0.75
23.5663,0.51
23.5763,0.41
23.5866,0.35
23.5966,0.22
23.6066,-0.0
23.6165,-0.22
23.6355,-0.35
23.6425,-0.41
23.6475,-0.51
23.6574,-0.75
23.6675,-1.1
23.6775,-1.36
23.6875,-1.3
23.6975,-0.8
23.7075,0.0
23.7175,0.81
23.7295,1.3
23.7425,1.36
23.7495,1.1
23.7586,0.75
23.7686,0.51
23.7786,0.41
23.7887,0.35
23.7987,0.22
23.8086,-0.0
23.8187,-0.22
23.8287,-0.35
23.8397,-0.41
23.8547,-0.51
23.8626,-0.75
23.8696,-1.1
23.8796,-1.36
23.8896,-1.3
23.8996,-0.8
23.9096,0.0
23.9198,0.81
23.9297,1.3
23.9407,1.36
23.9507,1.1
23.9666,0.75
23.9706,0.51
23.9807,0.41
23.9906,0.35
24.0007,0.22
24.0106,-0.0
24.0207,-0.22
24.0307,-0.35
24.0416,-0.41
24.0516,-0.51
24.0616,-0.75
24.0825,-1.1
24.0845,-1.36
24.0917,-1.3
24.1016,-0.8
24.1117,0.0
24.1217,0.81
24.1317,1.3
24.1417,1.36
24.1517,1.1
24.1627,0.75
24.1727,0.51
24.1826,0.41
24.1927,0.35
24.2027,0.22
24.2127,-0.0
24.2227,-0.22
24.2327,-0.35
24.2437,-0.41
24.2535,-0.51
24.2635,-0.75
24.2737,-1.1
24.2905,-1.36
24.2975,-1.3
24.3036,-0.8
24.3134,0.0
24.3234,0.81
24.3336,1.3
24.3435,1.36
24.3544,1.1
24.3644,0.75
24.3744,0.51
24.3844,0.41
24.4043,0.35
24.4103,0.22
24.4143,-0.0
24.4242,-0.22
24.4342,-0.35
24.4455,-0.41
24.4555,-0.51
24.4655,-0.75
24.4755,-1.1
24.4854,-1.36
24.4954,-1.3
24.5124,-0.8
24.5213,0.0
24.5253,0.81
24.5353,1.3
24.5453,1.36
24.5552,1.1
24.5662,0.75
24.5772,0.51
24.5872,0.41
24.5961,0.35
24.6066,0.22
24.6246,-0.0
24.6275,-0.22
24.6365,-0.35
24.6475,-0.41
24.6575,-0.51
24.6676,-0.75
24.6776,-1.1
24.6876,-1.36
24.6976,-1.3
24.7075,-0.8
24.7175,0.0
24.7295,0.81
24.7395,1.3
24.7475,1.36
24.7586,1.1
24.7686,0.75
24.7786,0.51
24.7886,0.41
24.7986,0.35
24.8086,0.22
24.8205,-0.0
24.8315,-0.22
24.8524,-0.35
24.8544,-0.41
24.8594,-0.51
24.8694,-0.75
24.8794,-1.1
24.8895,-1.36
24.8995,-1.3
24.9095,-0.8
24.9194,0.0
24.9295,0.81
24.9405,1.3
24.9515,1.36
24.9594,1.1
24.9704,0.75
24.9804,0.51
24.9904,0.41
25.0003,0.35
25.0103,0.22
25.0203,-0.0
25.0303,-0.22
25.0402,-0.35
25.0592,-0.41
25.0652,-0.51
25.0715,-0.75
25.0815,-1.1
25.0915,-1.36
25.1015,-1.3
25.1115,-0.8
25.1215,0.0
25.1316,0.81
25.1415,1.3
25.1514,1.36
25.1634,1.1
25.1724,0.75
25.1827,0.51
25.1927,0.41
25.2026,0.35
25.2127,0.22
25.2226,-0.0
25.2326,-0.22
25.2426,-0.35
25.2525,-0.41
25.2635,-0.51
25.2734,-0.75
25.2835,-1.1
25.2934,-1.36
25.3034,-1.3
25.3136,-0.8
25.3236,0.0
25.3335,0.81
25.3434,1.3
25.3536,1.36
25.3634,1.1
25.3746,0.75
25.3936,0.51
25.3996,0.41
25.4045,0.35
25.4148,0.22
25.4248,-0.0
25.4347,-0.22
25.4447,-0.35
25.4547,-0.41
25.4656,-0.51
25.4755,-0.75
25.4875,-1.1
25.4994,-1.36
25.5055,-1.3
25.5155,-0.8
25.5254,0.0
25.5354,0.81
25.5454,1.3
25.5553,1.36
25.5653,1.1
25.5763,0.75
25.5863,0.51
25.5972,0.41
25.6082,0.35
25.6161,0.22
25.6261,-0.0
25.6367,-0.22
25.6467,-0.35
25.6567,-0.41
25.6673,-0.51
25.6777,-0.75
25.6876,-1.1
25.6977,-1.36
25.7127,-1.3
25.7176,-0.8
25.7277,0.0
25.7376,0.81
25.7476,1.3
25.7577,1.36
25.7676,1.1
25.7785,0.75
25.7886,0.51
25.7985,0.41
25.8085,0.35
25.8304,0.22
25.8314,-0.0
25.8384,-0.22
25.8484,-0.35
25.8584,-0.41
25.8693,-0.51
25.8793,-0.75
25.8893,-1.1
25.8993,-1.36
25.9092,-1.3
25.9232,-0.8
25.9332,0.0
25.9401,0.81
25.9495,1.3
25.9595,1.36
25.9695,1.1
25.9795,0.75
25.9906,0.51
26.0006,0.41
26.0106,0.35
26.0205,0.22
26.0306,-0.0
26.0446,-0.22
26.0506,-0.35
26.0605,-0.41
26.0715,-0.51
26.0815,-0.75
26.0915,-1.1
26.1015,-1.36
26.1115,-1.3
26.1215,-0.8
26.1315,0.0
26.1415,0.81
26.1544,1.3
26.1614,1.36
26.1714,1.1
26.1825,0.75
26.1925,0.51
26.2025,0.41
26.2126,0.35
26.2226,0.22
26.2326,-0.0
26.2425,-0.22
26.2585,-0.35
26.2645,-0.41
26.2724,-0.51
26.2835,-0.75
26.2935,-1.1
26.3035,-1.36
26.3135,-1.3
26.3234,-0.8
26.3334,0.0
26.3434,0.81
26.3535,1.3
26.3684,1.36
26.3744,1.1
26.3833,0.75
26.3943,0.51
26.4043,0.41
26.4143,0.35
26.4242,0.22
26.4342,-0.0
26.4442,-0.22
26.4542,-0.35
26.4641,-0.41
26.4761,-0.51
26.4851,-0.75
26.4957,-1.1
26.5057,-1.36
26.5157,-1.3
26.5256,-0.8
26.5356,0.0
26.5456,0.81
26.5555,1.3
26.5654,1.36
26.5764,1.1
26.5894,0.75
26.5964,0.51
26.6063,0.41
26.6166,0.35
26.6266,0.22
26.6364,-0.0
26.6469,-0.22
26.6569,-0.35
26.6670,-0.41
26.6760,-0.51
26.6879,-0.75
26.7009,-1.1
26.7079,-1.36
26.7179,-1.3
26.7279,-0.8
26.7379,0.0
26.7477,0.81
26.7577,1.3
26.7677,1.36
26.7777,1.1
26.7878,0.75
26.8066,0.51
26.8086,0.41
26.8186,0.35
26.8285,0.22
26.8385,-0.0
26.8485,-0.22
26.8584,-0.35
26.8684,-0.41
26.8784,-0.51
26.8894,-0.75
26.8997,-1.1
26.9174,-1.36
26.9203,-1.3
26.9297,-0.8
26.9397,0.0
26.9497,0.81
26.9597,1.3
26.9697,1.36
26.9797,1.1
26.9897,0.75
26.9996,0.51
27.0107,0.41
27.0276,0.35
27.0306,0.22
27.0406,-0.0
27.0507,-0.22
27.0606,-0.35
27.0706,-0.41
27.0806,-0.51
27.0915,-0.75
27.1015,-1.1
27.1115,-1.36
27.1216,-1.3
27.1366,-0.8
27.1416,0.0
27.1515,0.81
27.1615,1.3
27.1715,1.36
27.1817,1.1
27.1917,0.75
27.2016,0.51
27.2127,0.41
27.2227,0.35
27.2327,0.22
27.2486,-0.0
27.2556,-0.22
27.2627,-0.35
27.2727,-0.41
27.2826,-0.51
27.2926,-0.75
27.3036,-1.1
27.3136,-1.36
27.3236,-1.3
27.3335,-0.8
27.3435,0.0
27.3575,0.81
27.3636,1.3
27.3735,1.36
27.3836,1.1
27.3935,0.75
27.4037,0.51
27.4146,0.41
27.4245,0.35
27.4345,0.22
27.4445,-0.0
27.4545,-0.22
27.4684,-0.35
27.4744,-0.41
27.4843,-0.51
27.4943,-0.75
27.5054,-1.1
27.5153,-1.36
27.5252,-1.3
27.5352,-0.8
27.5452,0.0
27.5552,0.81
27.5671,1.3
27.5791,1.36
27.5850,1.1
27.5951,0.75
27.6050,0.51
27.6157,0.41
27.6267,0.35
27.6367,0.22
27.6467,-0.0
27.6566,-0.22
27.6666,-0.35
27.6815,-0.41
27.6875,-0.51
27.6967,-0.75
27.7077,-1.1
27.7177,-1.36
27.7277,-1.3
27.7377,-0.8
27.7477,0.0
27.7576,0.81
27.7677,1.3
27.7776,1.36
27.7966,1.1
27.7995,0.75
27.8075,0.51
27.8176,0.41
27.8287,0.35
27.8386,0.22
27.8486,-0.0
27.8587,-0.22
27.8686,-0.35
27.8786,-0.41
27.8887,-0.51
27.9026,-0.75
27.9096,-1.1
27.9195,-1.36
27.9296,-1.3
27.9395,-0.8
27.9497,0.0
27.9597,0.81
27.9697,1.3
27.9797,1.36
27.9897,1.1
28.0006,0.75
28.0125,0.51
28.0197,0.41
28.0307,0.35
28.0407,0.22
28.0507,-0.0
28.0607,-0.22
28.0706,-0.35
28.0807,-0.41
28.0907,-0.51
28.1006,-0.75
28.1106,-1.1
28.1245,-1.36
28.1316,-1.3
28.1417,-0.8
28.1515,0.0
28.1616,0.81
28.1716,1.3
28.1816,1.36
28.1915,1.1
28.2015,0.75
28.2115,0.51
28.2214,0.41
28.2324,0.35
28.2424,0.22
28.2524,-0.0
28.2623,-0.22
28.2727,-0.35
28.2827,-0.41
28.2926,-0.51
28.3026,-0.75
28.3127,-1.1
28.3226,-1.36
28.3356,-1.3
28.3435,-0.8
28.3535,0.0
28.3635,0.81
28.3735,1.3
28.3834,1.36
28.3936,1.1
28.4036,0.75
28.4136,0.51
28.4235,0.41
28.4345,0.35
28.4455,0.22
28.4544,-0.0
28.4644,-0.22
28.4744,-0.35
28.4844,-0.41
28.4943,-0.51
28.5043,-0.75
28.5143,-1.1
28.5252,-1.36
28.5352,-1.3
28.5464,-0.8
28.5603,0.0
28.5653,0.81
28.5753,1.3
28.5856,1.36
28.5956,1.1
28.6055,0.75
28.6156,0.51
28.6257,0.41
28.6367,0.35
28.6467,0.22
28.6576,-0.0
28.6666,-0.22
28.6766,-0.35
28.6906,-0.41
28.6986,-0.51
28.7065,-0.75
28.7165,-1.1
28.7274,-1.36
28.7374,-1.3
28.7476,-0.8
28.7575,0.0
28.7705,0.81
28.7775,1.3
28.7875,1.36
28.7985,1.1
28.8114,0.75
28.8174,0.51
28.8275,0.41
28.8386,0.35
28.8486,0.22
28.8586,-0.0
28.8686,-0.22
28.8826,-0.35
28.8896,-0.41
28.8986,-0.51
28.9085,-0.75
28.9185,-1.1
28.9297,-1.36
28.9396,-1.3
28.9497,-0.8
28.9596,0.0
28.9695,0.81
28.9795,1.3
28.9984,1.36
29.0004,1.1
29.0094,0.75
29.0193,0.51
29.0297,0.41
29.0396,0.35
29.0498,0.22
29.0608,-0.0
29.0707,-0.22
29.0807,-0.35
29.0907,-0.41
29.1007,-0.51
29.1107,-0.75
29.1257,-1.1
29.1317,-1.36
29.1407,-1.3
29.1516,-0.8
29.1616,0.0
29.1715,0.81
29.1815,1.3
29.1916,1.36
29.2015,1.1
29.2145,0.75
29.2214,0.51
29.2314,0.41
29.2417,0.35
29.2526,0.22
29.2627,-0.0
29.2727,-0.22
29.2826,-0.35
29.2926,-0.41
29.3026,-0.51
29.3195,-0.75
29.3255,-1.1
29.3326,-1.36
29.3437,-1.3
29.3535,-0.8
29.3635,0.0
29.3735,0.81
29.3834,1.3
29.3934,1.36
29.4044,1.1
29.4134,0.75
29.4293,0.51
29.4363,0.41
29.4433,0.35
29.4532,0.22
29.4642,-0.0
29.4742,-0.22
29.4842,-0.35
29.4941,-0.41
29.5041,-0.51
29.5141,-0.75
29.5241,-1.1
29.5410,-1.36
29.5470,-1.3
29.5550,-0.8
29.5657,0.0
29.5756,0.81
29.5856,1.3
29.5956,1.36
29.6056,1.1
29.6155,0.75
29.6256,0.51
29.6355,0.41
29.6494,0.35
29.6574,0.22
29.6665,-0.0
29.6766,-0.22
29.6867,-0.35
29.6967,-0.41
29.7067,-0.51
29.7166,-0.75
29.7267,-1.1
29.7367,-1.36
29.7477,-1.3
29.7627,-0.8
29.7677,0.0
29.7778,0.81
29.7877,1.3
29.7977,1.36
29.8076,1.1
29.8177,0.75
29.8276,0.51
29.8376,0.41
29.8477,0.35
29.8585,0.22
29.8745,-0.0
29.8795,-0.22
29.8885,-0.35
29.8984,-0.41
29.9084,-0.51
29.9184,-0.75
29.9284,-1.1
29.9383,-1.36
29.9483,-1.3
29.9593,-0.8
29.9712,0.0
29.9832,0.81
29.9892,1.3
29.9992,1.36
30.0091,1.1
30.0191,0.75
30.0291,0.51
30.0391,0.41
30.0490,0.35
30.0600,0.22
30.0700,-0.0
30.0859,-0.22
30.0919,-0.35
30.0999,-0.41
30.1099,-0.51
30.1208,-0.75
30.1308,-1.1
30.1406,-1.36
30.1506,-1.3
30.1615,-0.8
30.1715,0.0
30.1815,0.81
30.1965,1.3
30.2015,1.36
30.2116,1.1
30.2216,0.75
30.2316,0.51
30.2416,0.41
30.2515,0.35
30.2617,0.22
30.2726,-0.0
30.2826,-0.22
30.2926,-0.35
30.3055,-0.41
30.3135,-0.51
30.3225,-0.75
30.3325,-1.1
30.3424,-1.36
30.3527,-1.3
30.3628,-0.8
30.3737,0.0
30.3837,0.81
30.3937,1.3
30.4036,1.36
30.4174,1.1
30.4234,0.75
30.4337,0.51
30.4435,0.41
30.4534,0.35
30.4634,0.22
30.4745,-0.0
30.4844,-0.22
30.4945,-0.35
30.5045,-0.41
30.5144,-0.51
30.5243,-0.75
30.5343,-1.1
30.5443,-1.36
30.5543,-1.3
30.5653,-0.8
30.5756,0.0
30.5857,0.81
30.5957,1.3
30.6057,1.36
30.6157,1.1
30.6277,0.75
30.6396,0.51
30.6456,0.41
30.6557,0.35
30.6657,0.22
30.6767,-0.0
30.6867,-0.22
30.6967,-0.35
30.7067,-0.41
30.7166,-0.51
30.7267,-0.75
30.7367,-1.1
30.7477,-1.36
30.7567,-1.3
30.7676,-0.8
30.7776,0.0
30.7877,0.81
30.7976,1.3
30.8077,1.36
30.8176,1.1
30.8277,0.75
30.8376,0.51
30.8555,0.41
30.8575,0.35
30.8675,0.22
30.8786,-0.0
30.8886,-0.22
30.8987,-0.35
30.9087,-0.41
30.9186,-0.51
30.9287,-0.75
30.9387,-1.1
30.9486,-1.36
30.9666,-1.3
30.9695,-0.8
30.9788,0.0
30.9896,0.81
30.9996,1.3
31.0096,1.36
31.0197,1.1
31.0296,0.75
31.0397,0.51
31.0496,0.41
31.0597,0.35
31.0767,0.22
31.0806,-0.0
31.0907,-0.22
31.1007,-0.35
31.1107,-0.41
31.1206,-0.51
31.1306,-0.75
31.1407,-1.1
31.1507,-1.36
31.1607,-1.3
31.1717,-0.8
31.1846,0.0
31.1916,0.81
31.2018,1.3
31.2118,1.36
31.2218,1.1
31.2318,0.75
31.2416,0.51
31.2515,0.41
31.2616,0.35
31.2716,0.22
31.2827,-0.0
31.2926,-0.22
31.3026,-0.35
31.3126,-0.41
31.3226,-0.51
31.3326,-0.75
31.3427,-1.1
31.3527,-1.36
31.3627,-1.3
31.3727,-0.8
31.3826,0.0
31.3937,0.81
31.4086,1.3
31.4136,1.36
31.4237,1.1
31.4335,0.75
31.4435,0.51
31.4535,0.41
31.4634,0.35
31.4736,0.22
31.4845,-0.0
31.4945,-0.22
31.5074,-0.35
31.5144,-0.41
31.5245,-0.51
31.5344,-0.75
31.5444,-1.1
31.5545,-1.36
31.5643,-1.3
31.5743,-0.8
31.5842,0.0
31.5957,0.81
31.6056,1.3
31.6245,1.36
31.6275,1.1
31.6355,0.75
31.6456,0.51
31.6555,0.41
31.6655,0.35
31.6754,0.22
31.6854,-0.0
31.6967,-0.22
31.7066,-0.35
31.7166,-0.41
31.7326,-0.51
31.7376,-0.75
31.7465,-1.1
31.7563,-1.36
31.7663,-1.3
31.7762,-0.8
31.7862,0.0
31.7976,0.81
31.8073,1.3
31.8174,1.36
31.8293,1.1
31.8423,0.75
31.8473,0.51
31.8642,0.41
31.8672,0.35
31.8772,0.22
31.8882,-0.0
31.8981,-0.22
31.9086,-0.35
31.9181,-0.41
31.9286,-0.51
31.9396,-0.75
31.9526,-1.1
31.9586,-1.36
31.9686,-1.3
31.9786,-0.8
31.9884,0.0
31.9996,0.81
32.0096,1.3
32.0196,1.36
32.0296,1.1
32.0395,0.75
32.0525,0.51
32.0595,0.41
32.0694,0.35
32.0796,0.22
32.0906,-0.0
32.1006,-0.22
32.1106,-0.35
32.1205,-0.41
32.1305,-0.51
32.1405,-0.75
32.1504,-1.1
32.1704,-1.36
32.1784,-1.3
32.1814,-0.8
32.1903,0.0
32.2003,0.81
32.2116,1.3
32.2213,1.36
32.2316,1.1
32.2416,0.75
32.2516,0.51
32.2615,0.41
32.2795,0.35
32.2885,0.22
32.2915,-0.0
32.3024,-0.22
32.3124,-0.35
32.3224,-0.41
32.3326,-0.51
32.3427,-0.75
32.3526,-1.1
32.3626,-1.36
32.3727,-1.3
32.3876,-0.8
32.3927,0.0
32.4027,0.81
32.4137,1.3
32.4236,1.36
32.4336,1.1
32.4436,0.75
32.4536,0.51
32.4635,0.41
32.4735,0.35
32.4836,0.22
32.4975,-0.0
32.5054,-0.22
32.5145,-0.35
32.5246,-0.41
32.5345,-0.51
32.5445,-0.75
32.5545,-1.1
32.5645,-1.36
32.5744,-1.3
32.5844,-0.8
32.5943,0.0
32.6083,0.81
32.6153,1.3
32.6253,1.36
32.6352,1.1
32.6453,0.75
32.6552,0.51
32.6651,0.41
32.6756,0.35
32.6857,0.22
32.6956,-0.0
32.7066,-0.22
32.7195,-0.35
32.7266,-0.41
32.7366,-0.51
32.7465,-0.75
32.7567,-1.1
32.7666,-1.36
32.7767,-1.3
32.7866,-0.8
32.7966,0.0
32.8066,0.81
32.8226,1.3
32.8275,1.36
32.8376,1.1
32.8476,0.75
32.8577,0.51
32.8673,0.41
32.8773,0.35
32.8872,0.22
32.8972,-0.0
32.9087,-0.22
32.9187,-0.35
32.9296,-0.41
32.9387,-0.51
32.9486,-0.75
32.9586,-1.1
32.9686,-1.36
32.9787,-1.3
32.9887,-0.8
32.9987,0.0
33.0086,0.81
33.0185,1.3
33.0296,1.36
33.0455,1.1
33.0505,0.75
33.0596,0.51
33.0696,0.41
33.0794,0.35
33.0896,0.22
33.0996,-0.0
33.1096,-0.22
33.1206,-0.35
33.1305,-0.41
33.1405,-0.51
33.1535,-0.75
33.1605,-1.1
33.1707,-1.36
33.1806,-1.3
33.1907,-0.8
33.2006,0.0
33.2106,0.81
33.2206,1.3
33.2317,1.36
33.2416,1.1
33.2526,0.75
33.2646,0.51
33.2717,0.41
33.2816,0.35
33.2916,0.22
33.3016,-0.0
33.3117,-0.22
33.3226,-0.35
33.3325,-0.41
33.3427,-0.51
33.3527,-0.75
33.3636,-1.1
33.3756,-1.36
33.3827,-1.3
33.3927,-0.8
33.4026,0.0
33.4127,0.81
33.4227,1.3
33.4337,1.36
33.4436,1.1
33.4536,0.75
33.4636,0.51
33.4736,0.41
33.4875,0.35
33.4936,0.22
33.5036,-0.0
33.5135,-0.22
33.5245,-0.35
33.5345,-0.41
33.5446,-0.51
33.5545,-0.75
33.5645,-1.1
33.5745,-1.36
33.5864,-1.3
33.5994,-0.8
33.6064,0.0
33.6143,0.81
33.6243,1.3
33.6353,1.36
33.6453,1.1
33.6554,0.75
33.6653,0.51
33.6753,0.41
33.6862,0.35
33.6982,0.22
33.7052,-0.0
33.7156,-0.22
33.7267,-0.35
33.7367,-0.41
33.7466,-0.51
33.7566,-0.75
33.7667,-1.1
33.7766,-1.36
33.7866,-1.3
33.7966,-0.8
33.8076,0.0
33.8167,0.81
33.8267,1.3
33.8368,1.36
33.8477,1.1
33.8577,0.75
33.8677,0.51
33.8777,0.41
33.8877,0.35
33.8976,0.22
33.9126,-0.0
33.9186,-0.22
33.9287,-0.35
33.9376,-0.41
33.9486,-0.51
33.9586,-0.75
33.9687,-1.1
33.9786,-1.36
33.9886,-1.3
33.9987,-0.8
34.0087,0.0
34.0226,0.81
34.0296,1.3
34.0396,1.36
34.0496,1.1
34.0597,0.75
34.0697,0.51
34.0797,0.41
34.0896,0.35
34.0996,0.22
34.1097,-0.0
34.1197,-0.22
34.1335,-0.35
34.1407,-0.41
34.1505,-0.51
34.1609,-0.75
34.1706,-1.1
34.1806,-1.36
34.1906,-1.3
34.2006,-0.8
34.2105,0.0
34.2206,0.81
34.2305,1.3
34.2484,1.36
34.2554,1.1
34.2614,0.75
34.2715,0.51
34.2815,0.41
34.2913,0.35
34.3013,0.22
34.3115,-0.0
34.3215,-0.22
34.3315,-0.35
34.3435,-0.41
34.3565,-0.51
34.3624,-0.75
34.3726,-1.1
34.3825,-1.36
34.3924,-1.3
34.4026,-0.8
34.4124,0.0
34.4224,0.81
34.4324,1.3
34.4423,1.36
34.4533,1.1
34.4673,0.75
34.4733,0.51
34.4832,0.41
34.4932,0.35
34.5032,0.22
34.5135,-0.0
34.5235,-0.22
34.5335,-0.35
34.5444,-0.41
34.5544,-0.51
34.5704,-0.75
34.5774,-1.1
34.5843,-1.36
34.5943,-1.3
34.6043,-0.8
34.6143,0.0
34.6242,0.81
34.6342,1.3
34.6442,1.36
34.6552,1.1
34.6651,0.75
34.6791,0.51
34.6856,0.41
34.6956,0.35
34.7065,0.22
34.7156,-0.0
34.7256,-0.22
34.7355,-0.35
34.7466,-0.41
34.7566,-0.51
34.7667,-0.75
34.7766,-1.1
34.7866,-1.36
34.7985,-1.3
34.8065,-0.8
34.8165,0.0
34.8265,0.81
34.8366,1.3
34.8467,1.36
34.8566,1.1
34.8676,0.75
34.8776,0.51
34.8876,0.41
34.9056,0.35
34.9075,0.22
34.9175,-0.0
34.9275,-0.22
34.9375,-0.35
34.9486,-0.41
34.9586,-0.51
34.9686,-0.75
34.9787,-1.1
34.9887,-1.36
34.9996,-1.3
35.0126,-0.8
35.0186,0.0
35.0286,0.81
35.0386,1.3
35.0486,1.36
35.0587,1.1
35.0697,0.75
35.0796,0.51
35.0896,0.41
35.0996,0.35
35.1095,0.22
35.1254,-0.0
35.1295,-0.22
35.1395,-0.35
35.1505,-0.41
35.1605,-0.51
35.1707,-0.75
35.1807,-1.1
35.1906,-1.36
35.2006,-1.3
35.2106,-0.8
35.2206,0.0
35.2306,0.81
35.2401,1.3
35.2501,1.36
35.2600,1.1
35.2710,0.75
35.2817,0.51
35.2917,0.41
35.3017,0.35
35.3116,0.22
35.3216,-0.0
35.3316,-0.22
35.3416,-0.35
35.3516,-0.41
35.3625,-0.51
35.3725,-0.75
35.3825,-1.1
35.3924,-1.36
35.4024,-1.3
35.4124,-0.8
35.4226,0.0
35.4327,0.81
35.4426,1.3
35.4526,1.36
35.4627,1.1
35.4737,0.75
35.4835,0.51
35.4938,0.41
35.5037,0.35
35.5136,0.22
35.5236,-0.0
35.5336,-0.22
35.5434,-0.35
35.5544,-0.41
35.5646,-0.51
35.5747,-0.75
35.5845,-1.1
35.5948,-1.36
35.6047,-1.3
35.6147,-0.8
35.6247,0.0
35.6345,0.81
35.6446,1.3
35.6554,1.36
35.6673,1.1
35.6756,0.75
35.6858,0.51
35.6955,0.41
35.7052,0.35
35.7157,0.22
35.7257,-0.0
35.7357,-0.22
35.7457,-0.35
35.7551,-0.41
35.7681,-0.51
35.7761,-0.75
35.7910,-1.1
35.7980,-1.36
35.8070,-1.3
35.8166,-0.8
35.8267,0.0
35.8366,0.81
35.8466,1.3
35.8566,1.36
35.8667,1.1
35.8816,0.75
35.8875,0.51
35.8976,0.41
35.9076,0.35
35.9177,0.22
35.9277,-0.0
35.9376,-0.22
35.9476,-0.35
35.9576,-0.41
35.9686,-0.51
35.9787,-0.75
35.9967,-1.1
35.9987,-1.36
36.0087,-1.3
36.0187,-0.8
36.0287,0.0
36.0386,0.81
36.0487,1.3
36.0586,1.36
36.0687,1.1
36.0796,0.75
36.0897,0.51
36.1077,0.41
36.1097,0.35
36.1197,0.22
36.1297,-0.0
36.1397,-0.22
36.1497,-0.35
36.1597,-0.41
36.1706,-0.51
36.1807,-0.75
36.1906,-1.1
36.2006,-1.36
36.2156,-1.3
36.2206,-0.8
36.2306,0.0
36.2407,0.81
36.2506,1.3
36.2607,1.36
36.2708,1.1
36.2806,0.75
36.2916,0.51
36.3015,0.41
36.3124,0.35
36.3264,0.22
36.3314,-0.0
36.3414,-0.22
36.3514,-0.35
36.3616,-0.41
36.3726,-0.51
36.3825,-0.75
36.3925,-1.1
36.4025,-1.36
36.4125,-1.3
36.4234,-0.8
36.4334,0.0
36.4424,0.81
36.4524,1.3
36.4623,1.36
36.4723,1.1
36.4823,0.75
36.4933,0.51
36.5032,0.41
36.5132,0.35
36.5232,0.22
36.5361,-0.0
36.5461,-0.22
36.5541,-0.35
36.5631,-0.41
36.5730,-0.51
36.5850,-0.75
36.5940,-1.1
36.6040,-1.36
36.6139,-1.3
36.6239,-0.8
36.6349,0.0
36.6448,0.81
36.6578,1.3
36.6658,1.36
36.6748,1.1
36.6847,0.75
36.6947,0.51
36.7057,0.41
36.7157,0.35
36.7256,0.22
36.7356,-0.0
36.7455,-0.22
36.7625,-0.35
36.7695,-0.41
36.7754,-0.51
36.7864,-0.75
36.7964,-1.1
36.8064,-1.36
36.8163,-1.3
36.8266,-0.8
36.8366,0.0
36.8465,0.81
36.8565,1.3
36.8675,1.36
36.8764,1.1
36.8894,0.75
36.9034,0.51
36.9094,0.41
36.9173,0.35
36.9273,0.22
36.9373,-0.0
36.9473,-0.22
36.9576,-0.35
36.9676,-0.41
36.9815,-0.51
36.9885,-0.75
36.9986,-1.1
37.0086,-1.36
37.0185,-1.3
37.0288,-0.8
37.0386,0.0
37.0486,0.81
37.0587,1.3
37.0686,1.36
37.0796,1.1
37.0995,0.75
37.1015,0.51
37.1095,0.41
37.1195,0.35
37.1294,0.22
37.1394,-0.0
37.1504,-0.22
37.1594,-0.35
37.1703,-0.41
37.1793,-0.51
37.1953,-0.75
37.2062,-1.1
37.2132,-1.36
37.2202,-1.3
37.2302,-0.8
37.2401,0.0
37.2501,0.81
37.2601,1.3
37.2701,1.36
37.2800,1.1
37.2900,0.75
37.3070,0.51
37.3110,0.41
37.3209,0.35
37.3319,0.22
37.3415,-0.0
37.3515,-0.22
37.3615,-0.35
37.3715,-0.41
37.3815,-0.51
37.3924,-0.75
37.4025,-1.1
37.4265,-1.36
37.4295,-1.3
37.4325,-0.8
37.4424,0.0
37.4524,0.81
37.4624,1.3
37.4724,1.36
37.4823,1.1
37.4923,0.75
37.5026,0.51
37.5136,0.41
37.5265,0.35
37.5334,0.22
37.5436,-0.0
37.5535,-0.22
37.5635,-0.35
37.5735,-0.41
37.5834,-0.51
37.5934,-0.75
37.6044,-1.1
37.6144,-1.36
37.6244,-1.3
37.6423,-0.8
37.6463,0.0
37.6543,0.81
37.6643,1.3
37.6743,1.36
37.6842,1.1
37.6942,0.75
37.7041,0.51
37.7152,0.41
37.7251,0.35
37.7361,0.22
37.7500,-0.0
37.7550,-0.22
37.7650,-0.35
37.7750,-0.41
37.7859,-0.51
37.7956,-0.75
37.8066,-1.1
37.8164,-1.36
37.8265,-1.3
37.8364,-0.8
37.8464,0.0
37.8593,0.81
37.8664,1.3
37.8767,1.36
37.8866,1.1
37.8966,0.75
37.9067,0.51
37.9176,0.41
37.9276,0.35
37.9377,0.22
37.9476,-0.0
37.9626,-0.22
37.9695,-0.35
37.9775,-0.41
37.9895,-0.51
37.9974,-0.75
38.0085,-1.1
38.0184,-1.36
38.0283,-1.3
38.0383,-0.8
38.0483,0.0
38.0583,0.81
38.0712,1.3
38.0902,1.36
38.0942,1.1
38.0982,0.75
38.1081,0.51
38.1191,0.41
38.1291,0.35
38.1390,0.22
38.1500,-0.0
38.1600,-0.22
38.1700,-0.35
38.1889,-0.41
38.1969,-0.51
38.2019,-0.75
38.2099,-1.1
38.2206,-1.36
38.2298,-1.3
38.2398,-0.8
38.2508,0.0
38.2607,0.81
38.2707,1.3
38.2807,1.36
38.2976,1.1
38.3046,0.75
38.3106,0.51
38.3206,0.41
38.3316,0.35
38.3415,0.22
38.3515,-0.0
38.3615,-0.22
38.3714,-0.35
38.3814,-0.41
38.3914,-0.51
38.4084,-0.75
38.4163,-1.1
38.4223,-1.36
38.4323,-1.3
38.4423,-0.8
38.4522,0.0
38.4622,0.81
38.4722,1.3
38.4822,1.36
38.4921,1.1
38.5021,0.75
38.5171,0.51
38.5220,0.41
38.5330,0.35
38.5430,0.22
38.5530,-0.0
38.5629,-0.22
38.5729,-0.35
38.5839,-0.41
38.5929,-0.51
38.6038,-0.75
38.6128,-1.1
38.6298,-1.36
38.6348,-1.3
38.6447,-0.8
38.6547,0.0
38.6647,0.81
38.6746,1.3
38.6846,1.36
38.6946,1.1
38.7046,0.75
38.7145,0.51
38.7345,0.41
38.7355,0.35
38.7455,0.22
38.7554,-0.0
38.7654,-0.22
38.7754,-0.35
38.7853,-0.41
38.7953,-0.51
38.8053,-0.75
38.8153,-1.1
38.8262,-1.36
38.8412,-1.3
38.8472,-0.8
38.8562,0.0
38.8671,0.81
38.8761,1.3
38.8866,1.36
38.8966,1.1
38.9064,0.75
38.9163,0.51
38.9263,0.41
38.9373,0.35
38.9482,0.22
38.9573,-0.0
38.9676,-0.22
38.9776,-0.35
38.9876,-0.41
38.9977,-0.51
39.0076,-0.75
39.0176,-1.1
39.0287,-1.36
39.0386,-1.3
39.0516,-0.8
39.0636,0.0
39.0686,0.81
39.0785,1.3
39.0895,1.36
39.0985,1.1
39.1085,0.75
39.1184,0.51
39.1284,0.41
39.1384,0.35
39.1493,0.22
39.1653,-0.0
39.1733,-0.22
39.1793,-0.35
39.1892,-0.41
39.2002,-0.51
39.2092,-0.75
39.2192,-1.1
39.2291,-1.36
39.2401,-1.3
39.2501,-0.8
39.2600,0.0
39.2730,0.81
39.2800,1.3
39.2906,1.36
39.3000,1.1
39.3106,0.75
39.3206,0.51
39.3306,0.41
39.3407,0.35
39.3517,0.22
39.3616,-0.0
39.3717,-0.22
39.3826,-0.35
39.3916,-0.41
39.4015,-0.51
39.4116,-0.75
39.4216,-1.1
39.4317,-1.36
39.4426,-1.3
39.4526,-0.8
39.4626,0.0
39.4726,0.81
39.4826,1.3
39.4966,1.36
39.5027,1.1
39.5126,0.75
39.5226,0.51
39.5327,0.41
39.5427,0.35
39.5526,0.22
39.5636,-0.0
39.5736,-0.22
39.5835,-0.35
39.5935,-0.41
39.6034,-0.51
39.6136,-0.75
39.6236,-1.1
39.6335,-1.36
39.6445,-1.3
39.6545,-0.8
39.6645,0.0
39.6745,0.81
39.6845,1.3
39.6944,1.36
39.7044,1.1
39.7243,0.75
39.7263,0.51
39.7342,0.41
39.7442,0.35
39.7552,0.22
39.7652,-0.0
39.7751,-0.22
39.7851,-0.35
39.7951,-0.41
39.8051,-0.51
39.8180,-0.75
39.8280,-1.1
39.8370,-1.36
39.8459,-1.3
39.8559,-0.8
39.8669,0.0
39.8759,0.81
39.8868,1.3
39.8958,1.36
39.9068,1.1
39.9168,0.75
39.9277,0.51
39.9387,0.41
39.9467,0.35
39.9576,0.22
39.9676,-0.0
39.9776,-0.22
39.9876,-0.35
39.9975,-0.41
40.0075,-0.51
40.0175,-0.75
40.0275,-1.1
40.0374,-1.36
40.0484,-1.3
40.0586,-0.8
40.0686,0.0
40.0785,0.81
40.0885,1.3
40.0985,1.36
40.1085,1.1
40.1184,0.75
40.1284,0.51
40.1384,0.41
40.1563,0.35
40.1623,0.22
40.1693,-0.0
40.1793,-0.22
40.1902,-0.35
40.1992,-0.41
40.2092,-0.51
40.2192,-0.75
40.2291,-1.1
40.2391,-1.36
40.2491,-1.3
40.2730,-0.8
40.2740,0.0
40.2800,0.81
40.2900,1.3
40.3010,1.36
40.3099,1.1
40.3199,0.75
40.3299,0.51
40.3407,0.41
40.3507,0.35
40.3617,0.22
40.3727,-0.0
40.3816,-0.22
40.3916,-0.35
40.4016,-0.41
40.4116,-0.51
40.4216,-0.75
40.4317,-1.1
40.4416,-1.36
40.4516,-1.3
40.4626,-0.8
40.4725,0.0
40.4825,0.81
40.4926,1.3
40.5025,1.36
40.5125,1.1
40.5226,0.75
40.5326,0.51
40.5426,0.41
40.5526,0.35
40.5625,0.22
40.5735,-0.0
40.5895,-0.22
40.5935,-0.35
40.6036,-0.41
40.6137,-0.51
40.6235,-0.75
40.6334,-1.1
40.6437,-1.36
40.6535,-1.3
40.6645,-0.8
40.6745,0.0
40.6844,0.81
40.6964,1.3
40.7045,1.36
40.7144,1.1
40.7243,0.75
40.7343,0.51
40.7442,0.41
40.7542,0.35
40.7642,0.22
40.7752,-0.0
40.7851,-0.22
40.7981,-0.35
40.8121,-0.41
40.8151,-0.51
40.8250,-0.75
40.8360,-1.1
40.8450,-1.36
40.8555,-1.3
40.8665,-0.8
40.8765,0.0
40.8866,0.81
40.8965,1.3
40.9074,1.36
40.9194,1.1
40.9264,0.75
40.9366,0.51
40.9466,0.41
40.9566,0.35
40.9666,0.22
40.9775,-0.0
40.9876,-0.22
40.9976,-0.35
41.0075,-0.41
41.0245,-0.51
41.0325,-0.75
41.0375,-1.1
41.0476,-1.36
41.0575,-1.3
41.0684,-0.8
41.0785,0.0
41.0887,0.81
41.0986,1.3
41.1086,1.36
41.1186,1.1
41.1346,0.75
41.1416,0.51
41.1486,0.41
41.1586,0.35
41.1687,0.22
41.1796,-0.0
41.1896,-0.22
41.1995,-0.35
41.2095,-0.41
41.2195,-0.51
41.2295,-0.75
41.2444,-1.1
41.2514,-1.36
41.2594,-1.3
41.2704,-0.8
41.2814,0.0
41.2906,0.81
41.3006,1.3
41.3107,1.36
41.3206,1.1
41.3306,0.75
41.3406,0.51
41.3566,0.41
41.3606,0.35
41.3707,0.22
41.3816,-0.0
41.3916,-0.22
41.4016,-0.35
41.4116,-0.41
41.4215,-0.51
41.4315,-0.75
41.4415,-1.1
41.4515,-1.36
41.4714,-1.3
41.4724,-0.8
41.4814,0.0
41.4924,0.81
41.5023,1.3
41.5123,1.36
41.5223,1.1
41.5323,0.75
41.5422,0.51
41.5522,0.41
41.5622,0.35
41.5821,0.22
41.5841,-0.0
41.5931,-0.22
41.6031,-0.35
41.6130,-0.41
41.6230,-0.51
41.6340,-0.75
41.6430,-1.1
41.6529,-1.36
41.6636,-1.3
41.6735,-0.8
41.6844,0.0
41.6945,0.81
41.7046,1.3
41.7146,1.36
41.7245,1.1
41.7345,0.75
41.7445,0.51
41.7545,0.41
41.7644,0.35
41.7743,0.22
41.7853,-0.0
41.7993,-0.22
41.8053,-0.35
41.8153,-0.41
41.8252,-0.51
41.8356,-0.75
41.8455,-1.1
41.8555,-1.36
41.8655,-1.3
41.8755,-0.8
41.8855,0.0
41.8995,0.81
41.9066,1.3
41.9166,1.36
41.9267,1.1
41.9366,0.75
41.9466,0.51
41.9566,0.41
41.9666,0.35
41.9766,0.22
41.9876,-0.0
41.9975,-0.22
42.0245,-0.35
42.0285,-0.41
42.0285,-0.51
42.0374,-0.75
42.0474,-1.1
42.0574,-1.36
42.0674,-1.3
42.0773,-0.8
42.0873,0.0
42.0983,0.81
42.1082,1.3
42.1212,1.36
42.1282,1.1
42.1386,0.75
42.1486,0.51
42.1585,0.41
42.1686,0.35
42.1786,0.22
42.1896,-0.0
42.1996,-0.22
42.2095,-0.35
42.2195,-0.41
42.2385,-0.51
42.2474,-0.75
42.2504,-1.1
42.2594,-1.36
42.2734,-1.3
42.2923,-0.8
42.2933,0.0
42.3003,0.81
42.3163,1.3
42.3202,1.36
42.3312,1.1
42.3422,0.75
42.3592,0.51
42.3601,0.41
42.3701,0.35
42.3821,0.22
42.4050,-0.0
42.4050,-0.22
42.4230,-0.35
42.4230,-0.41
42.4449,-0.51
42.4738,-0.75
42.4778,-1.1
42.4778,-1.36
42.4778,-1.3
42.4828,-0.8
42.4908,0.0
42.5018,0.81
42.5117,1.3
42.5217,1.36
42.5327,1.1
42.5427,0.75
42.5586,0.51
42.5905,0.41
42.5945,0.35
42.5945,0.22
42.5945,-0.0
42.6035,-0.22
42.6135,-0.35
42.6234,-0.41
42.6334,-0.51
42.6434,-0.75
42.6534,-1.1
42.6783,-1.36
42.6803,-1.3
42.6843,-0.8
42.6932,0.0
42.7032,0.81
42.7142,1.3
42.7242,1.36
42.7341,1.1
42.7441,0.75
42.7541,0.51
42.7641,0.41
42.7860,0.35
42.7870,0.22
42.7940,-0.0
42.8050,-0.22
42.8149,-0.35
42.8249,-0.41
42.8359,-0.51
42.8458,-0.75
42.8558,-1.1
42.8658,-1.36
42.8778,-1.3
42.8947,-0.8
42.8967,0.0
42.9057,0.81
42.9167,1.3
42.9266,1.36
42.9366,1.1
42.9466,0.75
42.9565,0.51
42.9665,0.41
42.9765,0.35
42.9895,0.22
42.9994,-0.0
43.0074,-0.22
43.0174,-0.35
43.0274,-0.41
43.0373,-0.51
43.0473,-0.75
43.0573,-1.1
43.0672,-1.36
43.0772,-1.3
43.0872,-0.8
43.1002,0.0
43.1091,0.81
43.1191,1.3
43.1281,1.36
43.1381,1.1
43.1480,0.75
43.1580,0.51
43.1680,0.41
43.1780,0.35
43.1879,0.22
43.1979,-0.0
43.2208,-0.22
43.2228,-0.35
43.2288,-0.41
43.2398,-0.51
43.2498,-0.75
43.2595,-1.1
43.2695,-1.36
43.2794,-1.3
43.2894,-0.8
43.2994,0.0
43.3094,0.81
43.3233,1.3
43.3303,1.36
43.3403,1.1
43.3503,0.75
43.3602,0.51
43.3702,0.41
43.3802,0.35
43.3906,0.22
43.4004,-0.0
43.4115,-0.22
43.4215,-0.35
43.4384,-0.41
43.4415,-0.51
43.4517,-0.75
43.4616,-1.1
43.4716,-1.36
43.4836,-1.3
43.4916,-0.8
43.5016,0.0
43.5116,0.81
43.5216,1.3
43.5326,1.36
43.5426,1.1
43.5526,0.75
43.5626,0.51
43.5726,0.41
43.5826,0.35
43.5926,0.22
43.6026,-0.0
43.6126,-0.22
43.6236,-0.35
43.6336,-0.41
43.6485,-0.51
43.6555,-0.75
43.6636,-1.1
43.6736,-1.36
43.6835,-1.3
43.6936,-0.8
43.7036,0.0
43.7136,0.81
43.7237,1.3
43.7346,1.36
43.7449,1.1
43.7576,0.75
43.7647,0.51
43.7748,0.41
43.7846,0.35
43.7947,0.22
43.8047,-0.0
43.8146,-0.22
43.8255,-0.35
43.8355,-0.41
43.8456,-0.51
43.8556,-0.75
43.8705,-1.1
43.8765,-1.36
43.8861,-1.3
43.8961,-0.8
43.9050,0.0
43.9155,0.81
43.9256,1.3
43.9368,1.36
43.9468,1.1
43.9569,0.75
43.9670,0.51
43.9859,0.41
43.9969,0.35
44.0019,0.22
44.0064,-0.0
44.0164,-0.22
44.0273,-0.35
44.0373,-0.41
44.0473,-0.51
44.0573,-0.75
44.0672,-1.1
44.0772,-1.36
44.0971,-1.3
44.1071,-0.8
44.1081,0.0
44.1171,0.81
44.1271,1.3
44.1380,1.36
44.1480,1.1
44.1580,0.75
44.1680,0.51
44.1779,0.41
44.1949,0.35
44.2009,0.22
44.2088,-0.0
44.2186,-0.22
44.2296,-0.35
44.2396,-0.41
44.2496,-0.51
44.2596,-0.75
44.2696,-1.1
44.2796,-1.36
44.2896,-1.3
44.3065,-0.8
44.3125,0.0
44.3195,0.81
44.3295,1.3
44.3404,1.36
44.3494,1.1
44.3604,0.75
44.3704,0.51
44.3803,0.41
44.3903,0.35
44.4003,0.22
44.4172,-0.0
44.4232,-0.22
44.4312,-0.35
44.4412,-0.41
44.4511,-0.51
44.4611,-0.75
44.4711,-1.1
44.4811,-1.36
44.4910,-1.3
44.5010,-0.8
44.5110,0.0
44.5259,0.81
44.5319,1.3
44.5419,1.36
44.5519,1.1
44.5618,0.75
44.5738,0.51
44.5828,0.41
44.5928,0.35
44.6027,0.22
44.6127,-0.0
44.6227,-0.22
44.6386,-0.35
44.6436,-0.41
44.6536,-0.51
44.6636,-0.75
44.6736,-1.1
44.6836,-1.36
44.6936,-1.3
44.7036,-0.8
44.7136,0.0
44.7236,0.81
44.7336,1.3
44.7435,1.36
44.7545,1.1
44.7644,0.75
44.7745,0.51
44.7845,0.41
44.7944,0.35
44.8044,0.22
44.8144,-0.0
44.8243,-0.22
44.8343,-0.35
44.8462,-0.41
44.8622,-0.51
44.8662,-0.75
44.8751,-1.1
44.8851,-1.36
44.8961,-1.3
44.9061,-0.8
44.9150,0.0
44.9250,0.81
44.9350,1.3
44.9455,1.36
44.9625,1.1
44.9704,0.75
44.9764,0.51
44.9864,0.41
44.9964,0.35
45.0063,0.22
45.0163,-0.0
45.0263,-0.22
45.0363,-0.35
45.0472,-0.41
45.0572,-0.51
45.0702,-0.75
45.0821,-1.1
45.0871,-1.36
45.0971,-1.3
45.1071,-0.8
45.1171,0.0
45.1270,0.81
45.1370,1.3
45.1470,1.36
45.1579,1.1
45.1679,0.75
45.1859,0.51
45.1889,0.41
45.1978,0.35
45.2088,0.22
45.2188,-0.0
45.2288,-0.22
45.2387,-0.35
45.2487,-0.41
45.2597,-0.51
45.2696,-0.75
45.2796,-1.1
45.2936,-1.36
45.3006,-1.3
45.3095,-0.8
45.3195,0.0
45.3295,0.81
45.3395,1.3
45.3494,1.36
45.3594,1.1
45.3694,0.75
45.3804,0.51
45.3906,0.41
45.4033,0.35
45.4103,0.22
45.4203,-0.0
45.4302,-0.22
45.4402,-0.35
45.4502,-0.41
45.4612,-0.51
45.4711,-0.75
45.4811,-1.1
45.4911,-1.36
45.5010,-1.3
45.5180,-0.8
45.5250,0.0
45.5310,0.81
45.5409,1.3
45.5509,1.36
45.5609,1.1
45.5719,0.75
45.5818,0.51
45.5918,0.41
45.6028,0.35
45.6128,0.22
45.6257,-0.0
45.6337,-0.22
45.6427,-0.35
45.6536,-0.41
45.6636,-0.51
45.6746,-0.75
45.6836,-1.1
45.6936,-1.36
45.7036,-1.3
45.7135,-0.8
45.7235,0.0
45.7394,0.81
45.7434,1.3
45.7534,1.36
45.7633,1.1
45.7743,0.75
45.7843,0.51
45.7943,0.41
45.8042,0.35
45.8142,0.22
45.8242,-0.0
45.8341,-0.22
45.8531,-0.35
45.8561,-0.41
45.8641,-0.51
45.8750,-0.75
45.8850,-1.1
45.8950,-1.36
45.9050,-1.3
45.9159,-0.8
45.9249,0.0
45.9369,0.81
45.9488,1.3
45.9558,1.36
45.9658,1.1
45.9758,0.75
45.9857,0.51
45.9967,0.41
46.0067,0.35
46.0166,0.22
46.0266,-0.0
46.0365,-0.22
46.0475,-0.35
46.0595,-0.41
46.0676,-0.51
46.0777,-0.75
46.0876,-1.1
46.0976,-1.36
46.1077,-1.3
46.1176,-0.8
46.1276,0.0
46.1376,0.81
46.1476,1.3
46.1596,1.36
46.1716,1.1
46.1785,0.75
46.1885,0.51
46.1985,0.41
46.2085,0.35
46.2184,0.22
46.2284,-0.0
46.2384,-0.22
46.2484,-0.35
46.2583,-0.41
46.2773,-0.51
46.2843,-0.75
46.2892,-1.1
46.3002,-1.36
46.3092,-1.3
46.3192,-0.8
46.3291,0.0
46.3391,0.81
46.3501,1.3
46.3591,1.36
46.3690,1.1
46.3950,0.75
46.3960,0.51
46.4000,0.41
46.4099,0.35
46.4199,0.22
46.4299,-0.0
46.4408,-0.22
46.4508,-0.35
46.4608,-0.41
46.4708,-0.51
46.4816,-0.75
46.4936,-1.1
46.5016,-1.36
46.5116,-1.3
46.5215,-0.8
46.5316,0.0
46.5416,0.81
46.5516,1.3
46.5616,1.36
46.5716,1.1
46.5817,0.75
46.5926,0.51
46.6026,0.41
46.6126,0.35
46.6226,0.22
46.6326,-0.0
46.6426,-0.22
46.6526,-0.35
46.6626,-0.41
46.6726,-0.51
46.6835,-0.75
46.6935,-1.1
46.7035,-1.36
46.7235,-1.3
46.7245,-0.8
46.7334,0.0
46.7434,0.81
46.7533,1.3
46.7653,1.36
46.7733,1.1
46.7833,0.75
46.7942,0.51
46.8042,0.41
46.8142,0.35
46.8341,0.22
46.8361,-0.0
46.8441,-0.22
46.8541,-0.35
46.8641,-0.41
46.8740,-0.51
46.8850,-0.75
46.8950,-1.1
46.9049,-1.36
46.9149,-1.3
46.9279,-0.8
46.9398,0.0
46.9456,0.81
46.9556,1.3
46.9655,1.36
46.9756,1.1
46.9856,0.75
46.9966,0.51
47.0066,0.41
47.0166,0.35
47.0266,0.22
47.0365,-0.0
47.0485,-0.22
47.0565,-0.35
47.0666,-0.41
47.0766,-0.51
47.0876,-0.75
47.0975,-1.1
47.1069,-1.36
47.1179,-1.3
47.1279,-0.8
47.1378,0.0
47.1528,0.81
47.1618,1.3
47.1717,1.36
47.1777,1.1
47.1877,0.75
47.1977,0.51
47.2086,0.41
47.2186,0.35
47.2286,0.22
47.2386,-0.0
47.2487,-0.22
47.2677,-0.35
47.2697,-0.41
47.2786,-0.51
47.2896,-0.75
47.2996,-1.1
47.3096,-1.36
47.3196,-1.3
47.3296,-0.8
47.3396,0.0
47.3495,0.81
47.3605,1.3
47.3745,1.36
47.3795,1.1
47.3894,0.75
47.3994,0.51
47.4104,0.41
47.4203,0.35
47.4303,0.22
47.4403,-0.0
47.4503,-0.22
47.4602,-0.35
47.4782,-0.41
47.4872,-0.51
47.4906,-0.75
47.5015,-1.1
47.5114,-1.36
47.5214,-1.3
47.5314,-0.8
47.5413,0.0
47.5513,0.81
47.5612,1.3
47.5715,1.36
47.5825,1.1
47.5965,0.75
47.6015,0.51
47.6125,0.41
47.6226,0.35
47.6326,0.22
47.6426,-0.0
47.6525,-0.22
47.6626,-0.35
47.6726,-0.41
47.6826,-0.51
47.6963,-0.75
47.7033,-1.1
47.7132,-1.36
47.7232,-1.3
47.7332,-0.8
47.7432,0.0
47.7531,0.81
47.7631,1.3
47.7731,1.36
47.7831,1.1
47.7930,0.75
47.8090,0.51
47.8140,0.41
47.8239,0.35
47.8339,0.22
47.8439,-0.0
47.8539,-0.22
47.8658,-0.35
47.8738,-0.41
47.8848,-0.51
47.8948,-0.75
47.9057,-1.1
47.9177,-1.36
47.9256,-1.3
47.9356,-0.8
47.9456,0.0
47.9556,0.81
47.9656,1.3
47.9755,1.36
47.9855,1.1
47.9955,0.75
48.0055,0.51
48.0164,0.41
48.0324,0.35
48.0404,0.22
48.0463,-0.0
48.0563,-0.22
48.0666,-0.35
48.0766,-0.41
48.0865,-0.51
48.0965,-0.75
48.1075,-1.1
48.1174,-1.36
48.1284,-1.3
48.1384,-0.8
48.1484,0.0
48.1573,0.81
48.1673,1.3
48.1773,1.36
48.1873,1.1
48.1972,0.75
48.2072,0.51
48.2182,0.41
48.2281,0.35
48.2461,0.22
48.2561,-0.0
48.2581,-0.22
48.2680,-0.35
48.2780,-0.41
48.2880,-0.51
48.2990,-0.75
48.3089,-1.1
48.3187,-1.36
48.3297,-1.3
48.3397,-0.8
48.3526,0.0
48.3596,0.81
48.3696,1.3
48.3795,1.36
48.3894,1.1
48.3994,0.75
48.4094,0.51
48.4204,0.41
48.4303,0.35
48.4403,0.22
48.4503,-0.0
48.4623,-0.22
48.4742,-0.35
48.4806,-0.41
48.4906,-0.51
48.5007,-0.75
48.5116,-1.1
48.5215,-1.36
48.5315,-1.3
48.5415,-0.8
48.5515,0.0
48.5616,0.81
48.5746,1.3
48.5826,1.36
48.5915,1.1
48.6015,0.75
48.6116,0.51
48.6216,0.41
48.6326,0.35
48.6426,0.22
48.6526,-0.0
48.6626,-0.22
48.6726,-0.35
48.6936,-0.41
48.6966,-0.51
48.7026,-0.75
48.7126,-1.1
48.7227,-1.36
48.7335,-1.3
48.7436,-0.8
48.7536,0.0
48.7636,0.81
48.7736,1.3
48.7835,1.36
48.7974,1.1
48.8035,0.75
48.8134,0.51
48.8235,0.41
48.8345,0.35
48.8445,0.22
48.8545,-0.0
48.8646,-0.22
48.8745,-0.35
48.8844,-0.41
48.8945,-0.51
48.9104,-0.75
48.9164,-1.1
48.9254,-1.36
48.9353,-1.3
48.9453,-0.8
48.9563,0.0
48.9652,0.81
48.9753,1.3
48.9853,1.36
48.9952,1.1
49.0081,0.75
49.0281,0.51
49.0321,0.41
49.0360,0.35
49.0460,0.22
49.0560,-0.0
49.0660,-0.22
49.0759,-0.35
49.0859,-0.41
49.0959,-0.51
49.1059,-0.75
49.1168,-1.1
49.1278,-1.36
49.1376,-1.3
49.1476,-0.8
49.1576,0.0
49.1676,0.81
49.1776,1.3
49.1876,1.36
49.1976,1.1
49.2076,0.75
49.2186,0.51
49.2326,0.41
49.2386,0.35
49.2486,0.22
49.2585,-0.0
49.2686,-0.22
49.2785,-0.35
49.2886,-0.41
49.2986,-0.51
49.3086,-0.75
49.3186,-1.1
49.3296,-1.36
49.3436,-1.3
49.3496,-0.8
49.3596,0.0
49.3696,0.81
49.3796,1.3
49.3896,1.36
49.3996,1.1
49.4096,0.75
49.4196,0.51
49.4295,0.41
49.4415,0.35
49.4515,0.22
49.4624,-0.0
49.4705,-0.22
49.4804,-0.35
49.4906,-0.41
49.5006,-0.51
49.5106,-0.75
49.5207,-1.1
49.5311,-1.36
49.5416,-1.3
49.5546,-0.8
49.5616,0.0
49.5716,0.81
49.5816,1.3
49.5916,1.36
49.6016,1.1
49.6116,0.75
49.6216,0.51
49.6316,0.41
49.6416,0.35
49.6526,0.22
49.6676,-0.0
49.6736,-0.22
49.6826,-0.35
49.6926,-0.41
49.7026,-0.51
49.7126,-0.75
49.7226,-1.1
49.7326,-1.36
49.7436,-1.3
49.7535,-0.8
49.7635,0.0
49.7744,0.81
49.7854,1.3
49.7934,1.36
49.8035,1.1
49.8135,0.75
49.8235,0.51
49.8334,0.41
49.8435,0.35
49.8545,0.22
49.8644,-0.0
49.8744,-0.22
49.8914,-0.35
49.8944,-0.41
49.9043,-0.51
49.9143,-0.75
49.9243,-1.1
49.9342,-1.36
49.9456,-1.3
49.9556,-0.8
49.9655,0.0
49.9755,0.81
49.9855,1.3
49.9994,1.36
50.0054,1.1
50.0154,0.75
50.0254,0.51
50.0353,0.41
50.0453,0.35
50.0577,0.22
50.0667,-0.0
50.0767,-0.22
50.0867,-0.35
50.0987,-0.41
50.1097,-0.51
50.1166,-0.75
50.1266,-1.1
50.1366,-1.36
50.1466,-1.3
50.1575,-0.8
50.1676,0.0
50.1776,0.81
50.1876,1.3
50.1976,1.36
50.2076,1.1
50.2205,0.75
50.2276,0.51
50.2376,0.41
50.2478,0.35
50.2588,0.22
50.2687,-0.0
50.2787,-0.22
50.2888,-0.35
50.4552,-0.41
50.4552,-0.51
50.4552,-0.75
50.4562,-1.1
50.4562,-1.36
50.4562,-1.3
50.4562,-0.8
50.4572,0.0
50.4572,0.81
50.4572,1.3
50.4582,1.36
50.4582,1.1
50.4582,0.75
50.4582,0.51
50.4592,0.41
50.4592,0.35
50.4862,0.22
50.4862,-0.0
50.4862,-0.22
50.4941,-0.35
50.5440,-0.41
50.5450,-0.51
50.5450,-0.75
50.5450,-1.1
50.5460,-1.36
50.5659,-1.3
50.5669,-0.8
50.6068,0.0
50.6068,0.81
50.6068,1.3
50.6078,1.36
50.6118,1.1
50.6218,0.75
50.6318,0.51
50.7145,0.41
50.7145,0.35
50.7155,0.22
50.7155,-0.0
50.7155,-0.22
50.7165,-0.35
50.7165,-0.41
50.7165,-0.51
50.7504,-0.75
50.7524,-1.1
50.7554,-1.36
50.7554,-1.3
50.8143,-0.8
50.8143,0.0
50.8153,0.81
50.8153,1.3
50.8153,1.36
50.8163,1.1
50.8232,0.75
50.8582,0.51
50.8582,0.41
50.8582,0.35
50.8741,0.22
50.8821,-0.0
50.8861,-0.22
50.9290,-0.35
50.9300,-0.41
50.9300,-0.51
50.9300,-0.75
50.9350,-1.1
50.9439,-1.36
50.9719,-1.3
50.9719,-0.8
50.9768,0.0
50.9878,0.81
51.0068,1.3
51.0068,1.36
51.0157,1.1
51.0556,0.75
51.0566,0.51
51.0566,0.41
51.0566,0.35
51.0656,0.22
51.0836,-0.0
51.0885,-0.22
51.1045,-0.35
51.1155,-0.41
51.1165,-0.51
51.1264,-0.75
51.1364,-1.1
51.1464,-1.36
51.1584,-1.3
51.1673,-0.8
51.1773,0.0
51.1982,0.81
51.2062,1.3
51.2092,1.36
51.2172,1.1
51.2272,0.75
51.2381,0.51
51.2471,0.41
51.2581,0.35
51.2681,0.22
51.2770,-0.0
51.2880,-0.22
51.3169,-0.35
51.3189,-0.41
51.3189,-0.51
51.3279,-0.75
51.3379,-1.1
51.3488,-1.36
51.3588,-1.3
51.3678,-0.8
51.3795,0.0
51.3895,0.81
51.3996,1.3
51.4175,1.36
51.4254,1.1
51.4295,0.75
51.4394,0.51
51.4496,0.41
51.4596,0.35
51.4696,0.22
51.4806,-0.0
51.4906,-0.22
51.5006,-0.35
51.5106,-0.41
51.5236,-0.51
51.5306,-0.75
51.5406,-1.1
51.5506,-1.36
51.5606,-1.3
51.5707,-0.8
51.5806,0.0
51.5916,0.81
51.6016,1.3
51.6116,1.36
51.6216,1.1
51.6336,0.75
51.6416,0.51
51.7104,0.41
51.7114,0.35
51.7124,0.22
51.7124,-0.0
51.7134,-0.22
51.7134,-0.35
51.7134,-0.41
51.7363,-0.51
51.7363,-0.75
51.7443,-1.1
51.7742,-1.36
51.7742,-1.3
51.7752,-0.8
51.8211,0.0
51.8221,0.81
51.8221,1.3
51.8221,1.36
51.8310,1.1
51.8330,0.75
51.8450,0.51
51.8660,0.41
51.8670,0.35
51.8729,0.22
51.8839,-0.0
51.8939,-0.22
51.9039,-0.35
51.9148,-0.41
51.9248,-0.51
51.9338,-0.75
51.9447,-1.1
51.9547,-1.36
51.9677,-1.3
51.9757,-0.8
51.9846,0.0
51.9956,0.81
52.0056,1.3
52.0155,1.36
52.0256,1.1
52.0356,0.75
52.0455,0.51
52.0557,0.41
52.0677,0.35
52.0787,0.22
52.0865,-0.0
52.0966,-0.22
52.1066,-0.35
52.1167,-0.41
52.1266,-0.51
52.1366,-0.75
52.1466,-1.1
52.1566,-1.36
52.1666,-1.3
52.1775,-0.8
52.1925,0.0
52.1975,0.81
52.2076,1.3
52.2176,1.36
52.2276,1.1
52.2375,0.75
52.2486,0.51
52.2576,0.41
52.2676,0.35
52.2776,0.22
52.2925,-0.0
52.2985,-0.22
52.3086,-0.35
52.3186,-0.41
52.3285,-0.51
52.3385,-0.75
52.3485,-1.1
52.3585,-1.36
52.3685,-1.3
52.3786,-0.8
52.3886,0.0
52.4045,0.81
52.4114,1.3
52.4194,1.36
52.4294,1.1
52.4394,0.75
52.4493,0.51
52.4593,0.41
52.4696,0.35
52.4796,0.22
52.4906,-0.0
52.5006,-0.22
52.5176,-0.35
52.5215,-0.41
52.5305,-0.51
52.5405,-0.75
52.5506,-1.1
52.5606,-1.36
52.5706,-1.3
52.5806,-0.8
52.5906,0.0
52.6006,0.81
52.6116,1.3
52.6315,1.36
52.6335,1.1
52.6416,0.75
52.6516,0.51
52.6616,0.41
52.6716,0.35
52.6816,0.22
52.6916,-0.0
52.7026,-0.22
52.7126,-0.35
52.7226,-0.41
52.8563,-0.51
52.8563,-0.75
52.8573,-1.1
52.8573,-1.36
52.8583,-1.3
52.8583,-0.8
52.8583,0.0
52.8583,0.81
52.8593,1.3
52.8593,1.36
52.8593,1.1
52.8593,0.75
52.8603,0.51
53.0298,0.41
53.0308,0.35
53.0308,0.22
53.0318,-0.0
53.0328,-0.22
53.0338,-0.35
53.0338,-0.41
53.0348,-0.51
53.0348,-0.75
53.0358,-1.1
53.0358,-1.36
53.0358,-1.3
53.0368,-0.8
53.0378,0.0
53.0378,0.81
53.0388,1.3
53.0628,1.36
53.0628,1.1
53.0638,0.75
53.0638,0.51
53.1705,0.41
53.1705,0.35
53.1844,0.22
53.1954,-0.0
53.2054,-0.22
53.2084,-0.35
53.2084,-0.41
53.2094,-0.51
53.2094,-0.75
53.2104,-1.1
53.2104,-1.36
53.2104,-1.3
53.2114,-0.8
53.2114,0.0
53.2124,0.81
53.2163,1.3
53.2273,1.36
53.2373,1.1
53.2473,0.75
53.2576,0.51
53.2735,0.41
53.2785,0.35
53.2875,0.22
53.2975,-0.0
53.3076,-0.22
53.3185,-0.35
53.3285,-0.41
53.3386,-0.51
53.3497,-0.75
53.3587,-1.1
53.3686,-1.36
53.3876,-1.3
53.3946,-0.8
53.3986,0.0
53.4085,0.81
53.4185,1.3
53.4295,1.36
53.4394,1.1
53.4494,0.75
53.4594,0.51
53.4694,0.41
53.4793,0.35
53.4943,0.22
53.5003,-0.0
53.5093,-0.22
53.5202,-0.35
53.5304,-0.41
53.5404,-0.51
53.5504,-0.75
53.5604,-1.1
53.5703,-1.36
53.5803,-1.3
53.5903,-0.8
53.6082,0.0
53.6182,0.81
53.6202,1.3
53.6312,1.36
53.6412,1.1
53.6515,0.75
53.6614,0.51
53.6714,0.41
53.6814,0.35
53.6914,0.22
53.7013,-0.0
53.7193,-0.22
53.7253,-0.35
53.7322,-0.41
53.7422,-0.51
53.7522,-0.75
53.7622,-1.1
53.7721,-1.36
53.7821,-1.3
53.7991,-0.8
53.8021,0.0
53.8140,0.81
53.8270,1.3
53.8350,1.36
53.8429,1.1
53.8529,0.75
53.8639,0.51
53.8739,0.41
53.8838,0.35
53.8938,0.22
53.9028,-0.0
53.9138,-0.22
53.9257,-0.35
53.9407,-0.41
53.9467,-0.51
53.9547,-0.75
53.9646,-1.1
53.9746,-1.36
53.9846,-1.3
53.9945,-0.8
54.0045,0.0
54.0145,0.81
54.0245,1.3
54.0354,1.36
54.0454,1.1
54.0574,0.75
54.0654,0.51
54.0823,0.41
54.0853,0.35
54.0953,0.22
54.1052,-0.0
54.1152,-0.22
54.1252,-0.35
54.1362,-0.41
54.1481,-0.51
54.1621,-0.75
54.1661,-1.1
54.1761,-1.36
54.1860,-1.3
54.1960,-0.8
54.2060,0.0
54.2159,0.81
54.2259,1.3
54.2369,1.36
54.2469,1.1
54.2638,0.75
54.2718,0.51
54.2778,0.41
54.2878,0.35
54.2977,0.22
54.3077,-0.0
54.3177,-0.22
54.3277,-0.35
54.3386,-0.41
54.3486,-0.51
54.3586,-0.75
54.3765,-1.1
54.3825,-1.36
54.3885,-1.3
54.3985,-0.8
54.4084,0.0
54.4184,0.81
54.4284,1.3
54.4394,1.36
54.4503,1.1
54.4593,0.75
54.4713,0.51
54.4822,0.41
54.4902,0.35
54.4992,0.22
54.5092,-0.0
54.5191,-0.22
54.5291,-0.35
54.5401,-0.41
54.5501,-0.51
54.5600,-0.75
54.5700,-1.1
54.5820,-1.36
54.6019,-1.3
54.6029,-0.8
54.6099,0.0
54.6209,0.81
54.6308,1.3
54.6398,1.36
54.6508,1.1
54.6608,0.75
54.6717,0.51
54.6817,0.41
54.6937,0.35
54.7036,0.22
54.7126,-0.0
54.7216,-0.22
54.7316,-0.35
54.7425,-0.41
54.7525,-0.51
54.7625,-0.75
54.7725,-1.1
54.7824,-1.36
54.7924,-1.3
54.8084,-0.8
54.8153,0.0
54.8223,0.81
54.8323,1.3
54.8423,1.36
54.8842,1.1
54.8842,0.75
54.8842,0.51
54.8852,0.41
54.8931,0.35
54.9031,0.22
54.9181,-0.0
54.9261,-0.22
54.9330,-0.35
54.9440,-0.41
54.9540,-0.51
54.9640,-0.75
54.9739,-1.1
54.9839,-1.36
54.9949,-1.3
55.0048,-0.8
55.0148,0.0
55.0268,0.81
55.0348,1.3
55.0447,1.36
55.0547,1.1
55.0657,0.75
55.0756,0.51
55.0856,0.41
55.0956,0.35
55.1056,0.22
55.1175,-0.0
55.1285,-0.22
55.1395,-0.35
55.1475,-0.41
55.1564,-0.51
55.1664,-0.75
55.1764,-1.1
55.1864,-1.36
55.1963,-1.3
55.2063,-0.8
55.2163,0.0
55.2262,0.81
55.2372,1.3
55.2592,1.36
55.2661,1.1
55.2691,0.75
55.2771,0.51
55.2871,0.41
55.2971,0.35
55.3070,0.22
55.3170,-0.0
55.3270,-0.22
55.3379,-0.35
55.3569,-0.41
55.3649,-0.51
55.3689,-0.75
55.3778,-1.1
55.3888,-1.36
55.3988,-1.3
55.4088,-0.8
55.4187,0.0
55.4287,0.81
55.4387,1.3
55.4487,1.36
55.4606,1.1
55.4746,0.75
55.4796,0.51
55.4895,0.41
55.4995,0.35
55.5095,0.22
55.5195,-0.0
55.5294,-0.22
55.5414,-0.35
55.5504,-0.41
55.5604,-0.51
55.5793,-0.75
55.5893,-1.1
55.5933,-1.36
55.6002,-1.3
55.6102,-0.8
55.6202,0.0
55.6302,0.81
55.6401,1.3
55.6501,1.36
55.6601,1.1
55.6711,0.75
55.6910,0.51
55.6950,0.41
55.7010,0.35
55.7110,0.22
55.7209,-0.0
55.7319,-0.22
55.7419,-0.35
55.7518,-0.41
55.7618,-0.51
55.7718,-0.75
55.7848,-1.1
55.7967,-1.36
55.8057,-1.3
55.8127,-0.8
55.8227,0.0
55.8326,0.81
55.9922,1.3
55.9922,1.36
55.9922,1.1
55.9932,0.75
55.9932,0.51
55.9942,0.41
55.9942,0.35
55.9952,0.22
55.9952,-0.0
55.9962,-0.22
55.9962,-0.35
55.9972,-0.41
55.9982,-0.51
55.9982,-0.75
55.9992,-1.1
56.0032,-1.36
56.0231,-1.3
56.0271,-0.8
56.0281,0.0
56.0341,0.81
56.0441,1.3
56.0540,1.36
56.0640,1.1
56.0750,0.75
56.0849,0.51
56.0949,0.41
56.1049,0.35
56.1179,0.22
56.1268,-0.0
56.1378,-0.22
56.1458,-0.35
56.1558,-0.41
56.1657,-0.51
56.1767,-0.75
56.1867,-1.1
56.1966,-1.36
56.2066,-1.3
56.2166,-0.8
56.2336,0.0
56.2405,0.81
56.2465,1.3
56.2575,1.36
56.2675,1.1
56.2774,0.75
56.2874,0.51
56.2974,0.41
56.3074,0.35
56.3173,0.22
56.3273,-0.0
56.3512,-0.22
56.3532,-0.35
56.3572,-0.41
56.3672,-0.51
56.3782,-0.75
56.3881,-1.1
56.3981,-1.36
56.4081,-1.3
56.4181,-0.8
56.4280,0.0
56.4380,0.81
56.4490,1.3
56.4599,1.36
56.4679,1.1
56.4789,0.75
56.4889,0.51
56.4988,0.41
56.5098,0.35
56.5188,0.22
56.5298,-0.0
56.5397,-0.22
56.5577,-0.35
56.5657,-0.41
56.5697,-0.51
56.5806,-0.75
56.5906,-1.1
56.6006,-1.36
56.6105,-1.3
56.6205,-0.8
56.6305,0.0
56.6415,0.81
56.6504,1.3
56.6684,1.36
56.6764,1.1
56.6804,0.75
56.6913,0.51
56.7013,0.41
56.7113,0.35
56.7212,0.22
56.7312,-0.0
56.7412,-0.22
56.7512,-0.35
56.7611,-0.41
56.7831,-0.51
56.7841,-0.75
56.7921,-1.1
56.8020,-1.36
56.8150,-1.3
56.8220,-0.8
56.8330,0.0
56.8419,0.81
56.8529,1.3
56.8619,1.36
56.8728,1.1
56.8828,0.75
56.8948,0.51
56.9038,0.41
56.9137,0.35
56.9237,0.22
56.9337,-0.0
56.9437,-0.22
56.9536,-0.35
56.9636,-0.41
56.9736,-0.51
56.9865,-0.75
56.9995,-1.1
57.0075,-1.36
57.0145,-1.3
57.0244,-0.8
57.0344,0.0
57.0444,0.81
57.0544,1.3
57.0643,1.36
57.0743,1.1
57.0843,0.75
57.0943,0.51
57.1082,0.41
57.1172,0.35
57.1252,0.22
57.1351,-0.0
57.1451,-0.22
57.1551,-0.35
57.1651,-0.41
57.1750,-0.51
57.1860,-0.75
57.1960,-1.1
57.2149,-1.36
57.2209,-1.3
57.2259,-0.8
57.2359,0.0
57.2468,0.81
57.2558,1.3
57.2668,1.36
57.2768,1.1
57.2867,0.75
57.2967,0.51
57.3067,0.41
57.3236,0.35
57.3326,0.22
57.3375,-0.0
57.3475,-0.22
57.3575,-0.35
57.3675,-0.41
57.3774,-0.51
57.3874,-0.75
57.3984,-1.1
57.4083,-1.36
57.4183,-1.3
57.4333,-0.8
57.4413,0.0
57.4482,0.81
57.4582,1.3
57.4682,1.36
57.4782,1.1
57.4881,0.75
57.4981,0.51
57.5091,0.41
57.5191,0.35
57.5290,0.22
57.5430,-0.0
57.5510,-0.22
57.5589,-0.35
57.5699,-0.41
57.5799,-0.51
57.5899,-0.75
57.5998,-1.1
57.6098,-1.36
57.6198,-1.3
57.6308,-0.8
57.6417,0.0
57.6517,0.81
57.6617,1.3
57.6706,1.36
57.6806,1.1
57.6906,0.75
57.7006,0.51
57.7115,0.41
57.7215,0.35
57.7315,0.22
57.7425,-0.0
57.7514,-0.22
57.7654,-0.35
57.7734,-0.41
57.7814,-0.51
57.7913,-0.75
57.8023,-1.1
57.8123,-1.36
57.8222,-1.3
57.8322,-0.8
57.8422,0.0
57.8522,0.81
57.8621,1.3
57.8761,1.36
57.8841,1.1
57.8921,0.75
57.9020,0.51
57.9130,0.41
57.9230,0.35
57.9329,0.22
57.9429,-0.0
57.9529,-0.22
57.9629,-0.35
57.9728,-0.41
57.9928,-0.51
57.9938,-0.75
58.0038,-1.1
58.0147,-1.36
58.0247,-1.3
58.0347,-0.8
58.0446,0.0
58.0546,0.81
58.0646,1.3
58.0746,1.36
58.0865,1.1
58.0975,0.75
58.1065,0.51
58.1145,0.41
58.1254,0.35
58.1354,0.22
58.1454,-0.0
58.1554,-0.22
58.1653,-0.35
58.1753,-0.41
58.1873,-0.51
58.1982,-0.75
58.2082,-1.1
