29.5574,1.5675
29.5643,1.4528
29.5653,1.438
29.5663,1.417
29.5673,1.3958
29.5683,1.4162
29.5693,1.5291
29.5693,1.5529
29.5693,1.6092
29.5703,1.7312
29.5703,1.7597
29.5743,1.7217
29.5743,1.5994
29.5743,1.5814
29.5753,1.4841
29.5821,1.4213
29.5826,1.3742
29.5826,1.41
29.5836,1.5942
29.5836,1.6799
29.5878,1.6951
29.5888,1.6382
29.5888,1.6714
29.5898,1.5936
29.5990,1.6786
29.6129,1.633
29.6170,1.6654
29.6170,1.4359
29.6179,1.4462
29.6179,1.3988
29.6189,1.3557
29.6189,1.4449
29.6199,1.4976
29.6199,1.549
29.6209,1.6626
29.6209,1.7014
29.6219,1.8441
29.6219,1.726
29.6229,1.6019
29.6229,1.6384
29.6240,1.6257
29.6240,1.4415
29.6249,1.366
29.6249,1.4423
29.6259,1.4648
29.6259,1.4363
29.6269,1.6401
29.6300,1.7211
29.6309,1.6986
29.6319,1.6546
29.6331,1.6604
29.6339,1.6461
29.6367,1.6064
29.6378,1.5235
29.6378,1.4579
29.6388,1.4594
29.6441,1.4408
29.6441,1.5162
29.6449,1.557
29.6449,1.6388
29.6459,1.6418
29.6499,1.7202
29.6509,1.684
29.6509,1.6748
29.6519,1.6354
29.6572,1.6399
29.6572,1.531
29.6582,1.4637
29.6582,1.4753
29.6593,1.3969
29.6636,1.3574
29.6646,1.3864
29.6656,1.5233
29.6656,1.5814
29.6666,1.7618
29.6706,1.8171
29.6716,1.8631
29.6716,1.8736
29.6726,1.7329
29.6778,1.545
29.6778,1.3643
29.6789,1.4018
29.6789,1.3129
29.6799,1.326
29.6841,1.4095
29.6851,1.4275
29.6851,1.4646
29.6861,1.504
29.6914,1.6032
29.6921,1.5719
29.6921,1.8064
29.6932,1.7826
29.6932,1.6692
29.6985,1.4931
29.6995,1.435
29.6998,1.4039
29.7005,1.4595
29.7061,1.5865
29.7205,1.6309
29.7235,1.5212
29.7235,1.4472
29.7245,1.4777
29.7245,1.6611
29.7255,1.7189
29.7255,1.5906
29.7265,1.615
29.7265,1.4097
29.7265,1.3082
29.7275,1.3304
29.7285,1.5372
29.7285,1.5396
29.7295,1.5769
29.7295,1.5959
29.7295,1.6844
29.7305,1.7481
29.7305,1.7455
29.7316,1.7577
29.7325,1.8818
29.7325,1.8721
29.7335,1.8349
29.7389,1.7423
29.7389,1.5317
29.7400,1.5192
29.7400,1.4736
29.7409,1.489
29.7455,1.4965
29.7465,1.5803
29.7465,1.705
29.7465,1.8447
29.7527,1.7802
29.7527,1.7552
29.7536,1.7991
29.7536,1.7119
29.7546,1.6275
29.7589,1.5152
29.7601,1.4078
29.7609,1.4243
29.7609,1.3463
29.7619,1.3172
29.7659,1.2945
29.7669,1.4382
29.7679,1.4153
29.7689,1.5214
29.7730,1.6215
29.7739,1.6724
29.7739,1.6165
29.7749,1.4999
29.7749,1.5419
29.7799,1.5124
29.7799,1.6377
29.7811,1.6379
29.7826,1.5443
29.7858,1.5917
29.7878,1.5882
29.7882,1.8171
29.7888,1.9321
29.7896,1.8451
29.7928,1.7543
29.7928,1.4502
29.7938,1.341
29.7948,1.2726
29.7998,1.2683
29.8005,1.4408
29.8005,1.3834
29.8014,1.3562
29.8014,1.5417
29.8062,1.588
29.8072,1.72
29.8072,1.8329
29.8072,1.8047
29.8082,1.8179
29.8291,1.7586
29.8291,1.6467
29.8331,1.5036
29.8331,1.4228
29.8341,1.3272
29.8341,1.3309
29.8351,1.3859
29.8351,1.416
29.8361,1.4804
29.8361,1.5089
29.8361,1.617
29.8371,1.7012
29.8371,1.7367
29.8381,1.7037
29.8381,1.6495
29.8391,1.5929
29.8391,1.5524
29.8401,1.2979
29.8403,1.3313
29.8411,1.3797
29.8411,1.2758
29.8411,1.2584
29.8473,1.3611
29.8483,1.4459
29.8494,1.6212
29.8503,1.8344
29.8503,1.9559
29.8539,1.9217
29.8544,1.8173
29.8544,1.7089
29.8555,1.7022
29.8565,1.7069
29.8605,1.63
29.8615,1.5634
29.8615,1.5083
29.8625,1.8848
29.8679,1.8017
29.8687,1.7087
29.8687,1.6984
29.8697,1.9152
29.8697,2.0007
29.8741,2.1936
29.8750,2.2197
29.8750,1.9737
29.8760,1.8692
29.8819,1.7704
29.8823,1.6062
29.8823,1.3365
29.8833,1.3317
29.8833,1.3729
29.8876,1.5392
29.8887,1.6039
29.8887,1.6844
29.8898,1.6778
29.8952,1.7097
29.8957,1.6206
29.8957,1.5726
29.8968,1.4534
29.8968,1.2782
29.9009,1.2902
29.9017,1.2606
29.9017,1.4541
29.9027,1.9384
29.9027,1.8169
29.9087,1.8301
29.9087,1.7665
29.9097,1.6489
29.9097,1.5887
29.9158,1.7204
29.9158,1.6544
29.9168,1.5692
29.9168,1.3922
29.9168,1.3169
29.9287,1.267
29.9397,1.2578
29.9427,1.318
29.9427,1.488
29.9437,1.8413
29.9437,1.8362
29.9447,1.7987
29.9447,1.7348
29.9457,1.5458
29.9457,1.4777
29.9457,1.5426
29.9466,1.4279
29.9466,1.3722
29.9476,1.5445
29.9486,1.4545
29.9486,1.4554
29.9496,1.5477
29.9496,1.6435
29.9506,1.6101
29.9506,1.6017
29.9516,1.7528
29.9518,1.5739
29.9526,1.7187
29.9556,1.9898
29.9556,1.9651
29.9566,1.7697
29.9566,1.5042
29.9630,1.3626
29.9630,1.4976
29.9639,1.5467
29.9648,1.539
29.9659,1.6441
29.9688,1.8259
29.9699,1.978
29.9708,1.8327
29.9708,1.8329
29.9764,1.861
29.9772,1.7155
29.9772,1.6737
29.9784,1.5465
29.9784,1.4678
29.9822,1.5224
29.9832,1.5282
29.9832,1.6289
29.9843,1.7573
29.9898,1.8066
29.9898,1.7099
29.9907,1.576
29.9917,1.6789
29.9917,1.7858
29.9963,1.618
29.9963,1.5535
29.9976,1.6396
29.9983,1.6347
29.9997,1.5497
30.0033,1.5458
30.0033,1.4453
30.0043,1.4393
30.0043,1.5734
30.0106,1.5966
30.0115,1.5627
30.0115,1.6384
30.0115,1.699
30.0126,1.7507
30.0167,1.7266
30.0217,1.7582
30.0217,1.5087
30.0227,1.4434
30.0237,1.4475
30.0237,1.8407
30.0246,1.8098
30.0246,1.6416
30.0256,1.6621
30.0300,1.7849
30.0310,1.7356
30.0310,1.8398
30.0323,2.0138
30.0509,2.0299
30.0509,1.8332
30.0539,1.6864
30.0551,1.4597
30.0551,1.2927
30.0559,1.4434
30.0559,1.9396
30.0569,1.7862
30.0569,1.9096
30.0579,2.107
30.0579,2.0864
30.0589,1.9632
30.0589,1.8919
30.0599,1.8331
30.0609,1.6281
30.0619,1.6645
30.0619,1.6071
30.0629,1.6574
30.0629,1.611
30.0639,1.4862
30.0649,1.6244
30.0659,1.6598
30.0659,1.7256
30.0713,1.6859
30.0719,1.9054
30.0719,1.8749
30.0730,1.8272
30.0730,1.6795
30.0769,1.6735
30.0780,1.7247
30.0780,1.7071
30.0790,1.6917
30.0845,1.5818
30.0850,1.6444
30.0850,1.7753
30.0860,1.8137
30.0860,1.9178
30.0907,1.9716
30.0907,1.9937
30.0917,2.0127
30.0917,1.891
30.0927,1.8852
30.0987,1.8021
30.0997,1.6369
30.0997,1.6017
30.1007,1.4147
30.1050,1.4905
30.1050,1.5972
30.1060,1.6332
30.1060,2.0211
30.1070,2.0359
30.1120,2.0427
30.1120,2.0838
30.1130,1.9527
30.1130,1.9367
30.1186,1.8359
30.1186,1.7716
30.1197,1.488
30.1197,1.5477
30.1209,1.6772
30.1246,1.7427
30.1259,1.6564
30.1259,1.606
30.1266,1.5584
30.1313,1.6921
30.1320,1.7794
30.1330,1.9
30.1330,1.723
30.1342,1.6561
30.1411,1.6022
30.1547,1.5824
30.1570,1.5276
30.1580,1.5197
30.1587,1.6242
30.1590,1.6347
30.1590,1.4794
30.1600,1.6707
30.1600,1.7316
30.1610,1.7734
30.1610,1.8467
30.1610,1.7837
30.1620,1.7228
30.1620,1.6525
30.1630,1.5779
30.1630,1.5439
30.1640,1.5413
30.1640,1.4481
30.1660,1.4637
30.1660,1.5297
30.1660,1.6832
30.1670,1.7104
30.1670,1.4875
30.1719,1.5107
30.1730,1.6202
30.1730,1.6289
30.1739,1.7858
30.1789,1.8079
30.1799,1.7477
30.1799,1.7543
30.1809,1.3028
30.1809,1.4325
30.1855,1.4657
30.1864,1.6592
30.1864,1.7267
30.1864,1.8706
30.1874,1.8946
30.1924,1.8119
30.1934,1.7444
30.1934,1.8016
30.1934,1.623
30.1998,1.4391
30.2005,1.3658
30.2005,1.4174
30.2015,1.5336
30.2015,1.5441
30.2065,1.5632
30.2065,1.6255
30.2075,1.822
30.2075,1.6772
30.2132,1.6786
30.2132,1.723
30.2143,1.7162
30.2143,1.7087
30.2156,1.6579
30.2194,1.6437
30.2202,1.5803
30.2212,1.6095
30.2212,1.5906
30.2262,1.6343
30.2272,1.5233
30.2282,1.375
30.2282,1.326
30.2282,1.2565
30.2332,1.5362
30.2332,1.5135
30.2342,1.6525
30.2382,1.6606
30.2392,1.7086
30.2401,1.7744
30.2401,1.8784
30.2412,1.9454
30.2412,1.7912
30.2524,1.8136
30.2654,1.9412
30.2684,1.8972
30.2693,1.7929
30.2693,1.6418
30.2703,1.5917
30.2703,1.6426
30.2713,1.6024
30.2713,1.5765
30.2723,1.5385
30.2723,1.3887
30.2723,1.4397
30.2733,1.3583
30.2743,1.389
30.2743,1.8571
30.2743,1.9487
30.2753,1.8076
30.2753,1.9006
30.2763,1.8186
30.2763,1.867
30.2773,1.8137
30.2773,1.8259
30.2783,1.5675
30.2802,1.5038
30.2812,1.57
30.2812,1.5645
30.2822,1.4522
30.2822,1.41
30.2872,1.3697
30.2872,1.2642
30.2882,1.3335
30.2882,1.5214
30.2946,1.702
30.2955,1.9234
30.2955,1.9673
30.2955,1.9285
30.2967,1.8893
30.3009,1.7108
30.3009,1.588
30.3021,1.5932
30.3021,1.6731
30.3078,1.581
30.3078,1.6197
30.3089,1.6223
30.3089,1.5801
30.3098,1.7884
30.3143,1.4991
30.3154,1.2936
30.3154,1.4764
30.3163,1.6876
30.3229,1.8767
30.3240,2.2083
30.3240,2.1357
30.3250,1.9735
30.3250,1.6786
30.3295,1.608
30.3295,1.6844
30.3306,1.6621
30.3306,1.8582
30.3315,1.7678
30.3358,1.7209
30.3368,1.6613
30.3368,1.4899
30.3378,1.3825
30.3437,1.5505
30.3437,1.4937
30.3447,1.4775
30.3447,1.5546
30.3460,1.6212
30.3498,1.8413
30.3508,1.8803
30.3508,1.9176
30.3518,1.7905
30.3585,1.7781
30.3702,1.7522
30.3742,1.6885
30.3772,1.6658
30.3772,1.5917
30.3782,1.6427
30.3782,1.6716
30.3795,1.614
30.3795,1.7312
30.3805,1.6907
30.3805,1.6437
30.3815,1.63
30.3825,1.5539
30.3825,1.5585
30.3825,1.5992
30.3839,1.5945
30.3839,1.5702
30.3847,1.588
30.3847,1.5377
30.3855,1.717
30.3855,1.7819
30.3865,1.7082
30.3865,1.7406
30.3910,1.7142
30.3910,1.515
30.3921,1.449
30.3921,1.6459
30.3931,1.6215
30.3973,1.6124
30.3982,1.7929
30.3997,2.0659
30.4003,1.9654
30.4046,1.7264
30.4046,1.6184
30.4056,1.6
30.4056,1.5582
30.4068,1.6364
30.4109,1.5141
30.4121,1.7785
30.4122,2.1668
30.4122,2.0404
30.4181,1.9786
30.4181,1.9103
30.4190,1.9007
30.4190,1.8137
30.4200,1.6401
30.4243,1.6193
30.4254,1.6832
30.4254,1.6411
30.4264,1.6097
30.4264,1.6471
30.4316,1.7155
30.4316,1.645
30.4326,1.8272
30.4326,1.8102
30.4385,1.7134
30.4398,1.7074
30.4398,1.6962
30.4408,1.7517
30.4408,1.7472
30.4447,1.6816
30.4457,1.5563
30.4467,1.4982
30.4477,1.5439
30.4520,1.6484
30.4530,1.6697
30.4530,1.7907
30.4540,1.7614
30.4540,1.6283
30.4583,1.6067
30.4583,1.5846
30.4593,1.4528
30.4603,1.5501
30.4657,1.6367
30.4849,1.7468
30.4879,1.7989
30.4879,1.7299
30.4889,1.585
30.4889,1.4734
30.4899,1.4217
30.4899,1.4307
30.4911,1.3394
30.4921,1.4931
30.4921,1.6037
30.4932,1.7438
30.4932,1.8544
30.4932,1.8632
30.4942,1.6262
30.4942,1.7037
30.4952,1.7695
30.4962,1.8481
30.4964,1.6527
30.4964,1.5154
30.4974,1.4642
30.4974,1.3364
30.4989,1.4691
30.4994,1.6125
30.4994,1.8109
30.5004,2.0179
30.5004,1.9317
30.5004,1.8601
30.5057,1.6694
30.5069,1.6572
30.5069,1.7851
30.5079,1.7147
30.5129,1.7243
30.5129,1.762
30.5140,1.8396
30.5140,1.603
30.5149,1.5582
30.5194,1.4256
30.5194,1.5066
30.5204,1.4826
30.5204,1.62
30.5213,1.6223
30.5266,1.6707
30.5267,1.6457
30.5276,1.753
30.5276,1.8289
30.5334,1.8835
30.5334,1.9274
30.5345,1.7991
30.5345,2.0215
30.5357,2.2898
30.5397,2.5081
30.5410,2.0763
30.5410,1.6142
30.5410,1.5218
30.5467,1.6606
30.5467,1.6787
30.5478,1.6497
30.5478,1.6553
30.5487,1.6345
30.5531,1.7792
30.5542,2.0491
30.5542,2.0159
30.5552,1.8827
30.5595,1.7834
30.5605,1.6838
30.5615,1.6808
30.5615,1.6197
30.5615,1.5259
30.5667,1.5015
30.5667,1.5458
30.5676,1.6911
30.5676,1.6294
30.5686,1.6296
30.6002,1.7241
30.6042,1.7198
30.6042,1.6958
30.6052,1.7498
30.6052,1.6489
30.6062,1.5987
30.6062,1.6412
30.6072,1.6212
30.6072,1.5794
30.6082,1.5801
30.6082,1.6577
30.6092,1.7341
30.6104,1.7539
30.6104,1.7091
30.6114,1.6851
30.6114,1.7811
30.6124,1.7852
30.6134,1.7074
30.6134,1.6478
30.6147,1.7309
30.6154,1.6433
30.6166,1.6275
30.6166,1.6964
30.6177,1.56
30.6177,1.6497
30.6177,1.6604
30.6187,1.7826
30.6197,1.7406
30.6197,1.5595
30.6197,1.5244
30.6207,1.7129
30.6207,1.6705
30.6218,1.6367
30.6218,1.6414
30.6218,1.7431
30.6229,1.6127
30.6286,1.6514
30.6286,1.726
30.6296,1.8827
30.6296,1.9022
30.6306,1.7483
30.6344,1.7161
30.6352,1.7847
30.6352,1.4884
30.6362,1.3199
30.6418,1.2692
30.6418,1.5012
30.6429,1.9178
30.6429,1.9052
30.6441,1.7858
30.6479,1.7978
30.6489,1.8974
30.6489,1.9214
30.6502,1.9022
30.6556,1.7159
30.6556,1.7665
30.6566,1.8756
30.6566,1.8481
30.6576,1.687
30.6610,1.7506
30.6621,1.7549
30.6621,1.591
30.6631,1.6127
30.6631,1.6
30.6684,1.6714
30.6684,1.7826
30.6694,1.7682
30.6694,1.7209
30.6757,1.6429
30.6757,1.7168
30.6770,1.7183
30.6770,1.6574
30.6781,1.6551
30.6825,1.732
30.6825,1.7907
30.6833,1.9157
30.6833,1.7764
30.6891,1.7061
30.6891,1.657
30.6901,1.7301
30.6901,1.7416
30.6911,1.7215
30.6953,1.7087
30.6963,1.7372
30.6963,1.7029
30.6973,1.6457
30.7033,1.7279
30.7158,1.8136
30.7188,1.6307
30.7198,1.596
30.7198,1.8034
30.7208,1.7121
30.7208,1.8437
30.7221,1.9047
30.7221,1.9167
30.7231,1.9225
30.7231,1.7817
30.7241,1.6403
30.7241,1.5115
30.7241,1.546
30.7251,1.6015
30.7251,1.8042
30.7261,1.6921
30.7261,1.8818
30.7272,1.9684
30.7294,2.0181
30.7303,2.0166
30.7303,1.9626
30.7312,1.9641
30.7364,2.0628
30.7364,1.9431
30.7375,1.6422
30.7375,1.6982
30.7385,1.6039
30.7425,1.4331
30.7435,1.3686
30.7435,1.5627
30.7445,1.8812
30.7496,2.0134
30.7496,1.9816
30.7507,1.9414
30.7507,1.9247
30.7517,2.0258
30.7561,1.9536
30.7572,1.8923
30.7572,1.8518
30.7572,1.8771
30.7582,1.9786
30.7634,1.9066
30.7634,1.7901
30.7644,1.4759
30.7644,1.4412
30.7703,1.4318
30.7703,1.7946
30.7714,2.0404
30.7714,1.9891
30.7724,2.0367
30.7767,2.0271
30.7776,2.0637
30.7776,1.9131
30.7786,1.8554
30.7838,1.7444
30.7838,1.8098
30.7849,1.8522
30.7849,1.8932
30.7861,1.87
30.7901,1.7712
30.7916,1.9885
30.7916,1.9911
30.7922,1.6782
30.7971,1.5779
30.7971,1.5902
30.7981,1.633
30.7981,1.6015
30.7991,1.6386
30.8036,1.6159
30.8036,1.6088
30.8046,1.5357
30.8046,1.6514
30.8056,1.7944
30.8254,1.8715
30.8298,1.8743
30.8301,1.9369
30.8312,1.9913
30.8312,1.8702
30.8320,1.8552
30.8320,1.6831
30.8330,1.5218
30.8330,1.4421
30.8340,1.3174
30.8340,1.282
30.8350,1.4714
30.8350,1.6456
30.8360,1.7455
30.8360,1.8355
30.8371,1.8467
30.8372,1.9094
30.8372,1.9784
30.8382,2.0144
30.8382,1.8473
30.8392,1.7161
30.8392,1.6411
30.8445,1.6266
30.8445,1.5711
30.8456,1.54
30.8456,1.3549
30.8466,1.3082
30.8507,1.6129
30.8516,1.6125
30.8516,1.7029
30.8526,1.7416
30.8526,1.8287
30.8578,1.8316
30.8578,1.7496
30.8588,1.6388
30.8588,1.6167
30.8654,1.5349
30.8660,1.5938
30.8660,1.7774
30.8670,1.7622
30.8670,1.8141
30.8713,1.8237
30.8724,1.5979
30.8724,1.4642
30.8733,1.3459
30.8785,1.4241
30.8785,1.4207
30.8796,1.4294
30.8796,1.4888
30.8806,1.7552
30.8850,1.7063
30.8850,1.7386
30.8860,1.8272
30.8860,1.8861
30.8916,1.9662
30.8926,1.9791
30.8929,1.9677
30.8929,1.9401
30.8939,1.93
30.8982,1.7264
30.8982,1.5585
30.8992,1.4421
30.8992,1.4082
30.9002,1.575
30.9054,1.6474
30.9054,1.6982
30.9064,1.7322
30.9064,1.8139
30.9173,1.885
30.9298,1.963
30.9340,1.9836
30.9340,1.9223
30.9348,1.7725
30.9348,1.5548
30.9358,1.4378
30.9358,1.4502
30.9369,1.5807
30.9370,1.5679
30.9370,1.5792
30.9381,1.6418
30.9381,1.6427
30.9391,1.6142
30.9391,1.5539
30.9391,1.5334
30.9401,1.771
30.9401,1.6032
30.9411,1.5788
30.9411,1.4526
30.9422,1.5267
30.9422,1.6951
30.9422,1.9156
30.9456,2.0794
30.9462,1.8844
30.9472,1.5927
30.9492,1.5542
30.9496,1.4535
30.9527,1.6182
30.9532,1.8066
30.9532,1.7759
30.9542,1.7387
30.9599,1.7005
30.9602,1.522
30.9602,1.534
30.9612,1.6452
30.9612,1.5576
30.9665,1.5321
30.9665,1.5017
30.9675,1.7419
30.9675,1.8578
30.9738,1.9499
30.9739,1.9105
30.9739,1.8512
30.9749,1.8121
30.9749,1.8561
30.9796,1.6907
30.9805,1.6561
30.9817,1.7067
30.9817,1.6857
30.9867,1.6746
30.9867,1.7331
30.9877,1.6939
30.9877,1.7082
30.9887,1.7641
30.9929,1.7084
30.9940,1.6426
30.9940,1.639
30.9940,1.7496
30.9950,1.7166
31.0002,1.6335
31.0002,1.611
31.0012,1.6576
31.0012,1.7487
31.0077,1.8464
31.0077,1.6371
31.0087,1.6157
31.0087,1.6354
31.0097,1.7389
31.0177,1.9124
31.0311,1.7687
31.0341,1.6555
31.0341,1.6304
31.0351,1.5044
31.0351,1.5169
31.0364,1.5173
31.0364,1.6418
31.0374,1.7305
31.0374,1.7404
31.0384,1.6591
31.0384,1.6855
31.0384,1.6412
31.0394,1.7221
31.0394,1.7401
31.0404,1.729
31.0404,1.6285
31.0414,1.6015
31.0414,1.5467
31.0424,1.6369
31.0426,1.6377
31.0426,1.6176
31.0436,1.6185
31.0476,1.7667
31.0476,1.8235
31.0488,1.8036
31.0496,1.7856
31.0563,1.8942
31.0563,1.8121
31.0574,1.7164
31.0574,1.6328
31.0583,1.5788
31.0633,1.6647
31.0633,1.6294
31.0645,1.6221
31.0654,1.7189
31.0698,1.7414
31.0702,1.6979
31.0713,1.7258
31.0713,1.7269
31.0713,1.7264
31.0759,1.7146
31.0768,1.6335
31.0778,1.5972
31.0788,1.5846
31.0833,1.6236
31.0838,1.6759
31.0838,1.6756
31.0838,1.7022
31.0848,1.7275
31.0898,1.6514
31.0908,1.6876
31.0918,1.6982
31.0928,1.6846
31.0940,1.6866
31.0971,1.6894
31.0971,1.7386
31.0978,1.7067
31.0981,1.6356
31.1033,1.5816
31.1050,1.6859
31.1055,1.8126
31.1065,1.8844
31.1075,1.8599
31.1105,1.9141
31.1105,1.8374
31.1115,1.8263
31.1115,1.8205
31.1168,1.7547
31.1178,1.605
31.1178,1.5897
31.1188,1.5366
31.1188,1.5139
31.1283,1.6002
31.1445,1.7266
31.1483,1.7957
31.1493,1.8593
31.1493,1.855
31.1493,1.7693
31.1505,1.7779
31.1515,1.7753
31.1525,1.8632
31.1535,1.6427
31.1535,1.6634
31.1545,1.6748
31.1545,1.7264
31.1555,1.6894
31.1555,1.6304
31.1566,1.6688
31.1576,1.7063
31.1576,1.6182
31.1586,1.7337
31.1586,1.8128
31.1586,1.7417
31.1596,1.7849
31.1596,1.798
31.1606,1.7701
31.1606,1.753
31.1616,1.7476
31.1616,1.7635
31.1648,1.7209
31.1658,1.5589
31.1667,1.4245
31.1667,1.389
31.1677,1.4659
31.1710,1.6289
31.1710,1.6341
31.1720,1.6478
31.1720,1.8726
31.1772,1.7245
31.1782,1.708
31.1792,1.5677
31.1792,1.4712
31.1792,1.3506
31.1844,1.4556
31.1856,1.6827
31.1867,1.7402
31.1867,1.7813
31.1876,1.8919
31.1917,1.9137
31.1917,1.8539
31.1928,1.8526
31.1928,1.7656
31.1989,1.5619
31.1989,1.4577
31.1989,1.5325
31.1998,1.5734
31.1998,1.6637
31.2048,1.6339
31.2048,1.6834
31.2058,1.6326
31.2058,1.5981
31.2119,1.6602
31.2119,1.8128
31.2129,1.7209
31.2129,1.6457
31.2129,1.5972
31.2189,1.6259
31.2189,1.5006
31.2199,1.6516
31.2199,1.6804
31.2251,1.7301
31.2260,1.6004
31.2260,1.551
31.2260,1.5464
31.2270,1.5222
31.2341,1.5803
31.2423,1.6317
31.2493,1.7543
31.2493,1.7815
31.2493,1.7672
31.2493,1.807
31.2503,1.7509
31.2503,1.8081
31.2503,1.7939
31.2513,1.8992
31.2513,1.9487
31.2513,1.9814
31.2513,2.0524
31.2523,2.0883
31.2528,2.1724
31.2533,2.2398
31.2533,2.1698
31.2533,2.0903
31.2600,2.0024
31.2605,1.9632
31.2605,1.9853
31.2605,1.9549
31.2616,1.7821
31.2664,1.5897
31.2664,1.6362
31.2664,1.7712
31.2675,1.804
31.2736,1.7712
31.2736,1.7213
31.2736,1.6819
31.2746,1.6547
31.2746,1.6442
31.2798,1.7536
31.2798,1.6397
31.2798,1.606
31.2809,1.5486
31.2809,1.7041
31.2868,1.7292
31.2868,1.7119
31.2878,1.7147
31.2878,1.6994
31.2942,1.7341
31.2942,1.7337
31.2942,1.7462
31.2952,1.7579
31.2952,1.5917
31.3005,1.5428
31.3012,1.5413
31.3012,1.6416
31.3023,1.5717
31.3077,1.5627
31.3085,1.7279
31.3085,1.7183
31.3095,1.6977
31.3095,1.7134
31.3137,1.6561
31.3148,1.6671
31.3148,1.759
31.3158,1.7421
31.3212,1.6557
31.3219,1.7247
31.3219,1.6896
31.3229,1.7761
31.3229,1.7429
31.3272,1.7217
31.3282,1.7886
31.3282,1.6379
31.3292,1.7076
31.3292,1.7282
31.3342,1.6435
31.3352,1.7333
31.3352,1.7382
31.3362,1.6928
31.3422,1.6921
31.3571,1.5919
31.3581,1.4588
31.3601,1.4282
31.3612,1.6962
31.3612,1.8533
31.3622,1.8136
31.3622,1.7757
31.3632,1.7346
31.3632,1.7869
31.3641,1.7457
31.3641,1.7905
31.3653,1.7731
31.3653,1.7798
31.3661,1.7965
31.3661,1.735
31.3671,1.6817
31.3671,1.7097
31.3687,1.6926
31.3691,1.7211
31.3691,1.7356
31.3701,1.7899
31.3711,1.8614
31.3749,1.7828
31.3759,1.7273
31.3759,1.6394
31.3759,1.605
31.3769,1.6499
31.3829,1.6379
31.3829,1.7815
31.3839,1.78
31.3839,1.7022
31.3892,1.7759
31.3902,1.7476
31.3905,1.8091
31.3905,1.7828
31.3915,1.7661
31.3959,1.8749
31.3969,1.7069
31.3969,1.6598
31.3979,1.7024
31.4026,1.5929
31.4035,1.5794
31.4035,1.5235
31.4045,1.6739
31.4045,1.5578
31.4091,1.6244
31.4101,1.7018
31.4101,1.6937
31.4101,1.8023
31.4160,1.9514
31.4160,1.8646
31.4170,1.9152
31.4170,1.8462
31.4191,1.8586
31.4226,1.8012
31.4237,1.7965
31.4237,1.6834
31.4247,1.635
31.4249,1.6279
31.4289,1.6433
31.4301,1.7858
31.4301,1.8664
31.4311,1.7791
31.4368,1.7123
31.4368,1.7612
31.4378,1.6399
31.4378,1.5527
31.4388,1.5897
31.4431,1.6489
31.4442,1.8031
31.4442,1.8434
31.4452,1.8278
31.4549,1.8227
31.4753,1.9157
31.4792,1.9802
31.4797,1.9247
31.4802,1.8779
31.4802,1.8396
31.4821,1.7774
31.4822,1.6975
31.4832,1.7843
31.4832,1.7736
31.4845,1.6463
31.4845,1.6574
31.4855,1.7811
31.4855,1.8362
31.4865,1.8876
31.4865,1.8931
31.4865,1.8902
31.4875,1.9388
31.4875,1.9405
31.4885,1.8987
31.4885,1.8921
31.4895,1.879
31.4895,1.8891
31.4907,1.8091
31.4907,1.8184
31.4917,1.8004
31.4917,1.6851
31.4917,1.6919
31.4927,1.7854
31.4927,1.906
31.4937,1.8387
31.4937,1.975
31.4979,1.9622
31.4987,1.9225
31.4997,1.7011
31.4997,1.6795
31.5007,1.7427
31.5037,1.7768
31.5048,1.7562
31.5048,1.771
31.5048,1.7993
31.5107,1.6195
31.5111,1.636
31.5121,1.7307
31.5121,1.768
31.5131,1.8376
31.5174,1.7796
31.5184,1.7106
31.5184,1.6846
31.5194,1.7567
31.5206,1.7305
31.5245,1.7513
31.5256,1.7245
31.5267,1.7519
31.5275,1.7192
31.5315,1.681
31.5315,1.7273
31.5327,1.7009
31.5337,1.6534
31.5337,1.5981
31.5377,1.5784
31.5389,1.6013
31.5399,1.7114
31.5399,1.8809
31.5450,1.8332
31.5451,1.6696
31.5461,1.5668
31.5471,1.623
31.5481,1.7382
31.5515,1.7434
31.5515,1.8077
31.5526,1.7119
31.5526,1.6874
31.5584,1.6634
31.5592,1.6532
31.5592,1.6088
31.5592,1.6208
31.5602,1.7607
31.5644,1.7314
31.5655,1.6654
31.5655,1.714
31.5655,1.7792
31.5665,1.7901
31.5717,1.7164
31.5717,1.7732
31.5730,1.7629
31.5807,1.7296
31.5926,1.6994
31.5961,1.6551
31.5961,1.5857
31.5972,1.5473
31.5973,1.6159
31.5983,1.6418
31.5986,1.629
31.5993,1.6677
31.5993,1.6866
31.6003,1.7251
31.6003,1.7802
31.6013,1.6994
31.6013,1.7134
31.6013,1.7536
31.6023,1.6709
31.6023,1.6071
31.6036,1.621
31.6036,1.6594
31.6058,1.6236
31.6058,1.5679
31.6067,1.6516
31.6067,1.6047
31.6077,1.5218
31.6121,1.7236
31.6132,1.8396
31.6132,1.8445
31.6132,1.7069
31.6142,1.7481
31.6191,1.6442
31.6191,1.6832
31.6204,1.5923
31.6204,1.6587
31.6259,1.6523
31.6270,1.6964
31.6270,1.7183
31.6279,1.7074
31.6279,1.7226
31.6328,1.6559
31.6338,1.7161
31.6338,1.6564
31.6338,1.6861
31.6397,1.6167
31.6397,1.5953
31.6408,1.6212
31.6408,1.6109
31.6418,1.7837
31.6462,1.6034
31.6472,1.5889
31.6472,1.5854
31.6482,1.7888
31.6535,1.9169
31.6536,1.8194
31.6547,1.8145
31.6547,1.726
31.6547,1.6982
31.6592,1.6872
31.6602,1.6924
31.6602,1.5687
31.6612,1.5319
31.6612,1.5297
31.6665,1.5887
31.6674,1.7421
31.6674,1.7867
31.6684,1.7946
31.6737,1.8477
31.6737,1.8565
31.6748,1.7864
31.6748,1.6966
31.6758,1.6975
31.6801,1.6709
31.6811,1.6249
31.6811,1.6416
31.6824,1.7149
31.6987,1.6889
31.7009,1.7177
31.7037,1.7267
31.7037,1.7016
31.7047,1.6446
31.7047,1.7762
31.7059,1.8467
31.7059,1.6981
31.7070,1.6847
31.7070,1.6999
31.7070,1.6073
31.7080,1.5874
31.7080,1.6825
31.7090,1.7596
31.7090,1.5955
31.7100,1.6906
31.7100,1.7702
31.7100,1.7781
31.7112,1.7757
31.7138,1.7179
31.7142,1.7609
31.7152,1.6778
31.7152,1.6247
31.7212,1.6519
31.7212,1.6859
31.7223,1.6857
31.7223,1.6403
31.7234,1.6004
31.7275,1.5992
31.7288,1.5919
31.7288,1.5424
31.7295,1.7031
31.7346,1.6975
31.7346,1.6782
31.7357,1.6791
31.7357,1.768
31.7366,1.7783
31.7411,1.6771
31.7411,1.7072
31.7421,1.6795
31.7421,1.6673
31.7477,1.6178
31.7487,1.6461
31.7487,1.6274
31.7487,1.672
31.7497,1.8287
31.7543,1.879
31.7554,1.87
31.7554,1.675
31.7554,1.7581
31.7566,1.7425
31.7616,1.7639
31.7618,1.7091
31.7618,1.7117
31.7628,1.699
31.7685,1.69
31.7693,1.579
31.7693,1.6954
31.7703,1.7789
31.7703,1.8182
31.7748,1.7974
31.7758,1.7656
31.7758,1.6894
31.7768,1.6919
31.7837,1.591
31.7837,1.5771
31.7848,1.5681
31.7848,1.59
31.7857,1.606
31.7902,1.7417
31.7912,1.7266
31.7912,1.765
31.7922,1.879
31.7975,1.8437
31.7975,1.8385
31.7985,1.7427
31.7985,1.6921
31.7995,1.633
31.8036,1.6945
31.8046,1.7138
31.8046,1.6561
31.8046,1.6591
31.8108,1.5276
31.8248,1.7132
31.8271,1.5882
31.8281,1.6709
31.8281,1.8047
31.8294,1.708
31.8294,1.6551
31.8304,1.6322
31.8304,1.6937
31.8314,1.627
31.8319,1.6956
31.8324,1.7012
31.8324,1.7236
31.8334,1.7232
31.8334,1.7697
31.8344,1.7271
31.8344,1.6523
31.8355,1.7717
31.8356,1.9054
31.8376,1.8154
31.8387,1.6881
31.8387,1.7005
31.8396,1.6542
31.8448,1.6007
31.8448,1.5072
31.8458,1.5593
31.8458,1.6392
31.8470,1.8518
31.8511,1.9234
31.8523,1.8782
31.8523,1.7054
31.8533,1.8091
31.8533,1.6613
31.8575,1.6754
31.8586,1.699
31.8586,1.6827
31.8596,1.6077
31.8655,1.593
31.8665,1.6561
31.8665,1.7087
31.8665,1.7635
31.8677,1.7884
31.8717,1.8188
31.8728,1.7459
31.8728,1.7297
31.8738,1.7854
31.8789,1.8824
31.8789,1.7978
31.8799,1.7963
31.8799,1.7948
31.8812,1.6064
31.8853,1.6729
31.8864,1.7477
31.8864,1.7387
31.8864,1.696
31.8920,1.624
31.8930,1.8152
31.8930,1.8824
31.8930,1.8239
31.8940,1.7841
31.8985,1.891
31.8995,1.8704
31.8995,1.629
31.9004,1.5119
31.9004,1.423
31.9057,1.4616
31.9057,1.6054
31.9067,1.7588
31.9067,1.8541
31.9129,1.804
31.9129,1.8357
31.9227,1.8374
31.9316,1.7142
31.9346,1.5702
31.9357,1.4849
31.9357,1.4845
31.9369,1.6202
31.9369,1.6345
31.9369,1.6525
31.9379,1.5972
31.9379,1.6763
31.9389,1.7506
31.9389,1.7753
31.9399,1.8293
31.9399,1.7365
31.9409,1.7759
31.9409,1.7072
31.9409,1.7301
31.9421,1.6847
31.9421,1.6367
31.9432,1.6275
31.9432,1.5694
31.9459,1.6131
31.9468,1.6298
31.9468,1.6774
31.9468,1.8389
31.9485,1.5617
31.9530,1.4547
31.9530,1.6754
31.9542,1.8072
31.9542,1.7907
31.9597,1.7389
31.9609,1.7099
31.9617,1.6675
31.9617,1.6761
31.9627,1.6716
31.9659,1.6827
31.9670,1.6756
31.9670,1.7022
31.9680,1.7224
31.9737,1.7539
31.9737,1.591
31.9748,1.6801
31.9748,1.6928
31.9761,1.6637
31.9800,1.6242
31.9810,1.6981
31.9810,1.6013
31.9823,1.5124
31.9873,1.6332
31.9876,1.6294
31.9876,1.6551
31.9886,1.6821
31.9886,1.6896
31.9933,1.7397
31.9933,1.7397
31.9943,1.6264
31.9943,1.6877
31.9953,1.5923
32.0005,1.6124
32.0005,1.7209
32.0015,1.8606
32.0015,1.9141
32.0076,1.8942
32.0083,2.1168
32.0083,2.1111
32.0093,2.1556
32.0093,2.1394
32.0140,2.1188
32.0150,2.1327
32.0150,2.2161
32.0161,2.161
32.0215,2.0594
32.0215,1.9328
32.0227,1.8692
32.0277,1.6688
32.0414,1.7849
32.0447,1.7987
32.0447,1.8859
32.0457,1.8977
32.0457,1.8216
32.0467,1.7044
32.0467,1.6572
32.0467,1.6343
32.0479,1.7371
32.0486,1.7431
32.0486,1.6439
32.0486,1.5822
32.0499,1.5591
32.0499,1.599
32.0510,1.669
32.0510,1.7144
32.0510,1.7543
32.0520,1.7809
32.0520,1.7446
32.0549,1.7759
32.0559,1.7704
32.0559,1.7166
32.0579,1.7665
32.0579,1.6776
32.0615,1.5368
32.0615,1.5985
32.0625,1.6782
32.0625,1.7187
32.0684,1.6362
32.0684,1.6381
32.0696,1.7237
32.0705,1.729
32.0715,1.7464
32.0748,1.7438
32.0758,1.8252
32.0758,1.7755
32.0768,1.6099
32.0819,1.6396
32.0819,1.6099
32.0829,1.6345
32.0829,1.6229
32.0839,1.7138
32.0884,1.7179
32.0884,1.7616
32.0894,1.7843
32.0894,1.7387
32.0907,1.7222
32.0957,1.6909
32.0957,1.6251
32.0957,1.5668
32.0969,1.4935
32.1024,1.6536
32.1034,1.6909
32.1034,1.7018
32.1034,1.8166
32.1044,1.6714
32.1088,1.8323
32.1099,1.8636
32.1099,1.8137
32.1109,1.8031
32.1164,1.7736
32.1164,1.7558
32.1174,1.7453
32.1174,1.6285
32.1184,1.7119
32.1223,1.7119
32.1234,1.7211
32.1234,1.585
32.1244,1.6521
32.1296,1.7219
32.1296,1.7431
32.1306,1.7266
32.1306,1.7551
32.1336,1.7387
32.1387,1.8426
32.1552,1.8171
32.1582,1.6919
32.1592,1.6095
32.1592,1.6409
32.1604,1.572
32.1604,1.593
32.1615,1.6215
32.1615,1.5974
32.1615,1.5591
32.1625,1.5115
32.1625,1.5739
32.1635,1.5677
32.1645,1.6467
32.1654,1.8269
32.1666,1.7702
32.1666,1.7693
32.1677,1.6864
32.1677,1.5636
32.1687,1.8164
32.1687,1.7785
32.1687,1.6964
32.1697,1.7275
32.1697,1.7781
32.1707,1.8561
32.1707,1.9013
32.1719,1.8666
32.1774,1.8049
32.1774,1.7588
32.1786,1.7003
32.1786,1.6594
32.1794,1.7408
32.1831,1.669
32.1839,1.6624
32.1849,1.7326
32.1849,1.7221
32.1849,1.8081
32.1902,1.7882
32.1912,1.7629
32.1912,1.8149
32.1922,1.8214
32.1977,1.8102
32.1987,1.7817
32.1987,1.795
32.1997,1.7091
32.2000,1.777
32.2041,1.8271
32.2052,1.7515
32.2052,1.6847
32.2052,1.6951
32.2114,1.8531
32.2114,1.8749
32.2125,1.8121
32.2125,1.9047
32.2135,1.8421
32.2175,1.8128
32.2186,1.7039
32.2186,1.7552
32.2196,1.8199
32.2248,1.7736
32.2254,1.6184
32.2254,1.6624
32.2265,1.7299
32.2265,1.7772
32.2310,1.9759
32.2321,1.9326
32.2321,1.9411
32.2331,1.7899
32.2333,1.6673
32.2383,1.7526
32.2383,1.7307
32.2395,1.7873
32.2395,1.807
32.2493,1.8237
32.2635,1.7393
32.2672,1.6997
32.2672,1.7125
32.2682,1.6874
32.2682,1.7997
32.2691,1.8711
32.2691,1.9641
32.2701,1.9607
32.2701,1.9547
32.2711,1.8582
32.2711,1.7725
32.2711,1.7686
32.2723,1.5844
32.2731,1.7097
32.2731,1.7404
32.2731,1.7354
32.2741,1.7528
32.2741,1.6977
32.2751,1.6124
32.2751,1.6377
32.2761,1.6439
32.2761,1.7129
32.2787,1.8516
32.2798,1.7446
32.2798,1.7359
32.2798,1.6636
32.2808,1.7866
32.2857,1.7447
32.2867,1.8031
32.2867,1.8327
32.2877,1.8216
32.2931,1.7577
32.2940,1.6525
32.2940,1.6921
32.2950,1.6821
32.2950,1.7031
32.2992,1.6632
32.3002,1.6694
32.3002,1.4942
32.3012,1.5932
32.3066,1.702
32.3074,1.7048
32.3074,1.7369
32.3084,1.8338
32.3084,1.8023
32.3126,1.7149
32.3136,1.8059
32.3143,1.8231
32.3146,1.7447
32.3202,1.5638
32.3202,1.5955
32.3211,1.6542
32.3211,1.5756
32.3221,1.5074
32.3264,1.5771
32.3264,1.6649
32.3274,1.6167
32.3274,1.6581
32.3284,1.7886
32.3334,1.8287
32.3334,1.7391
32.3344,1.7663
32.3354,1.6232
32.3407,1.6174
32.3416,1.615
32.3416,1.5683
32.3426,1.6356
32.3426,1.5945
32.3470,1.6217
32.3480,1.6109
32.3480,1.573
32.3490,1.6017
32.3550,1.6866
32.3679,1.6251
32.3709,1.8083
32.3719,1.7821
32.3730,1.7575
32.3730,1.6486
32.3730,1.5653
32.3740,1.5475
32.3740,1.5825
32.3750,1.6866
32.3750,1.6754
32.3760,1.7031
32.3760,1.6754
32.3760,1.624
32.3770,1.7423
32.3770,1.7605
32.3780,1.6726
32.3780,1.5974
32.3790,1.7221
32.3819,1.6611
32.3819,1.5801
32.3829,1.545
32.3829,1.7065
32.3884,1.7693
32.3884,1.6441
32.3895,1.6491
32.3895,1.6885
32.3905,1.7189
32.3947,1.6883
32.3955,1.7633
32.3966,1.7802
32.3966,1.6187
32.4020,1.6274
32.4020,1.5835
32.4030,1.5398
32.4030,1.6097
32.4040,1.5756
32.4082,1.5602
32.4093,1.7071
32.4093,1.8107
32.4093,1.7436
32.4152,1.7971
32.4152,1.6928
32.4162,1.6643
32.4162,1.7539
32.4172,1.6712
32.4216,1.6022
32.4222,1.494
32.4232,1.5437
32.4232,1.5102
32.4232,1.6645
32.4287,1.4914
32.4292,1.6669
32.4292,1.7905
32.4302,1.8201
32.4364,1.7196
32.4364,1.7192
32.4375,1.6859
32.4375,1.6035
32.4375,1.5803
32.4422,1.5876
32.4433,1.5786
32.4433,1.6977
32.4443,1.714
32.4495,1.6887
32.4504,1.7406
32.4504,1.7813
32.4504,1.7941
32.4515,1.8211
32.4554,1.7702
32.4564,1.6619
32.4564,1.6748
32.4574,1.6371
32.4634,1.6658
32.4793,1.6184
32.4833,1.6411
32.4843,1.6793
32.4854,1.7132
32.4854,1.7112
32.4854,1.6532
32.4864,1.5975
32.4864,1.6319
32.4874,1.6624
32.4874,1.7326
32.4884,1.7987
32.4884,1.611
32.4894,1.5368
32.4894,1.5119
32.4905,1.5424
32.4905,1.5831
32.4914,1.6506
32.4914,1.7005
32.4924,1.7391
32.4924,1.7147
32.4924,1.7654
32.4934,1.7671
32.4969,1.7528
32.4979,1.7757
32.4989,1.6598
32.4989,1.642
32.4999,1.609
32.5031,1.534
32.5039,1.4235
32.5039,1.4629
32.5050,1.5475
32.5102,1.6681
32.5112,1.6799
32.5112,1.7222
32.5122,1.6649
32.5122,1.6215
32.5184,1.6504
32.5193,1.6939
32.5193,1.5887
32.5203,1.5837
32.5203,1.5816
32.5253,1.6587
32.5263,1.6791
32.5263,1.6549
32.5273,1.6341
32.5328,1.7084
32.5328,1.7269
32.5339,1.7138
32.5339,1.6574
32.5349,1.6508
32.5398,1.7652
32.5398,1.7192
32.5409,1.6049
32.5409,1.6958
32.5461,1.6142
32.5461,1.6446
32.5472,1.6611
32.5472,1.7147
32.5482,1.7136
32.5526,1.771
32.5534,1.7738
32.5534,1.623
32.5544,1.6075
32.5595,1.7487
32.5603,1.7172
32.5603,1.5801
32.5613,1.6591
32.5613,1.6152
32.5660,1.6716
32.5670,1.7459
32.5670,1.7221
32.5670,1.6967
32.5730,1.5955
32.5869,1.6034
32.5899,1.5964
32.5899,1.6017
32.5910,1.6808
32.5910,1.545
32.5920,1.6324
32.5920,1.6356
32.5930,1.567
32.5930,1.5394
32.5930,1.5779
32.5940,1.5764
32.5940,1.7275
32.5950,1.7736
32.5950,1.7479
32.5959,1.7451
32.5959,1.7457
32.5970,1.7412
32.5970,1.726
32.6002,1.654
32.6010,1.4952
32.6010,1.4415
32.6019,1.5422
32.6071,1.7762
32.6080,1.6219
32.6080,1.6851
32.6091,1.7639
32.6091,1.6289
32.6133,1.7168
32.6143,1.6898
32.6153,1.7236
32.6163,1.7344
32.6173,1.7434
32.6203,1.7633
32.6213,1.7524
32.6213,1.7001
32.6213,1.6784
32.6277,1.6757
32.6286,1.6506
32.6286,1.6189
32.6297,1.6771
32.6297,1.6439
32.6338,1.6604
32.6347,1.5765
32.6347,1.6124
32.6356,1.6247
32.6412,1.7432
32.6418,1.6737
32.6418,1.6761
32.6428,1.7069
32.6428,1.7054
32.6477,1.6566
32.6485,1.7234
32.6485,1.7136
32.6495,1.7221
32.6547,1.8211
32.6556,1.8548
32.6556,1.7363
32.6566,1.7716
32.6566,1.7796
32.6609,1.7725
32.6619,1.7504
32.6619,1.6744
32.6619,1.626
32.6629,1.6227
32.6679,1.7101
32.6689,1.6146
32.6689,1.6497
32.6689,1.7421
32.6754,1.8256
32.6762,1.8312
32.6762,1.7972
32.6773,1.6124
32.6942,1.5527
32.6981,1.6
32.6981,1.6821
32.6992,1.5302
32.6992,1.5149
32.7002,1.5623
32.7002,1.8004
32.7012,1.8233
32.7012,1.7888
32.7012,1.84
32.7021,1.7176
32.7021,1.6538
32.7031,1.5962
32.7031,1.5707
32.7041,1.6943
32.7041,1.6024
32.7051,1.5409
32.7051,1.6184
32.7051,1.4944
32.7083,1.6791
32.7092,1.6197
32.7092,1.7746
32.7101,1.7573
32.7101,1.7866
32.7161,1.8717
32.7161,1.8182
32.7171,1.7455
32.7171,1.6752
32.7230,1.5975
32.7230,1.5728
32.7241,1.6311
32.7241,1.5394
32.7254,1.6418
32.7293,1.629
32.7303,1.6367
32.7303,1.6302
32.7316,1.6999
32.7369,1.7309
32.7369,1.7607
32.7380,1.7704
32.7380,1.7386
32.7380,1.7089
32.7423,1.5402
32.7434,1.527
32.7434,1.5754
32.7444,1.5419
32.7501,1.6335
32.7501,1.4909
32.7510,1.5614
32.7510,1.714
32.7520,1.6898
32.7564,1.8092
32.7564,1.7183
32.7574,1.6958
32.7574,1.6433
32.7586,1.6433
32.7637,1.6733
32.7638,1.7299
32.7638,1.6557
32.7649,1.5572
32.7705,1.4198
32.7715,1.5274
32.7715,1.4085
32.7724,1.6319
32.7724,1.6437
32.7769,1.6667
32.7779,1.6039
32.7779,1.6688
32.7789,1.8428
32.7841,2.0084
32.7841,1.9855
32.7851,2.0144
32.7851,2.0449
32.7863,2.0843
32.7923,2.2296
32.8054,2.2096
32.8079,2.107
32.8088,2.3238
32.8088,2.113
32.8101,2.0579
32.8101,2.0247
32.8111,1.7612
32.8111,1.7395
32.8121,1.6583
32.8121,1.6088
32.8121,1.7727
32.8131,1.669
32.8131,1.7206
32.8141,1.744
32.8151,1.7721
32.8151,1.8482
32.8163,1.7192
32.8183,1.56
32.8193,1.585
32.8195,1.5548
32.8203,1.5501
32.8203,1.558
32.8246,1.5394
32.8256,1.6305
32.8256,1.7912
32.8256,1.7819
32.8316,1.8057
32.8324,1.7911
32.8336,1.7477
32.8336,1.7699
32.8347,1.6647
32.8379,1.657
32.8389,1.7232
32.8389,1.6577
32.8399,1.6159
32.8449,1.6388
32.8449,1.6589
32.8460,1.6045
32.8460,1.5314
32.8470,1.6107
32.8514,1.7813
32.8523,1.8421
32.8523,1.7888
32.8533,1.8452
32.8533,1.6921
32.8586,1.6549
32.8586,1.6967
32.8596,1.6557
32.8596,1.6583
32.8654,1.6204
32.8662,1.5128
32.8662,1.5332
32.8673,1.6264
32.8674,1.7524
32.8718,1.7811
32.8728,1.7029
32.8728,1.7132
32.8738,1.7138
32.8789,1.789
32.8789,1.5715
32.8799,1.6065
32.8799,1.6176
32.8809,1.5835
32.8852,1.495
32.8862,1.5554
32.8862,1.6229
32.8872,1.6688
32.8925,1.8034
32.8925,1.7802
32.8935,1.8087
32.8935,1.8349
32.8945,1.8062
32.9062,1.6422
32.9154,1.6157
32.9183,1.5889
32.9183,1.6861
32.9193,1.8192
32.9193,1.6283
32.9204,1.6086
32.9204,1.6471
32.9214,1.7093
32.9214,1.7365
32.9224,1.7266
32.9224,1.9296
32.9224,1.9043
32.9234,1.9045
32.9234,1.7431
32.9245,1.6604
32.9245,1.6313
32.9245,1.5717
32.9263,1.5353
32.9263,1.5632
32.9273,1.7217
32.9273,1.8224
32.9283,1.8055
32.9328,1.8291
32.9336,1.8244
32.9336,1.6274
32.9346,1.6859
32.9399,1.7447
32.9399,1.7086
32.9412,1.7881
32.9412,1.8149
32.9422,1.6885
32.9462,1.6088
32.9462,1.7056
32.9475,1.7172
32.9475,1.7116
32.9495,1.7999
32.9536,1.8059
32.9537,1.8224
32.9537,1.8186
32.9548,1.7132
32.9604,1.6287
32.9612,1.5424
32.9612,1.3628
32.9623,1.7757
32.9623,1.5795
32.9666,1.6636
32.9666,1.6823
32.9676,1.789
32.9676,1.8115
32.9742,1.7881
32.9742,1.6921
32.9753,1.7828
32.9753,1.837
32.9763,1.7519
32.9809,1.8032
32.9809,1.7494
32.9816,1.6969
32.9816,1.6067
32.9872,1.6596
32.9872,1.6313
32.9883,1.5934
32.9883,1.6881
32.9893,1.7539
32.9936,1.9439
32.9936,2.038
32.9947,1.9776
32.9947,1.7845
32.9956,1.6313
33.0009,1.6343
33.0009,1.7693
33.0009,1.7721
33.0021,1.6937
33.0092,1.8287
33.0224,1.8237
33.0256,1.8548
33.0266,1.8252
33.0276,1.8439
33.0276,1.7376
33.0276,1.8107
33.0286,1.6857
33.0286,1.7041
33.0296,1.9375
33.0296,1.9512
33.0306,1.8522
33.0306,1.7821
33.0317,1.8102
33.0317,1.8878
33.0326,1.8415
33.0326,1.8428
33.0336,1.8061
33.0346,1.7907
33.0356,1.7447
33.0356,1.8447
33.0356,1.8934
33.0368,1.7924
33.0410,1.7719
33.0420,1.7566
33.0421,1.7631
33.0421,1.7667
33.0432,1.7879
33.0484,1.7423
33.0493,1.6313
33.0493,1.6236
33.0503,1.8554
33.0552,1.8184
33.0552,1.8713
33.0563,1.7843
33.0563,1.6857
33.0573,1.7517
33.0615,1.6474
33.0625,1.5195
33.0625,1.5235
33.0635,1.5951
33.0686,1.6885
33.0686,1.6892
33.0697,1.6354
33.0697,1.7116
33.0707,1.7311
33.0749,1.7206
33.0760,1.7716
33.0760,1.7459
33.0770,1.6716
33.0814,1.7459
33.0824,1.7072
33.0836,1.6137
33.0846,1.528
33.0846,1.7127
33.0888,1.6307
33.0888,1.5779
33.0899,1.6442
33.0899,1.7626
33.0899,1.8544
33.0951,1.8096
33.0961,1.6979
33.0961,1.6714
33.0961,1.6424
33.1027,1.626
33.1027,1.6154
33.1037,1.588
33.1037,1.5762
33.1049,1.5923
33.1090,1.6952
33.1101,1.6681
33.1102,1.7294
33.1102,1.7468
33.1165,1.7732
33.1294,1.8237
33.1318,1.7697
33.1328,1.7125
33.1328,1.4952
33.1340,1.4189
33.1340,1.4374
33.1350,1.4802
33.1350,1.7159
33.1350,1.7528
33.1360,1.7509
33.1360,1.6771
33.1370,1.6801
33.1370,1.6195
33.1380,1.6172
33.1380,1.6084
33.1390,1.6026
33.1392,1.681
33.1392,1.6377
33.1432,1.6309
33.1432,1.5784
33.1432,1.5855
33.1444,1.5726
33.1501,1.5419
33.1501,1.4727
33.1511,1.6362
33.1511,1.8316
33.1521,1.7967
33.1564,1.8066
33.1583,1.6384
33.1583,1.6062
33.1592,1.6639
33.1636,1.7759
33.1647,1.7414
33.1659,1.566
33.1667,1.564
33.1667,1.6476
33.1699,1.6857
33.1710,1.7573
33.1710,1.7987
33.1721,1.7691
33.1765,1.6206
33.1775,1.5338
33.1775,1.4355
33.1785,1.4625
33.1785,1.6396
33.1834,1.6446
33.1845,1.5689
33.1845,1.7194
33.1845,1.6786
33.1854,1.7656
33.1906,1.765
33.1917,1.7918
33.1926,1.7054
33.1938,1.6868
33.1980,1.7228
33.1990,1.6501
33.2000,1.6731
33.2010,1.6002
33.2022,1.6124
33.2050,1.6274
33.2050,1.6801
33.2060,1.612
33.2060,1.6364
33.2114,1.645
33.2124,1.6817
33.2125,1.6244
33.2125,1.7959
33.2135,1.7024
33.2179,1.6471
33.2179,1.696
33.2189,1.6137
33.2189,1.635
33.2247,1.6591
33.2391,1.6489
33.2413,1.6883
33.2423,1.7329
33.2423,1.6851
33.2434,1.7614
33.2434,1.7166
33.2444,1.7798
33.2444,1.7104
33.2454,1.5989
33.2454,1.5855
33.2465,1.5659
33.2466,1.6354
33.2478,1.5867
33.2478,1.6358
33.2486,1.6163
33.2486,1.6969
33.2496,1.6799
33.2496,1.7492
33.2534,1.7476
33.2543,1.7179
33.2585,1.6634
33.2595,1.6622
33.2604,1.6649
33.2604,1.6097
33.2614,1.602
33.2614,1.6855
33.2624,1.6208
33.2670,1.6007
33.2670,1.6185
33.2681,1.7164
33.2681,1.7129
33.2734,1.6994
33.2744,1.6637
33.2744,1.6982
33.2754,1.6139
33.2754,1.6418
33.2798,1.579
33.2809,1.5312
33.2820,1.5694
33.2820,1.6816
33.2828,1.7279
33.2868,1.7421
33.2878,1.7614
33.2878,1.735
33.2888,1.7517
33.2950,1.8094
33.2950,1.8447
33.2960,1.8134
33.2960,1.6109
33.2970,1.599
33.3013,1.5608
33.3013,1.6666
33.3023,1.6002
33.3023,1.5282
33.3081,1.5252
33.3081,1.3994
33.3091,1.4603
33.3091,1.6701
33.3101,1.8796
33.3144,1.9049
33.3154,1.9159
33.3154,1.8707
33.3154,1.7101
33.3216,1.6551
33.3216,1.6463
33.3227,1.6155
33.3227,1.651
33.3237,1.6568
33.3319,1.7093
33.3454,1.7279
33.3483,1.7354
33.3493,1.7416
33.3493,1.7618
33.3506,1.7676
33.3506,1.6641
33.3516,1.6988
33.3516,1.6305
33.3526,1.5623
33.3526,1.5599
33.3526,1.5617
33.3536,1.5959
33.3536,1.6673
33.3546,1.7522
33.3546,1.6876
33.3556,1.7329
33.3556,1.7237
33.3566,1.7029
33.3568,1.6915
33.3568,1.7875
33.3579,1.4935
33.3579,1.57
33.3624,1.5312
33.3624,1.6324
33.3634,1.6746
33.3634,1.7091
33.3691,1.6932
33.3691,1.8509
33.3702,1.8297
33.3702,1.7603
33.3711,1.7466
33.3755,1.7667
33.3764,1.7864
33.3764,1.7455
33.3764,1.7029
33.3774,1.5036
33.3826,1.543
33.3838,1.5285
33.3838,1.5936
33.3849,1.7509
33.3893,1.7466
33.3903,1.6433
33.3913,1.8514
33.3913,1.7849
33.3923,1.7179
33.3959,1.7642
33.3970,1.8291
33.3970,1.7637
33.3981,1.7292
33.4032,1.7224
33.4032,1.7777
33.4043,1.6439
33.4043,1.7179
33.4053,1.7862
33.4093,1.7099
33.4104,1.6885
33.4104,1.7234
33.4114,1.759
33.4165,1.6092
33.4165,1.6872
33.4176,1.8458
33.4176,1.7866
33.4188,1.6335
33.4230,1.5917
33.4230,1.6615
33.4243,1.6437
33.4243,1.6879
33.4243,1.6594
33.4295,1.6834
33.4305,1.744
33.4305,1.8091
33.4315,1.8214
33.4371,1.777
33.4382,1.6776
33.4545,1.7477
33.4586,1.6407
33.4595,1.5786
33.4595,1.6459
33.4605,1.6313
33.4605,1.6694
33.4605,1.6928
33.4615,1.7301
33.4627,1.8297
33.4627,1.7112
33.4638,1.8857
33.4649,1.7922
33.4649,1.6951
33.4657,1.618
33.4667,1.6639
33.4667,1.6694
33.4677,1.7162
33.4688,1.6934
33.4690,1.6911
33.4690,1.6412
33.4700,1.6801
33.4710,1.7149
33.4710,1.605
33.4720,1.6778
33.4720,1.7402
33.4730,1.7024
33.4772,1.7014
33.4772,1.6984
33.4782,1.5587
33.4782,1.5831
33.4846,1.6236
33.4846,1.6215
33.4859,1.5861
33.4859,1.6767
33.4869,1.6752
33.4911,1.7275
33.4911,1.7149
33.4922,1.6397
33.4922,1.6504
33.4976,1.6896
33.4986,1.7708
33.4997,1.6285
33.4997,1.566
33.5006,1.5724
33.5041,1.6744
33.5051,1.5642
33.5051,1.6095
33.5051,1.7039
33.5111,1.6542
33.5111,1.7129
33.5122,1.678
33.5122,1.7189
33.5134,1.8207
33.5175,1.7024
33.5187,1.5805
33.5187,1.5218
33.5187,1.4841
33.5197,1.4657
33.5250,1.4031
33.5250,1.5947
33.5250,1.7151
33.5259,1.6988
33.5319,1.7509
33.5319,1.8614
33.5329,1.7721
33.5329,1.8604
33.5339,1.9617
33.5379,2.1121
33.5389,2.1233
33.5389,2.131
33.5398,1.9559
33.5454,1.9718
33.5454,2.0404
33.5474,2.0583
33.5651,2.1393
33.5682,2.1188
33.5682,1.9915
33.5693,1.9251
33.5693,1.6924
33.5703,1.7417
33.5703,1.7395
33.5713,1.693
33.5713,1.5923
33.5722,1.4474
33.5722,1.4661
33.5722,1.4138
33.5734,1.5929
33.5734,1.5923
33.5734,1.5979
33.5745,1.7108
33.5745,1.6403
33.5755,1.6124
33.5755,1.6711
33.5765,1.8162
33.5795,1.8259
33.5804,1.7732
33.5804,1.5584
33.5816,1.4736
33.5816,1.5085
33.5857,1.515
33.5868,1.5829
33.5868,1.7776
33.5878,1.7217
33.5926,1.6328
33.5937,1.7492
33.5937,1.8321
33.5947,1.8109
33.5947,1.5925
33.5991,1.7294
33.6001,1.7326
33.6001,1.7299
33.6013,1.6853
33.6067,1.7027
33.6068,1.7393
33.6078,1.7215
33.6078,1.7026
33.6088,1.7491
33.6128,1.7228
33.6137,1.7206
33.6137,1.7344
33.6147,1.6862
33.6147,1.708
33.6199,1.6842
33.6199,1.5561
33.6209,1.6887
33.6209,1.6454
33.6273,1.6748
33.6273,1.7024
33.6286,1.7922
33.6286,1.8726
33.6296,1.8077
33.6340,1.759
33.6340,1.7601
33.6350,1.7477
33.6350,1.7841
33.6407,1.7882
33.6415,1.6799
33.6415,1.6019
33.6426,1.6163
33.6426,1.6221
33.6468,1.6971
33.6479,1.6934
33.6479,1.7393
33.6489,1.7359
33.6542,1.7048
33.6542,1.7567
33.6553,1.7271
33.6553,1.6529
33.6564,1.7121
33.6614,1.6532
33.6759,1.6442
33.6778,1.5792
33.6789,1.5415
33.6789,1.792
33.6799,1.7686
33.6799,1.7629
33.6811,1.7663
33.6818,1.7881
33.6818,1.7078
33.6818,1.7016
33.6829,1.8175
33.6829,1.7877
33.6839,1.7395
33.6839,1.6924
33.6849,1.6939
33.6849,1.6716
33.6859,1.6892
33.6883,1.717
33.6892,1.792
33.6892,1.8458
33.6902,1.8102
33.6902,1.8482
33.6946,1.8743
33.6956,1.8316
33.6956,1.7717
33.6966,1.5977
33.7019,1.563
33.7019,1.453
33.7028,1.5992
33.7028,1.618
33.7041,1.5865
33.7081,1.6718
33.7092,1.7976
33.7093,1.8758
33.7093,1.7849
33.7104,1.7776
33.7145,1.759
33.7156,1.8353
33.7156,1.8312
33.7166,1.7729
33.7223,1.7459
33.7229,1.6193
33.7229,1.576
33.7239,1.6159
33.7239,1.7922
33.7288,1.7599
33.7299,1.8346
33.7299,1.9056
33.7308,1.8947
33.7360,1.8925
33.7360,1.9264
33.7369,1.7037
33.7369,1.8488
33.7380,1.8001
33.7423,1.7172
33.7434,1.6628
33.7434,1.8081
33.7444,1.9133
33.7488,1.9557
33.7498,1.8542
33.7498,1.9508
33.7508,2.0708
33.7508,1.9842
33.7557,1.9772
33.7568,1.9276
33.7568,1.8278
33.7568,1.5732
33.7578,1.8053
33.7630,1.9339
33.7630,1.8889
33.7630,1.7194
33.7640,1.7249
33.7826,1.8552
33.7846,2.0907
33.7856,2.0376
33.7866,1.8509
33.7866,1.8336
33.7866,1.855
33.7876,1.8749
33.7876,1.9566
33.7888,1.948
33.7888,1.7425
33.7898,1.7281
33.7898,1.6836
33.7909,1.9039
33.7909,1.9232
33.7919,1.9504
33.7919,1.8437
33.7919,1.7871
33.7929,1.8998
33.7968,2.0629
33.7973,1.9107
33.7983,1.8769
33.7983,1.6688
33.7993,1.4479
33.8035,1.4144
33.8035,1.8242
33.8045,1.8158
33.8045,1.8265
33.8055,1.7672
33.8098,1.7029
33.8108,1.6666
33.8108,1.5814
33.8119,1.5642
33.8174,1.5597
33.8185,1.6371
33.8185,1.6692
33.8195,1.7067
33.8195,1.6035
33.8240,1.738
33.8240,1.8299
33.8251,1.8334
33.8251,1.8036
33.8307,1.7734
33.8315,1.9107
33.8315,1.8248
33.8325,1.768
33.8325,1.7384
33.8376,1.572
33.8386,1.6596
33.8386,1.5908
33.8386,1.5486
33.8448,1.633
33.8448,1.5807
33.8458,1.3219
33.8458,1.4967
33.8471,1.663
33.8509,1.9176
33.8519,2.0354
33.8519,1.8456
33.8519,1.8398
33.8532,1.7603
33.8583,1.7018
33.8584,1.4211
33.8584,1.3662
33.8594,1.4183
33.8653,1.5801
33.8660,1.6349
33.8660,1.6744
33.8670,1.8389
33.8670,1.6645
33.8716,1.7292
33.8727,1.6189
33.8727,1.4061
33.8737,1.9879
33.8911,1.7774
33.8940,1.6461
33.8940,1.5552
33.8951,1.5248
33.8951,1.5758
33.8961,1.6829
33.8961,1.9394
33.8971,1.8415
33.8980,1.8932
33.8985,1.8181
33.8990,1.7558
33.8990,1.7852
33.9000,1.7324
33.9000,1.6536
33.9010,1.7056
33.9010,1.6364
33.9020,1.6069
33.9020,1.5885
33.9020,1.6097
33.9056,1.6362
33.9062,1.6544
33.9062,1.5974
33.9072,1.6553
33.9130,1.7738
33.9130,1.8822
33.9140,1.7746
33.9155,1.7241
33.9163,1.7476
33.9195,1.4895
33.9206,1.7059
33.9206,1.7222
33.9217,1.6628
33.9263,1.5906
33.9263,1.5578
33.9273,1.5025
33.9273,1.4888
33.9283,1.5788
33.9328,1.7446
33.9338,1.7372
33.9338,1.8574
33.9348,1.9066
33.9398,1.8164
33.9398,1.7065
33.9409,1.5797
33.9409,1.467
33.9419,1.4669
33.9463,1.3789
33.9474,1.6857
33.9474,2.1633
33.9474,1.9334
33.9486,1.7007
33.9536,1.6598
33.9536,1.7609
33.9546,1.8707
33.9548,1.6847
33.9604,1.6088
33.9604,1.7982
33.9614,1.8563
33.9614,1.6907
33.9624,1.6189
33.9669,1.5471
33.9679,1.6682
33.9679,1.7264
33.9679,1.8074
33.9754,1.9064
33.9766,1.834
33.9766,1.7999
33.9776,1.726
33.9776,1.7995
33.9862,1.6249
33.9996,1.5897
34.0025,1.6242
34.0035,1.6163
34.0035,1.6178
34.0048,1.711
34.0048,1.702
34.0058,1.7277
34.0058,1.7609
34.0068,1.786
34.0068,1.9853
34.0068,1.8514
34.0078,1.7802
34.0078,1.7217
34.0088,1.6493
34.0088,1.5368
34.0098,1.4541
34.0098,1.591
34.0108,1.6011
34.0110,1.617
34.0110,1.8282
34.0120,1.9411
34.0120,1.7192
34.0160,1.6857
34.0171,1.6191
34.0173,1.7802
34.0173,1.7881
34.0231,1.7067
34.0231,1.6152
34.0242,1.7009
34.0242,1.6981
34.0252,1.7078
34.0295,1.7419
34.0304,1.7697
34.0304,1.8106
34.0313,1.8587
34.0366,1.9067
34.0376,1.9279
34.0386,1.8091
34.0386,1.6924
34.0396,1.5882
34.0431,1.6497
34.0431,1.4382
34.0442,1.5079
34.0442,1.4372
34.0451,1.6362
34.0501,1.8745
34.0511,1.8299
34.0511,1.7071
34.0523,1.6817
34.0571,1.8475
34.0581,1.7125
34.0591,1.735
34.0600,1.7132
34.0614,1.696
34.0641,1.6514
34.0650,1.6472
34.0650,1.6628
34.0660,1.5764
34.0702,1.6245
34.0710,1.7444
34.0720,1.6607
34.0721,1.7646
34.0730,1.7843
34.0770,1.7183
34.0785,1.645
34.0790,1.7239
34.0800,1.8027
34.0842,1.6379
34.0843,1.6412
34.0853,1.6459
34.0858,1.8158
34.0863,1.6979
34.0948,1.8831
34.1076,1.8091
34.1096,1.8722
34.1113,1.9523
34.1113,1.8752
34.1123,1.8012
34.1123,1.7757
34.1123,1.7522
34.1133,1.7971
34.1133,1.8282
34.1148,1.6894
34.1153,1.6559
34.1153,1.7228
34.1163,1.7597
34.1163,1.849
34.1173,1.9555
34.1175,1.9684
34.1182,1.9174
34.1185,1.8664
34.1185,1.8173
34.1195,1.7584
34.1195,1.714
34.1205,1.7284
34.1247,1.7648
34.1256,1.7041
34.1256,1.7414
34.1266,1.7978
34.1308,1.7738
34.1329,1.4914
34.1329,1.3885
34.1338,1.3322
34.1338,1.5857
34.1378,2.0845
34.1389,2.0875
34.1389,1.9726
34.1389,1.8522
34.1399,1.7436
34.1451,1.7956
34.1451,1.7444
34.1461,1.6592
34.1463,1.7026
34.1521,1.7942
34.1521,1.6787
34.1532,1.6097
34.1532,1.4528
34.1541,1.4496
34.1586,1.7457
34.1596,1.7588
34.1596,1.7684
34.1596,1.6082
34.1656,1.7378
34.1656,1.8289
34.1667,1.8077
34.1667,1.7622
34.1677,1.6092
34.1719,1.7153
34.1729,1.9187
34.1729,1.789
34.1729,1.6525
34.1791,1.6737
34.1791,1.6611
34.1801,1.4674
34.1801,1.4095
34.1812,1.3075
34.1856,1.2582
34.1856,1.3812
34.1866,1.6827
34.1869,1.8771
34.1869,1.8627
34.1921,1.7631
34.1931,1.5782
34.1931,1.6146
34.1931,1.8743
34.2038,1.8511
34.2180,2.0144
34.2218,1.8565
34.2218,1.6765
34.2228,1.8209
34.2228,1.8182
34.2238,1.7612
34.2238,1.7635
34.2248,1.7528
34.2248,1.7142
34.2258,1.6922
34.2258,1.6885
34.2258,1.566
34.2271,1.6274
34.2271,1.6028
34.2281,1.7009
34.2281,1.6401
34.2291,1.7108
34.2291,1.6894
34.2301,1.6999
34.2308,1.6984
34.2311,1.6782
34.2321,1.7875
34.2321,1.7348
34.2333,1.6559
34.2341,1.7119
34.2341,1.7378
34.2351,1.8391
34.2393,1.8734
34.2403,1.8053
34.2403,1.8574
34.2413,1.9345
34.2471,1.9862
34.2480,2.1884
34.2489,2.1209
34.2502,2.0826
34.2510,2.1903
34.2533,2.1979
34.2543,2.2126
34.2543,2.1108
34.2553,2.0727
34.2609,1.8751
34.2662,1.7365
34.2662,1.693
34.2672,1.506
34.2672,1.4393
34.2672,1.5516
34.2682,1.5175
34.2682,1.5432
34.2692,1.4046
34.2739,1.4805
34.2739,1.5227
34.2749,1.7282
34.2749,1.8777
34.2759,1.8848
34.2802,1.7425
34.2813,1.708
34.2813,1.6555
34.2823,1.5893
34.2823,1.5477
34.2872,1.5471
34.2872,1.5434
34.2883,1.6759
34.2883,1.8426
34.2945,1.9609
34.2945,1.8769
34.2956,1.8188
34.2956,1.6951
34.2966,1.7704
34.3010,1.7357
34.3020,1.7132
34.3020,1.635
34.3030,1.7746
34.3081,1.7946
34.3081,1.7577
34.3134,1.7693
34.3280,1.8274
34.3310,1.7221
34.3321,1.759
34.3321,1.6997
34.3330,1.6542
34.3330,1.6737
34.3340,1.5561
34.3340,1.5698
34.3350,1.4408
34.3350,1.6307
34.3360,1.617
34.3360,1.687
34.3370,1.7774
34.3370,1.8368
34.3370,1.6804
34.3380,1.6502
34.3380,1.7442
34.3390,1.7832
34.3390,1.8464
34.3400,1.7974
34.3422,1.6544
34.3430,1.438
34.3430,1.5942
34.3441,1.6017
34.3441,1.6859
34.3491,1.7232
34.3491,1.6673
34.3501,1.7159
34.3501,1.7507
34.3557,1.7716
34.3564,1.8996
34.3573,1.8799
34.3573,1.8122
34.3573,1.8381
34.3623,1.7596
34.3623,1.6832
34.3633,1.7434
34.3643,1.6105
34.3691,1.738
34.3691,1.9234
34.3702,1.7618
34.3702,1.6849
34.3712,1.6744
34.3754,1.5105
34.3765,1.534
34.3765,1.5565
34.3765,1.5145
34.3775,1.8394
34.3824,1.753
34.3835,1.6889
34.3835,1.6829
34.3835,1.8784
34.3897,1.9454
34.3908,1.8676
34.3908,1.7447
34.3908,1.8664
34.3918,1.8797
34.3961,1.9307
34.3970,1.7155
34.3970,1.6885
34.3980,1.7202
34.4032,1.567
34.4042,1.428
34.4042,1.5677
34.4042,1.7279
34.4052,1.8111
34.4096,1.8276
34.4102,1.8949
34.4112,1.9189
34.4112,1.8801
34.4168,1.8621
34.4176,1.6975
34.4235,1.7344
34.4366,1.6476
34.4395,1.6669
34.4395,1.8076
34.4405,1.8162
34.4405,1.7487
34.4415,1.6105
34.4415,1.6405
34.4425,1.5497
34.4425,1.4367
34.4435,1.4592
34.4435,1.6956
34.4435,1.7222
34.4445,1.7239
34.4445,1.8917
34.4454,1.7695
34.4454,1.9291
34.4464,1.8698
34.4464,1.9302
34.4476,1.8317
34.4476,1.8854
34.4504,1.7586
34.4515,1.8983
34.4515,1.9007
34.4525,1.8497
34.4525,1.8047
34.4575,1.8917
34.4575,1.9384
34.4586,1.933
34.4586,1.7852
34.4639,1.759
34.4658,1.7644
34.4658,1.6034
34.4669,1.7185
34.4669,1.7562
34.4708,1.7729
34.4708,1.6917
34.4718,1.6671
34.4718,2.0961
34.4728,2.0693
34.4778,1.9879
34.4788,1.8334
34.4788,1.6651
34.4788,1.6232
34.4848,1.6217
34.4858,1.6855
34.4858,1.927
34.4868,1.8991
34.4868,1.9034
34.4916,1.9411
34.4926,1.8721
34.4926,1.9131
34.4926,1.8331
34.4988,1.8492
34.4992,1.8347
34.5003,1.8117
34.5003,1.8271
34.5013,1.8216
34.5051,1.7054
34.5051,1.6551
34.5062,1.6517
34.5062,1.7539
34.5114,1.7275
34.5126,1.7037
34.5135,1.6776
34.5135,1.5977
34.5145,1.7719
34.5184,1.9703
34.5194,1.81
34.5194,1.8831
34.5205,1.7736
34.5205,1.7072
34.5254,1.7594
34.5254,1.6752
34.5264,1.6341
34.5264,1.6441
34.5334,1.6832
34.5474,1.6011
34.5504,1.6992
34.5513,1.7554
34.5513,1.7086
34.5525,1.5552
34.5525,1.5152
34.5533,1.7897
34.5533,1.6817
34.5543,1.6414
34.5543,1.5704
34.5553,1.6345
34.5553,1.6283
34.5553,1.645
34.5563,1.9523
34.5563,1.9159
34.5573,1.828
34.5573,1.7635
34.5596,1.6602
34.5604,1.599
34.5604,1.6317
34.5604,1.4839
34.5613,1.5195
34.5659,1.5608
34.5670,1.8154
34.5670,1.7987
34.5670,1.6877
34.5680,1.6154
34.5730,1.7106
34.5730,1.7659
34.5740,1.7432
34.5740,1.7309
34.5805,1.6561
34.5812,1.5968
34.5822,1.5735
34.5832,1.5585
34.5832,1.5702
34.5868,1.567
34.5877,1.7536
34.5877,1.8014
34.5887,1.6607
34.5939,1.7305
34.5939,1.6791
34.5949,1.614
34.5949,1.5539
34.5959,1.6257
34.6003,1.6422
34.6013,1.5182
34.6013,1.7547
34.6023,1.7234
34.6075,1.5977
34.6075,1.6396
34.6085,1.5786
34.6085,1.4899
34.6094,1.3917
34.6137,1.6922
34.6148,1.6977
34.6148,1.6095
34.6158,1.5773
34.6158,1.6883
34.6207,1.8497
34.6207,1.7959
34.6218,1.69
34.6218,1.6452
34.6280,1.7871
34.6290,1.7357
34.6290,1.6232
34.6300,1.5885
34.6300,1.6009
34.6342,1.7322
34.6352,1.6739
34.6352,1.6159
34.6362,1.5357
34.6415,1.5049
34.6546,1.8447
34.6571,1.8522
34.6571,1.8649
34.6581,1.7057
34.6581,1.557
34.6591,1.5021
34.6591,1.4352
34.6601,1.6772
34.6601,1.9199
34.6611,1.8908
34.6611,1.6501
34.6621,1.5979
34.6621,1.57
34.6631,1.5482
34.6631,1.6124
34.6641,1.8636
34.6647,1.8061
34.6652,1.7521
34.6682,1.6894
34.6692,1.7196
34.6694,1.6652
34.6701,1.7069
34.6752,1.6851
34.6761,1.596
34.6761,1.564
34.6771,1.5434
34.6771,1.6054
34.6822,1.6454
34.6827,1.5917
34.6827,1.5409
34.6840,1.5795
34.6895,1.6199
34.6895,1.7035
34.6905,1.8098
34.6905,1.7522
34.6905,1.6844
34.6954,1.6842
34.6954,1.4541
34.6964,1.3911
34.6974,1.437
34.7026,1.5722
34.7026,1.6502
34.7037,1.7074
34.7037,1.6771
34.7047,1.6056
34.7113,1.5514
34.7113,1.6532
34.7124,1.7787
34.7124,1.7886
34.7133,1.7736
34.7176,1.6525
34.7176,1.6075
34.7186,1.6919
34.7186,1.7072
34.7249,1.5284
34.7249,1.5137
34.7259,1.5344
34.7259,1.6403
34.7269,1.8171
34.7315,1.7991
34.7315,1.7517
34.7325,1.6906
34.7325,1.8121
34.7385,1.6922
34.7385,1.6304
34.7396,1.6463
34.7396,1.5533
34.7408,1.5295
34.7448,1.5278
34.7459,1.7479
34.7460,1.8865
34.7460,1.9154
34.7522,1.8169
34.7638,1.7327
34.7670,1.7704
34.7680,1.7753
34.7680,1.567
34.7690,1.7031
34.7690,1.6463
34.7700,1.5479
34.7700,1.6058
34.7700,1.5884
34.7710,1.5672
34.7710,1.5297
34.7720,1.5582
34.7720,1.7654
34.7732,1.7168
34.7732,1.7196
34.7742,1.8604
34.7742,1.7132
34.7752,1.6911
34.7788,1.5827
34.7788,1.6456
34.7798,1.5394
34.7808,1.7446
34.7862,1.5383
34.7862,1.5375
34.7872,1.6787
34.7872,1.7524
34.7882,1.987
34.7924,2.0275
34.7934,1.9405
34.7934,1.7963
34.7934,1.8694
34.7992,1.7959
34.7992,1.822
34.8002,1.8535
34.8002,1.7125
34.8015,1.7361
34.8056,1.6812
34.8068,1.702
34.8068,1.7755
34.8068,1.7444
34.8078,1.6056
34.8130,1.5816
34.8130,1.5818
34.8140,1.654
34.8150,1.6381
34.8202,1.681
34.8202,1.6517
34.8213,1.6095
34.8213,1.4987
34.8223,1.3465
34.8267,1.285
34.8267,1.3077
34.8277,1.7417
34.8277,1.7342
34.8340,1.8014
34.8342,1.8248
34.8342,1.7481
34.8352,1.7627
34.8352,1.8066
34.8398,1.6495
34.8398,1.5715
34.8409,1.6664
34.8409,1.5994
34.8468,1.5975
34.8468,1.5362
34.8479,1.483
34.8479,1.4453
34.8489,1.5375
34.8531,1.5409
34.8531,1.6296
34.8541,1.597
34.8541,1.7177
34.8551,1.6636
34.8734,1.594
34.8764,1.5889
34.8773,1.6163
34.8773,1.597
34.8785,1.7056
34.8786,1.7059
34.8786,1.6598
34.8797,1.6392
34.8797,1.6681
34.8808,1.7485
34.8816,1.7213
34.8816,1.7018
34.8826,1.6379
34.8826,1.513
34.8826,1.4601
34.8836,1.5257
34.8836,1.6135
34.8848,1.6251
34.8872,1.6345
34.8879,1.5546
34.8879,1.5218
34.8889,1.6591
34.8945,1.8057
34.8945,1.684
34.8956,1.6249
34.8956,1.5085
34.8965,1.593
34.9004,1.5715
34.9014,1.3206
34.9014,1.2799
34.9014,1.2747
34.9026,1.2752
34.9076,1.5833
34.9076,1.789
34.9088,1.6814
34.9088,1.8265
34.9148,1.8584
34.9158,1.8475
34.9158,1.8655
34.9168,1.8895
34.9168,1.9118
34.9212,1.966
34.9222,2.0294
34.9222,2.0914
34.9232,2.0834
34.9284,2.1696
34.9284,2.1681
34.9295,2.2958
34.9295,2.2229
34.9304,2.1389
34.9348,2.0547
34.9357,1.8835
34.9357,1.8173
34.9357,1.7354
34.9418,1.6272
34.9418,1.6544
34.9428,1.5758
34.9428,1.4462
34.9440,1.3632
34.9480,1.3789
34.9491,1.4695
34.9493,1.6347
34.9493,1.6973
34.9503,1.5692
34.9545,1.6583
34.9555,1.4772
34.9555,1.539
34.9565,1.5735
34.9623,1.6092
34.9623,1.6793
34.9634,1.5992
34.9644,1.6135
34.9713,1.5767
34.9865,1.6714
34.9907,1.6711
34.9907,1.7067
34.9917,1.6568
34.9917,1.6161
34.9917,1.6546
34.9928,1.5921
34.9928,1.569
34.9938,1.5501
34.9938,1.5237
34.9948,1.4985
34.9948,1.6649
34.9948,1.7678
34.9959,1.6407
34.9967,1.6872
34.9967,1.7089
34.9979,1.7102
34.9979,1.7121
34.9988,1.7382
34.9988,1.7708
34.9998,1.546
34.9998,1.4742
35.0008,1.5351
35.0019,1.5353
35.0030,1.4999
35.0030,1.3626
35.0040,1.4114
35.0098,1.7444
35.0098,1.7116
35.0108,1.5794
35.0108,1.7541
35.0120,1.7802
35.0162,1.7252
35.0162,1.6214
35.0172,1.6831
35.0172,1.6122
35.0233,1.6152
35.0233,1.6172
35.0244,1.6065
35.0244,1.4978
35.0256,1.533
35.0298,1.5445
35.0311,1.5357
35.0311,1.4834
35.0321,1.5685
35.0367,1.7869
35.0367,1.8816
35.0377,1.8289
35.0377,1.7935
35.0387,1.7127
35.0433,1.6699
35.0451,1.6039
35.0462,1.632
35.0471,1.5702
35.0484,1.614
35.0504,1.6394
35.0504,1.5814
35.0504,1.699
35.0514,1.7134
35.0575,1.8364
35.0575,1.8302
35.0595,1.8001
35.0605,1.804
35.0605,1.7305
35.0636,1.4684
35.0646,1.6941
35.0647,1.5308
35.0647,1.7132
35.0708,1.7198
35.0708,1.7202
35.0718,1.6596
35.0718,1.7189
35.0728,1.7333
35.0798,1.6744
35.0920,1.7127
35.0949,1.6319
35.0949,1.5966
35.0959,1.5773
35.0959,1.573
35.0973,1.6296
35.0980,1.6094
35.0980,1.6394
35.0992,1.75
35.0992,1.7076
35.1002,1.7423
35.1002,1.7408
35.1002,1.6832
35.1012,1.744
35.1012,1.6184
35.1022,1.5479
35.1022,1.5068
35.1050,1.4612
35.1056,1.4592
35.1056,1.471
35.1066,1.6628
35.1066,1.5587
35.1116,1.564
35.1126,1.5432
35.1126,1.5959
35.1126,1.7427
35.1188,1.7987
35.1188,1.6094
35.1198,1.5994
35.1198,1.6714
35.1208,1.7389
35.1248,1.7504
35.1259,1.8186
35.1259,1.9015
35.1269,1.864
35.1321,1.7922
35.1321,1.7866
35.1331,1.8047
35.1331,1.8467
35.1344,1.8481
35.1384,1.8467
35.1396,1.723
35.1396,1.5542
35.1406,1.5282
35.1406,1.7515
35.1459,1.8199
35.1459,1.7941
35.1469,1.7566
35.1469,1.7661
35.1526,1.921
35.1534,1.945
35.1534,1.9472
35.1544,1.9052
35.1544,1.7963
35.1590,1.8291
35.1598,1.7794
35.1598,1.7971
35.1608,1.8269
35.1663,1.8257
35.1663,1.7774
35.1674,1.6531
35.1674,1.6994
35.1684,1.7086
35.1726,1.7087
35.1737,1.6714
35.1737,1.6542
35.1747,1.5495
35.1791,1.5374
35.1802,1.6756
35.1812,1.8092
35.1812,1.7716
35.1812,1.72
35.1893,1.7202
35.2032,1.7372
35.2055,1.7003
35.2067,1.7144
35.2075,1.7361
35.2075,1.6838
35.2075,1.6305
35.2085,1.786
35.2085,1.7963
35.2095,1.599
35.2095,1.6125
35.2105,1.6831
35.2105,1.6049
35.2115,1.546
35.2115,1.5747
35.2125,1.4391
35.2127,1.4899
35.2127,1.4972
35.2137,1.7207
35.2137,1.8724
35.2147,1.7836
35.2147,1.8816
35.2157,1.5674
35.2201,1.596
35.2211,1.6313
35.2211,1.6247
35.2221,1.5192
35.2272,1.5687
35.2272,1.6199
35.2283,1.7646
35.2283,1.7301
35.2295,1.6484
35.2335,1.6622
35.2347,1.6191
35.2348,1.6064
35.2348,1.5479
35.2358,1.5698
35.2400,1.6626
35.2410,1.599
35.2410,1.6026
35.2420,1.4954
35.2477,1.5829
35.2486,1.5897
35.2486,1.6821
35.2496,1.6688
35.2496,1.6386
35.2545,1.6251
35.2555,1.6587
35.2555,1.6776
35.2565,1.6883
35.2618,1.7279
35.2621,1.6019
35.2632,1.4198
35.2632,1.5177
35.2641,1.4822
35.2675,1.6032
35.2725,1.7018
35.2725,1.8167
35.2738,1.7995
35.2748,1.7534
35.2748,1.6741
35.2758,1.7856
35.2758,1.7526
35.2768,1.6358
35.2813,1.576
35.2824,1.5942
35.2824,1.5895
35.2824,1.5473
35.2834,1.5644
35.2883,1.6043
35.2883,1.7297
35.2894,1.7813
35.2894,1.7305
35.2990,1.6041
35.3127,1.5079
35.3157,1.497
35.3157,1.6583
35.3167,1.6319
35.3167,1.576
35.3177,1.5447
35.3177,1.563
35.3187,1.4751
35.3187,1.4873
35.3197,1.5002
35.3197,1.4685
35.3197,1.6613
35.3207,1.5884
35.3207,1.5679
35.3217,1.6204
35.3217,1.6139
35.3227,1.6381
35.3227,1.7344
35.3227,1.7044
35.3237,1.6801
35.3237,1.7063
35.3247,1.6491
35.3288,1.6476
35.3296,1.6846
35.3296,1.7513
35.3308,1.6842
35.3319,1.7352
35.3357,1.6988
35.3367,1.6632
35.3369,1.6277
35.3369,1.5917
35.3434,1.5409
35.3443,1.5906
35.3443,1.5807
35.3443,1.528
35.3453,1.5426
35.3498,1.5617
35.3498,1.6137
35.3508,1.6964
35.3508,1.6652
35.3568,1.7963
35.3574,1.7455
35.3574,1.7356
35.3587,1.6396
35.3587,1.7001
35.3637,1.6247
35.3644,1.6255
35.3645,1.6292
35.3645,1.4929
35.3700,1.5368
35.3700,1.6238
35.3710,1.705
35.3710,1.5957
35.3720,1.5689
35.3766,1.5522
35.3775,1.7104
35.3775,1.6705
35.3785,1.5645
35.3785,1.5385
35.3837,1.5685
35.3837,1.5565
35.3847,1.5876
35.3847,1.623
35.3909,1.7952
35.3909,1.7817
35.3919,1.7112
35.3919,1.6358
35.3931,1.6846
35.3972,1.6397
35.3984,1.669
35.3984,1.6221
35.3984,1.6105
35.4062,1.4995
35.4225,1.5758
35.4255,1.5027
35.4255,1.5359
35.4264,1.5627
35.4264,1.5559
35.4276,1.6716
35.4277,1.7157
35.4277,1.7948
35.4287,1.717
35.4287,1.783
35.4297,1.7899
35.4297,1.6806
35.4313,1.6859
35.4317,1.7138
35.4317,1.7209
35.4327,1.7331
35.4327,1.6146
35.4338,1.6817
35.4340,1.6514
35.4340,1.5959
35.4352,1.5559
35.4360,1.6414
35.4404,1.6337
35.4404,1.597
35.4414,1.6831
35.4414,1.6185
35.4424,1.6482
35.4465,1.7648
35.4476,1.8342
35.4488,1.7864
35.4496,1.7933
35.4537,1.8501
35.4537,1.8205
35.4548,1.7412
35.4548,1.6951
35.4558,1.5764
35.4600,1.5229
35.4610,1.4459
35.4610,1.3264
35.4620,1.3249
35.4671,1.3103
35.4671,1.6032
35.4682,1.7821
35.4682,1.7571
35.4694,1.6572
35.4733,1.6354
35.4743,1.6679
35.4743,1.7057
35.4743,1.7507
35.4755,1.7072
35.4805,1.6742
35.4815,1.7024
35.4817,1.6651
35.4825,1.6531
35.4877,1.6285
35.4887,1.524
35.4887,1.5559
35.4887,1.584
35.4897,1.6754
35.4940,1.629
35.4951,1.5239
35.4951,1.5585
35.4961,1.5435
35.5012,1.5156
35.5012,1.5685
35.5023,1.5085
35.5023,1.4967
35.5033,1.498
35.5074,1.5032
35.5085,1.609
35.5085,1.7487
35.5085,1.6266
35.5178,1.6242
35.5321,1.6741
35.5350,1.6879
35.5360,1.6429
35.5363,1.623
35.5371,1.5953
35.5371,1.6347
35.5381,1.6159
35.5381,1.5857
35.5391,1.4894
35.5391,1.4755
35.5391,1.4781
35.5401,1.4796
35.5401,1.6259
35.5411,1.672
35.5411,1.6512
35.5421,1.6527
35.5422,1.6433
35.5422,1.6397
35.5436,1.5934
35.5436,1.5023
35.5443,1.5064
35.5443,1.456
35.5485,1.4524
35.5485,1.5064
35.5495,1.456
35.5495,1.5089
35.5505,1.4335
35.5549,1.4916
35.5549,1.5655
35.5559,1.5591
35.5559,1.5377
35.5622,1.3677
35.5622,1.4099
35.5632,1.6379
35.5642,1.8404
35.5652,2.1906
35.5686,2.1083
35.5695,2.1059
35.5695,2.2083
35.5705,2.2581
35.5707,2.1586
35.5758,2.0221
35.5759,2.0826
35.5759,2.0011
35.5769,1.9814
35.5826,2.0149
35.5826,1.8134
35.5837,1.7716
35.5837,1.6345
35.5847,1.6015
35.5892,1.4415
35.5902,1.6208
35.5902,1.5874
35.5912,1.5424
35.5962,1.7057
35.5972,1.7087
35.5972,1.6388
35.5972,1.5368
35.5985,1.5218
35.6028,1.5692
35.6028,1.6067
35.6041,1.6292
35.6041,1.6795
35.6097,1.6817
35.6097,1.7543
35.6107,1.5805
35.6107,1.5934
35.6107,1.6024
35.6158,1.6163
35.6169,1.5248
35.6169,1.5469
35.6169,1.5227
35.6179,1.5552
35.6386,1.6043
35.6415,1.5477
35.6425,1.5015
35.6425,1.5942
35.6438,1.587
35.6438,1.6024
35.6448,1.596
35.6448,1.6274
35.6458,1.6906
35.6458,1.6686
35.6468,1.6666
35.6468,1.6825
35.6479,1.6452
35.6479,1.6568
35.6488,1.6439
35.6488,1.6435
35.6500,1.5394
35.6500,1.3776
35.6510,1.4459
35.6510,1.5087
35.6520,1.5696
35.6520,1.6636
35.6574,1.6628
35.6574,1.8304
35.6585,1.8175
35.6585,1.7348
35.6595,1.6448
35.6637,1.5297
35.6647,1.464
35.6657,1.4485
35.6657,1.4522
35.6670,1.5329
35.6710,1.5899
35.6710,1.5754
35.6720,1.7072
35.6720,1.7487
35.6785,1.8608
35.6785,1.7322
35.6795,1.6615
35.6795,1.6382
35.6805,1.6343
35.6840,1.5773
35.6850,1.6227
35.6850,1.6193
35.6860,1.4961
35.6916,1.4952
35.6916,1.5413
35.6927,1.5554
35.6927,1.6371
35.6937,1.6032
35.6977,1.6797
35.6988,1.6967
35.6988,1.624
35.6988,1.6169
35.7051,1.5559
35.7051,1.6165
35.7064,1.5897
35.7064,1.7022
35.7064,1.6999
35.7117,1.6868
35.7117,1.6902
35.7128,1.7269
35.7128,1.7007
35.7137,1.7459
35.7180,1.774
35.7190,1.7071
35.7190,1.5096
35.7200,1.4125
35.7258,1.3182
35.7258,1.3131
35.7269,1.5842
35.7269,1.606
35.7280,1.5089
35.7364,1.5156
35.7494,1.7219
35.7521,1.819
35.7521,1.8801
35.7531,1.891
35.7531,1.8351
35.7541,1.7708
35.7541,1.6463
35.7551,1.738
35.7551,1.7026
35.7561,1.6634
35.7561,1.6274
35.7561,1.4558
35.7574,1.4453
35.7574,1.5835
35.7584,1.4991
35.7584,1.5747
35.7594,1.6444
35.7594,1.792
35.7604,1.6307
35.7604,1.6311
35.7604,1.6763
35.7614,1.5098
35.7659,1.9178
35.7666,1.9926
35.7666,1.9536
35.7676,1.7742
35.7732,1.599
35.7742,1.617
35.7742,1.7633
35.7742,1.7956
35.7753,1.5951
35.7797,1.5737
35.7807,1.5959
35.7821,1.6364
35.7826,1.6469
35.7866,1.7356
35.7866,1.7987
35.7876,1.7089
35.7876,1.7772
35.7886,1.8477
35.7930,1.8406
35.7940,1.9004
35.7940,1.7881
35.7940,1.6643
35.8001,1.6921
35.8001,1.7147
35.8011,1.6754
35.8011,1.765
35.8023,1.7774
35.8063,1.632
35.8073,1.5994
35.8076,1.5109
35.8076,1.4104
35.8086,1.4185
35.8128,1.4091
35.8138,1.7397
35.8138,2.0299
35.8148,2.1057
35.8206,2.026
35.8206,2.0222
35.8216,2.0067
35.8216,1.9532
35.8226,1.7817
35.8267,1.6302
35.8278,1.6568
35.8278,1.6954
35.8288,1.7781
35.8340,1.6924
35.8340,1.4447
35.8351,1.4357
35.8351,1.3082
35.8363,1.2696
35.8449,1.2674
35.8581,1.3517
35.8610,1.789
35.8610,2.1001
35.8621,2.0706
35.8621,1.9036
35.8631,1.7267
35.8640,1.6906
35.8647,1.7905
35.8651,1.8014
35.8651,1.7725
35.8661,1.7256
35.8661,1.5696
35.8671,1.45
35.8677,1.4929
35.8681,1.566
35.8681,1.7029
35.8681,1.7114
35.8691,1.462
35.8691,1.3778
35.8704,1.4565
35.8704,1.5186
35.8713,1.5299
35.8742,1.5732
35.8753,1.6752
35.8753,1.7144
35.8762,1.7164
35.8815,1.6238
35.8827,1.6973
35.8827,1.6229
35.8837,1.6026
35.8837,1.5413
35.8873,1.4963
35.8884,1.4655
35.8884,1.4475
35.8894,1.4667
35.8947,1.5368
35.8947,1.5428
35.8958,1.3727
35.8958,1.4265
35.8968,1.5319
35.9011,1.3403
35.9020,1.4894
35.9020,1.5527
35.9030,1.5668
35.9033,1.5629
35.9083,1.4699
35.9083,1.3984
35.9083,1.5308
35.9095,1.8961
35.9149,1.9746
35.9159,1.912
35.9159,1.7717
35.9169,1.4695
35.9169,1.4089
35.9215,1.3947
35.9226,1.5149
35.9226,1.5694
35.9236,1.681
35.9287,1.762
35.9287,1.6555
35.9298,1.5246
35.9298,1.4295
35.9308,1.6082
35.9352,1.7558
35.9352,1.9392
35.9362,2.1589
35.9362,2.0359
35.9419,1.6733
35.9429,1.6229
35.9430,1.5531
35.9430,1.3247
35.9441,1.6598
35.9485,1.5664
35.9485,1.5389
35.9495,1.5771
35.9495,1.4798
35.9505,1.5079
35.9557,1.5257
35.9557,1.5809
35.9557,1.4565
35.9567,1.5158
35.9645,1.5289
35.9810,1.5074
35.9839,1.543
35.9849,1.5329
35.9849,1.5255
35.9860,1.5734
35.9860,1.5317
35.9870,1.4609
35.9870,1.482
35.9880,1.5775
35.9882,1.7303
35.9882,1.6958
35.9892,1.6829
35.9892,1.5627
35.9902,1.4678
35.9902,1.4706
35.9912,1.4436
35.9912,1.3759
35.9912,1.5081
35.9922,1.5799
35.9922,1.6309
35.9934,1.8256
35.9934,1.7806
35.9958,1.6926
35.9958,1.735
35.9968,1.7479
35.9979,1.7003
35.9979,1.6566
36.0021,1.5891
36.0031,1.5246
36.0031,1.6397
36.0043,1.6487
36.0103,1.6144
36.0103,1.6654
36.0113,1.7326
36.0113,1.7344
36.0113,1.6427
36.0160,1.597
36.0168,1.5119
36.0168,1.5649
36.0178,1.4618
36.0234,1.4322
36.0234,1.5745
36.0246,1.9289
36.0246,1.4832
36.0255,1.5392
36.0296,1.5687
36.0307,1.8404
36.0317,1.9647
36.0317,1.9092
36.0368,1.8379
36.0368,1.6339
36.0379,1.3815
36.0379,1.3658
36.0388,1.5269
36.0430,1.5145
36.0441,1.6696
36.0441,1.7091
36.0441,1.6759
36.0451,1.7693
36.0504,1.9934
36.0504,1.9107
36.0504,1.9062
36.0515,1.7393
36.0576,1.7213
36.0576,1.7671
36.0586,1.7543
36.0596,1.6392
36.0596,1.7457
36.0633,1.72
36.0644,1.6594
36.0644,1.6249
36.0653,1.5164
36.0716,1.3793
36.0819,1.4807
36.0913,1.4502
36.0933,1.3645
36.0943,1.3459
36.0943,1.3013
36.0955,1.4515
36.0955,1.7607
36.0966,1.9615
36.0966,1.8066
36.0975,1.6531
36.0975,1.5951
36.0985,1.6439
36.0985,1.6589
36.0995,1.6037
36.0995,1.7372
36.1005,1.6574
36.1005,1.5711
36.1018,1.5704
36.1018,1.5672
36.1027,1.5186
36.1027,1.4648
36.1037,1.5638
36.1047,1.5165
36.1047,1.6482
36.1056,1.5878
36.1056,1.4159
36.1066,1.5709
36.1108,1.537
36.1119,1.5244
36.1119,1.6142
36.1130,1.8467
36.1184,1.6864
36.1184,1.612
36.1194,1.8186
36.1194,1.6576
36.1204,1.6872
36.1241,1.6365
36.1252,1.5392
36.1252,1.6446
36.1252,1.5645
36.1315,1.5222
36.1315,1.5632
36.1326,1.5334
36.1326,1.5589
36.1335,1.6178
36.1379,1.5437
36.1379,1.4434
36.1389,1.4273
36.1389,1.432
36.1401,1.6294
36.1451,1.6579
36.1451,1.5816
36.1451,1.7035
36.1464,1.7335
36.1521,1.7104
36.1527,1.7155
36.1527,1.7828
36.1537,1.6349
36.1537,1.4277
36.1586,1.4601
36.1586,1.4209
36.1596,1.4136
36.1596,1.48
36.1655,1.5355
36.1655,1.516
36.1665,1.5126
36.1665,1.5062
36.1675,1.5105
36.1740,1.3836
36.1740,1.2752
36.1750,1.2764
36.1750,1.7834
36.1803,1.7307
36.1803,1.8242
36.1813,1.9996
36.1813,1.9892
36.1823,1.9889
36.1875,1.9306
36.2009,1.9947
36.2038,2.2139
36.2047,2.2154
36.2047,2.1426
36.2057,2.2165
36.2057,2.0969
36.2067,1.9328
36.2067,1.7299
36.2079,1.6281
36.2080,1.672
36.2080,1.7374
36.2090,1.8529
36.2090,1.6817
36.2100,1.594
36.2100,1.3836
36.2110,1.257
36.2110,1.2617
36.2144,1.495
36.2144,1.8211
36.2155,1.6555
36.2155,1.6302
36.2165,1.5634
36.2207,1.6185
36.2218,1.626
36.2218,1.5957
36.2228,1.6382
36.2279,1.6155
36.2279,1.5113
36.2289,1.5312
36.2289,1.6034
36.2299,1.5906
36.2342,1.6885
36.2353,1.7129
36.2353,1.8377
36.2353,1.8437
36.2363,1.6202
36.2415,1.654
36.2415,1.6131
36.2415,1.5617
36.2427,1.6035
36.2486,1.5914
36.2486,1.5604
36.2496,1.6127
36.2496,1.6718
36.2506,1.6885
36.2547,1.6442
36.2558,1.7796
36.2558,1.7474
36.2568,1.7451
36.2618,1.6804
36.2618,1.4685
36.2629,1.4792
36.2629,1.533
36.2638,1.5612
36.2682,1.5874
36.2693,1.6939
36.2693,1.5589
36.2693,1.4993
36.2757,1.6456
36.2798,1.6793
36.2810,1.7969
36.2810,1.8044
36.2810,1.7974
36.2821,1.7249
36.2821,1.7084
36.2831,1.8242
36.2831,1.8374
36.2841,1.7545
36.2880,1.6476
36.2890,1.5992
36.2890,1.4854
36.2900,1.4577
36.2980,1.8173
36.3149,1.8316
36.3179,1.7389
36.3189,1.7515
36.3200,1.5509
36.3200,1.5032
36.3200,1.5465
36.3210,1.6844
36.3210,1.588
36.3220,1.6894
36.3220,1.6045
36.3229,1.6819
36.3229,1.5919
36.3240,1.6101
36.3240,1.6769
36.3250,1.8413
36.3250,1.8122
36.3259,1.7339
36.3259,1.7281
36.3269,1.8499
36.3269,1.6358
36.3269,1.4888
36.3279,1.4264
36.3293,1.5272
36.3303,1.5698
36.3312,1.5514
36.3313,1.6382
36.3313,1.6771
36.3363,1.8079
36.3363,1.7506
36.3373,1.8392
36.3373,1.8016
36.3435,1.7612
36.3435,1.8426
36.3446,1.8091
36.3446,1.7944
36.3455,1.7322
36.3501,1.7057
36.3501,1.8203
36.3511,1.8407
36.3511,1.6801
36.3573,1.7342
36.3573,1.7121
36.3583,1.6152
36.3583,1.6613
36.3593,1.5932
36.3634,1.5385
36.3643,1.4605
36.3643,1.5345
36.3654,1.6512
36.3706,1.7151
36.3706,1.8473
36.3716,1.8668
36.3716,1.8552
36.3726,1.9592
36.3768,2.0196
36.3777,1.7802
36.3777,1.5803
36.3787,1.6253
36.3787,1.7899
36.3837,1.663
36.3847,1.6446
36.3847,1.669
36.3847,1.7442
36.3913,1.7867
36.3919,1.822
36.3919,1.8372
36.3930,1.6836
36.3930,1.6238
36.3970,1.7401
36.3980,1.7132
36.3980,1.8147
36.3990,1.7192
36.4063,1.7399
36.4203,1.5927
36.4232,1.9268
36.4232,1.9377
36.4242,1.9561
36.4242,1.9246
36.4252,2.0365
36.4252,1.9126
36.4262,1.9261
36.4262,1.9765
36.4272,1.9094
36.4272,1.7271
36.4282,1.6587
36.4282,1.567
36.4292,1.6544
36.4292,1.5998
36.4302,1.8861
36.4302,1.8745
36.4312,1.8889
36.4312,1.8269
36.4322,1.8857
36.4322,1.8413
36.4332,1.8466
36.4388,1.8047
36.4388,1.6977
36.4398,1.7442
36.4398,1.7125
36.4409,1.5747
36.4452,1.6894
36.4460,1.6075
36.4470,1.6262
36.4487,1.8597
36.4524,1.7149
36.4524,1.6392
36.4534,1.5773
36.4534,1.7206
36.4544,1.8914
36.4587,1.9172
36.4598,1.8445
36.4598,1.6304
36.4608,1.5524
36.4658,1.5006
36.4666,1.4584
36.4666,1.5494
36.4666,1.5803
36.4676,1.5675
36.4726,1.7249
36.4726,1.7125
36.4736,1.7519
36.4736,1.7254
36.4746,1.7819
36.4786,1.7221
36.4796,1.6937
36.4796,1.5049
36.4806,1.651
36.4866,1.7311
36.4866,1.69
36.4876,1.8349
36.4876,1.7991
36.4886,1.7573
36.4926,1.8546
36.4936,1.6864
36.4936,1.6396
36.4946,1.6092
36.4996,1.5132
36.5006,1.4719
36.5016,1.3326
36.5016,1.3414
36.5026,1.3352
36.5060,1.44
36.5066,1.486
36.5066,1.4764
36.5076,1.6431
36.5131,1.8456
36.5206,1.9171
36.5345,1.9268
36.5376,1.7581
36.5385,1.5799
36.5385,1.5456
36.5395,1.4695
36.5395,1.3724
36.5405,1.4599
36.5405,1.5154
36.5415,1.4849
36.5415,1.6287
36.5425,1.7116
36.5425,1.6572
36.5425,1.7689
36.5435,1.7346
36.5435,1.7693
36.5445,1.6763
36.5445,1.6112
36.5455,1.6534
36.5455,1.7434
36.5465,1.7074
36.5476,1.6456
36.5476,1.5874
36.5486,1.675
36.5486,1.7601
36.5496,1.6853
36.5496,1.6628
36.5535,1.6478
36.5545,1.57
36.5545,1.7087
36.5555,1.7986
36.5608,1.8231
36.5608,1.7266
36.5617,1.5784
36.5617,1.5291
36.5629,1.405
36.5669,1.3294
36.5669,1.6367
36.5679,1.7266
36.5679,1.7067
36.5689,1.7132
36.5738,1.7125
36.5738,1.7438
36.5748,1.7419
36.5748,1.6602
36.5811,1.5137
36.5811,1.5934
36.5821,1.6124
36.5821,1.5885
36.5831,1.626
36.5872,1.5942
36.5883,1.5951
36.5883,1.5499
36.5893,1.5872
36.5944,1.5415
36.5944,1.5434
36.5955,1.6688
36.5955,1.7003
36.5965,1.7217
36.6008,1.759
36.6016,1.7551
36.6016,1.6536
36.6026,1.6583
36.6078,1.6752
36.6078,1.6461
36.6088,1.6416
36.6088,1.6746
36.6098,1.8122
36.6140,1.8001
36.6150,1.8057
36.6150,1.7228
36.6150,1.5257
36.6160,1.5649
36.6260,1.4721
36.6399,1.3772
36.6431,1.6028
36.6431,1.6135
36.6439,1.7339
36.6439,1.6868
36.6449,1.783
36.6449,1.6996
36.6462,1.5666
36.6462,1.5017
36.6475,1.7187
36.6482,1.9118
36.6492,1.9232
36.6492,1.8452
36.6502,1.7757
36.6502,1.8533
36.6512,1.8469
36.6512,1.609
36.6512,1.6482
36.6524,1.6322
36.6524,1.6896
36.6534,1.879
36.6555,1.8692
36.6555,1.891
36.6565,1.8923
36.6565,1.7305
36.6577,1.6253
36.6616,1.5188
36.6627,1.5351
36.6627,1.624
36.6637,1.5662
36.6638,1.5499
36.6690,1.5685
36.6690,1.4258
36.6699,1.4082
36.6699,1.4625
36.6757,1.4864
36.6757,1.6035
36.6768,1.6971
36.6768,1.9497
36.6778,1.8781
36.6822,1.7629
36.6830,1.6806
36.6830,1.6441
36.6840,1.6253
36.6894,1.6647
36.6894,1.6546
36.6905,1.6154
36.6905,1.7371
36.6914,1.7174
36.6956,1.7127
36.6967,1.6819
36.6967,1.6064
36.6967,1.5975
36.7028,1.5842
36.7028,1.5049
36.7039,1.551
36.7039,1.5655
36.7051,1.4667
36.7091,1.3694
36.7101,1.3859
36.7104,1.4918
36.7104,1.606
36.7114,1.7121
36.7160,1.7612
36.7166,1.7027
36.7166,1.6017
36.7176,1.7213
36.7233,1.6457
36.7243,1.6761
36.7243,1.7391
36.7243,1.7721
36.7253,1.6606
36.7351,1.5306
36.7475,1.5059
36.7506,1.4952
36.7515,1.5771
36.7515,1.6039
36.7525,1.4727
36.7525,1.3311
36.7535,1.2852
36.7535,1.3896
36.7535,1.7266
36.7548,1.6568
36.7548,1.5177
36.7558,1.4309
36.7558,1.5004
36.7568,1.5503
36.7568,1.5162
36.7578,1.4149
36.7578,1.7157
36.7578,1.7181
36.7588,1.8154
36.7588,1.7204
36.7598,1.4547
36.7598,1.4646
36.7637,1.4595
36.7640,1.6656
36.7650,1.7041
36.7650,1.7597
36.7707,1.7764
36.7717,1.9752
36.7717,2.0429
36.7717,1.9469
36.7730,1.963
36.7767,2.0207
36.7773,1.8955
36.7783,1.9401
36.7785,2.0339
36.7844,2.0963
36.7844,2.0528
36.7855,1.8951
36.7855,1.8166
36.7855,1.611
36.7901,1.6266
36.7911,1.6868
36.7911,1.7061
36.7911,1.6771
36.7970,1.8175
36.7980,1.7616
36.7980,1.5569
36.7990,1.5698
36.7990,1.464
36.8038,1.5029
36.8038,1.5188
36.8048,1.4252
36.8048,1.3583
36.8058,1.3506
36.8101,1.488
36.8111,1.8106
36.8121,1.8704
36.8121,1.9446
36.8183,1.7813
36.8185,1.5347
36.8185,1.513
36.8196,1.5912
36.8196,1.6189
36.8240,1.6913
36.8250,1.7286
36.8250,1.6349
36.8260,1.6771
36.8313,1.6527
36.8313,1.6131
36.8324,1.4282
36.8324,1.357
36.8334,1.3652
36.8375,1.3682
36.8386,1.5336
36.8386,1.7582
36.8386,1.8662
36.8438,1.9079
36.8588,1.5602
36.8618,1.5128
36.8618,1.5068
36.8629,1.6176
36.8629,1.5816
36.8642,1.6969
36.8651,1.774
36.8651,1.5752
36.8661,1.7461
36.8661,1.7549
36.8671,1.7618
36.8671,1.69
36.8681,1.6771
36.8681,1.5724
36.8690,1.5602
36.8693,1.519
36.8693,1.5668
36.8703,1.5837
36.8717,1.6148
36.8726,1.6489
36.8726,1.7059
36.8736,1.8096
36.8788,1.7817
36.8788,1.6971
36.8798,1.6114
36.8810,1.5405
36.8820,1.588
36.8849,1.666
36.8860,1.7307
36.8860,1.7382
36.8869,1.6277
36.8924,1.5715
36.8926,1.596
36.8936,1.6247
36.8936,1.6887
36.8936,1.7136
36.8982,1.6819
36.8992,1.6557
36.8992,1.32
36.8992,1.3311
36.9002,1.5254
36.9065,1.4625
36.9075,1.6662
36.9075,1.8649
36.9086,1.8047
36.9142,1.8237
36.9142,1.8293
36.9152,1.8091
36.9152,1.7517
36.9162,1.5953
36.9210,1.5396
36.9220,1.5735
36.9220,1.5334
36.9220,1.4046
36.9277,1.4331
36.9277,1.354
36.9288,1.3487
36.9288,1.3437
36.9298,1.4766
36.9341,2.0447
36.9352,2.0076
36.9352,1.9519
36.9361,1.9836
36.9415,1.7961
36.9417,1.741
36.9427,1.6731
36.9427,1.6628
36.9437,1.6304
36.9472,1.5827
36.9482,1.5585
36.9542,1.6058
36.9675,1.6592
36.9706,1.6484
36.9706,1.6945
36.9716,1.8756
36.9716,1.9686
36.9726,1.9763
36.9726,1.9375
36.9726,1.6512
36.9736,1.5274
36.9736,1.4777
36.9746,1.441
36.9746,1.4192
36.9757,1.57
36.9758,1.7048
36.9758,1.858
36.9769,1.9802
36.9769,2.0416
36.9778,1.9857
36.9778,1.6996
36.9788,1.6457
36.9819,1.5143
36.9819,1.461
36.9828,1.3806
36.9828,1.4402
36.9887,1.509
36.9887,1.4944
36.9898,1.5975
36.9898,1.7472
36.9908,1.8246
36.9951,1.6819
36.9951,1.768
36.9962,1.8004
36.9973,1.7941
36.9982,1.7987
37.0021,1.8106
37.0021,1.7881
37.0033,1.8471
37.0033,1.8374
37.0093,1.768
37.0093,1.7341
37.0104,1.6892
37.0104,1.7112
37.0113,1.7282
37.0162,1.8203
37.0162,1.7395
37.0172,1.6951
37.0172,1.593
37.0228,1.5861
37.0228,1.7597
37.0239,1.8141
37.0239,1.8057
37.0251,1.7331
37.0293,1.6354
37.0304,1.597
37.0304,1.503
37.0314,1.5713
37.0361,1.6926
37.0361,1.7547
37.0372,1.7477
37.0372,1.7228
37.0382,1.8617
37.0428,1.6981
37.0438,1.5745
37.0438,1.3722
37.0438,1.4129
37.0448,1.4877
37.0500,1.6613
37.0500,1.5797
37.0510,1.434
37.0510,1.5199
37.0625,1.7027
37.0779,1.7457
37.0818,1.6864
37.0818,1.5917
37.0830,1.4455
37.0830,1.4348
37.0839,1.4333
37.0840,1.4817
37.0840,1.4654
37.0851,1.4766
37.0851,1.5049
37.0861,1.6099
37.0861,1.6716
37.0871,1.7444
37.0871,1.7719
37.0871,1.6339
37.0883,1.7252
37.0883,1.7854
37.0894,1.6456
37.0894,1.5428
37.0903,1.6405
37.0903,1.6403
37.0913,1.5732
37.0913,1.6238
37.0913,1.6686
37.0923,1.6536
37.0923,1.6831
37.0935,1.5977
37.0975,1.4822
37.0985,1.3641
37.0995,1.3504
37.0998,1.4849
37.1052,1.4528
37.1052,1.4667
37.1060,1.6714
37.1060,1.6155
37.1070,1.6266
37.1107,1.7102
37.1118,1.7453
37.1118,1.765
37.1118,1.7256
37.1180,1.7144
37.1188,1.7348
37.1188,1.7648
37.1198,1.6744
37.1198,1.6622
37.1244,1.5434
37.1255,1.3905
37.1255,1.2932
37.1255,1.2777
37.1315,1.3508
37.1315,1.44
37.1326,1.4134
37.1326,1.4273
37.1338,1.7241
37.1377,1.7912
37.1387,1.6
37.1387,1.7635
37.1387,1.596
37.1399,1.5732
37.1449,1.353
37.1449,1.4301
37.1460,1.6592
37.1461,1.7457
37.1516,1.7641
37.1526,1.7901
37.1526,1.7342
37.1536,1.7149
37.1536,1.7217
37.1580,1.6009
37.1590,1.5233
37.1599,1.7099
37.1599,1.5996
37.1657,1.5062
37.1667,1.4537
37.1667,1.6589
37.1677,1.602
37.1677,1.5387
37.1719,1.557
37.1729,1.6469
37.1729,1.663
37.1739,1.6936
37.1792,1.5992
37.1792,1.609
37.1803,1.5381
37.1803,1.6377
37.1855,1.6874
37.1997,1.5998
37.2027,1.6474
37.2027,1.6819
37.2038,1.5732
37.2038,1.5533
37.2048,1.5437
37.2048,1.6564
37.2048,1.6613
37.2058,1.6827
37.2058,1.6054
37.2068,1.576
37.2068,1.5762
37.2078,1.5162
37.2078,1.5092
37.2088,1.5233
37.2088,1.4858
37.2088,1.6013
37.2098,1.7875
37.2129,1.7716
37.2137,1.7624
37.2147,1.7822
37.2147,1.8597
37.2157,1.7444
37.2196,1.6347
37.2205,1.5503
37.2205,1.5548
37.2215,1.6245
37.2268,1.666
37.2277,1.7479
37.2277,1.4723
37.2277,1.4948
37.2287,1.5329
37.2331,1.4967
37.2331,1.5445
37.2341,1.6855
37.2341,1.8377
37.2351,1.7927
37.2401,1.8092
37.2401,1.8316
37.2411,1.8162
37.2411,1.6799
37.2468,1.5128
37.2478,1.3716
37.2478,1.3566
37.2488,1.7236
37.2488,1.7052
37.2539,1.6095
37.2539,1.603
37.2550,1.6144
37.2550,1.5846
37.2603,1.7078
37.2612,1.6634
37.2612,1.5257
37.2622,1.4314
37.2622,1.417
37.2672,1.503
37.2672,1.3937
37.2682,1.536
37.2682,1.5409
37.2738,1.7933
37.2738,1.8021
37.2749,1.7149
37.2749,1.7933
37.2759,1.6952
37.2802,1.5795
37.2860,1.504
37.2860,1.4419
37.2860,1.5289
37.2870,1.4864
37.2870,1.482
37.2882,1.5957
37.2882,1.6259
37.2892,1.5072
37.2955,1.4982
37.3101,1.5207
37.3124,1.5465
37.3134,1.7097
37.3144,1.7116
37.3144,1.5966
37.3154,1.4819
37.3154,1.5524
37.3164,1.5707
37.3164,1.3772
37.3164,1.5053
37.3174,1.6245
37.3174,1.7297
37.3187,1.7162
37.3187,1.6748
37.3197,1.6532
37.3197,1.6307
37.3207,1.5923
37.3207,1.6493
37.3217,1.7727
37.3217,1.599
37.3217,1.5936
37.3228,1.5664
37.3277,1.6125
37.3287,1.9529
37.3287,1.8186
37.3287,1.4714
37.3301,1.4768
37.3341,1.4742
37.3351,1.3182
37.3351,1.4644
37.3363,1.4993
37.3419,1.6103
37.3419,1.4935
37.3429,1.4517
37.3429,1.4267
37.3439,1.3277
37.3483,1.3842
37.3492,1.5126
37.3492,1.6433
37.3502,1.6619
37.3556,1.6832
37.3556,1.8205
37.3566,2.1411
37.3566,2.3243
37.3576,2.2887
37.3615,2.2041
37.3626,2.0526
37.3626,1.9232
37.3635,1.8428
37.3688,1.9442
37.3688,2.0254
37.3698,2.0305
37.3698,2.0667
37.3711,2.0331
37.3749,1.9332
37.3759,1.9384
37.3759,1.9247
37.3769,1.8831
37.3771,1.741
37.3822,1.5855
37.3823,1.4485
37.3823,1.4007
37.3834,1.5876
37.3889,1.6699
37.3889,1.6654
37.3900,1.6032
37.3900,1.6997
37.3910,1.7089
37.3956,1.7431
37.3966,1.7802
37.3966,1.6996
37.3976,1.7866
37.4063,1.6891
37.4200,1.5302
37.4230,1.5569
37.4240,1.5743
37.4240,1.5051
37.4250,1.4269
37.4250,1.6369
37.4262,1.6577
37.4262,1.6352
37.4272,1.6082
37.4272,1.6967
37.4282,1.6551
37.4282,1.6821
37.4282,1.6491
37.4292,1.4397
37.4292,1.368
37.4302,1.3875
37.4312,1.4865
37.4312,1.5525
37.4325,1.7052
37.4325,1.6332
37.4332,1.6741
37.4332,1.5587
37.4370,1.6011
37.4370,1.4817
37.4382,1.6139
37.4382,1.6476
37.4393,1.6159
37.4435,1.564
37.4435,1.5735
37.4445,1.4618
37.4445,1.4659
37.4498,1.419
37.4498,1.6673
37.4509,1.7984
37.4509,1.7757
37.4519,1.8374
37.4563,1.7545
37.4574,1.7078
37.4574,1.6369
37.4574,1.5938
37.4630,1.5889
37.4639,1.6849
37.4649,1.4609
37.4649,1.3729
37.4649,1.4732
37.4697,1.4573
37.4707,1.6501
37.4707,1.7487
37.4707,1.6195
37.4720,1.6489
37.4760,1.5814
37.4772,1.5739
37.4772,1.5462
37.4782,1.566
37.4833,1.6729
37.4843,1.4905
37.4853,1.3958
37.4853,1.3439
37.4863,1.3806
37.4900,1.3662
37.4910,1.4007
37.4910,1.6437
37.4920,1.7397
37.4965,1.8462
37.4975,1.7016
37.4984,1.6056
37.4994,1.6489
37.5006,1.7095
37.5036,1.7309
37.5047,1.5443
37.5047,1.4061
37.5047,1.2722
37.5110,1.405
37.5111,1.573
37.5119,1.7637
37.5119,1.819
37.5129,1.7519
37.5173,1.8552
37.5179,1.7151
37.5179,1.6127
37.5189,1.5812
37.5189,1.4054
37.5241,1.3671
37.5241,1.2749
37.5253,1.3902
37.5367,1.4172
37.5461,1.4815
37.5492,1.6253
37.5501,1.981
37.5510,1.8861
37.5510,1.948
37.5521,1.9939
37.5521,1.6947
37.5531,1.5644
37.5531,1.5919
37.5541,1.6705
37.5541,1.4717
37.5550,1.4074
37.5550,1.4033
37.5561,1.3986
37.5561,1.4001
37.5570,1.4087
37.5570,1.4905
37.5579,1.5625
37.5580,1.8488
37.5580,1.8606
37.5590,1.8001
37.5590,1.584
37.5600,1.5527
37.5642,1.4374
37.5650,1.3875
37.5660,1.5156
37.5660,1.609
37.5670,1.7429
37.5713,1.861
37.5720,1.7599
37.5720,1.6849
37.5730,1.6521
37.5782,1.7607
37.5793,1.6026
37.5793,1.5503
37.5802,1.5203
37.5812,1.2895
37.5847,1.4136
37.5857,1.5134
37.5857,1.458
37.5857,1.6497
37.5919,1.9517
37.5919,1.8799
37.5930,1.7305
37.5930,1.6161
37.5940,1.5705
37.5983,1.6499
37.5990,1.7035
37.5990,1.7468
37.6000,1.7337
37.6054,1.819
37.6061,1.8452
37.6061,1.5681
37.6071,1.4669
37.6071,1.4828
37.6113,1.5383
37.6123,1.7219
37.6123,1.7007
37.6123,1.6673
37.6133,1.6193
37.6183,1.5927
37.6193,1.4325
37.6193,1.3587
37.6203,1.4697
37.6261,1.5169
37.6266,1.4715
37.6266,1.5263
37.6276,1.5786
37.6276,1.6049
37.6418,1.6802
37.6537,1.669
37.6567,1.696
37.6567,1.6311
37.6577,1.5745
37.6577,1.4796
37.6587,1.4196
37.6587,1.4798
37.6597,1.4262
37.6597,1.3199
37.6607,1.42
37.6607,1.4511
37.6617,1.5089
37.6617,1.5816
37.6627,1.5396
37.6627,1.6651
37.6637,1.6761
37.6643,1.6112
37.6647,1.4187
37.6647,1.3077
37.6657,1.2567
37.6657,1.2542
37.6667,1.2698
37.6677,1.4314
37.6687,1.4185
37.6687,1.5173
37.6687,1.4355
37.6755,1.5047
37.6760,1.6191
37.6765,1.6326
37.6765,1.9262
37.6775,1.8479
37.6815,1.6178
37.6825,1.4852
37.6825,1.4205
37.6835,1.3358
37.6882,1.3292
37.6892,1.429
37.6896,1.4646
37.6902,1.4633
37.6902,1.5932
37.6949,1.5379
37.6959,1.6643
37.6959,1.6982
37.6969,1.6525
37.7020,1.5263
37.7029,1.3742
37.7029,1.4378
37.7029,1.4189
37.7040,1.383
37.7082,1.4018
37.7092,1.4817
37.7092,1.5323
37.7092,1.543
37.7104,1.5495
37.7153,1.6167
37.7153,1.6592
37.7162,1.6628
37.7162,1.5713
37.7226,1.4813
37.7234,1.4234
37.7234,1.4159
37.7244,1.3304
37.7244,1.2585
37.7289,1.2563
37.7296,1.36
37.7296,1.6017
37.7306,1.6165
37.7360,1.7776
37.7360,1.6977
37.7370,1.7024
37.7370,1.8842
37.7380,1.6354
37.7464,1.6118
37.7613,1.8445
37.7653,1.623
37.7653,1.2848
37.7663,1.437
37.7663,1.3746
37.7673,1.3964
37.7673,1.4747
37.7683,1.4624
37.7683,1.5188
37.7683,1.6733
37.7693,1.525
37.7703,1.4989
37.7703,1.4481
37.7713,1.4894
37.7713,1.4699
37.7724,1.3084
37.7724,1.3827
37.7733,1.467
37.7733,1.5897
37.7743,1.6247
37.7743,1.6754
37.7743,1.6467
37.7769,1.6793
37.7769,1.6493
37.7779,1.6124
37.7779,1.5621
37.7833,1.4982
37.7842,1.4856
37.7844,1.4562
37.7844,1.4389
37.7854,1.5051
37.7898,1.432
37.7904,1.7564
37.7904,1.7834
37.7913,1.7123
37.7973,1.6133
37.7984,1.5756
37.7984,1.521
37.7993,1.4537
37.8004,1.4174
37.8033,1.399
37.8033,1.4768
37.8044,1.5124
37.8044,1.4702
37.8054,1.6375
37.8105,1.6836
37.8113,1.7712
37.8113,1.8224
37.8123,1.7699
37.8177,1.7804
37.8183,1.6019
37.8183,1.4989
37.8193,1.3964
37.8193,1.4198
37.8256,1.2458
37.8263,1.2565
37.8263,1.2726
37.8273,1.4382
37.8312,1.8374
37.8322,1.8741
37.8334,1.9536
37.8334,1.8822
37.8342,1.8923
37.8372,1.7762
37.8445,1.6881
37.8592,1.5096
37.8620,1.4179
37.8651,1.5587
37.8675,1.6202
37.8682,1.6169
37.8691,1.3883
37.8691,1.3422
37.8701,1.4571
37.8701,1.6947
37.8701,1.6626
37.8714,1.7039
37.8726,1.831
37.8732,1.7322
37.8761,1.5578
37.8761,1.5383
37.8771,1.4813
37.8771,1.4372
37.8781,1.3287
37.8781,1.3596
37.8801,1.4485
37.8821,1.5062
37.8831,1.6182
37.8841,1.6952
37.8850,1.7344
37.8851,1.63
37.8851,1.5015
37.8861,1.45
37.8871,1.497
37.8881,1.4787
37.8903,1.5143
37.8911,1.3369
37.8911,1.303
37.8921,1.2869
37.8921,1.2794
37.8931,1.4481
37.8931,1.6013
37.8941,1.6735
37.8951,1.6596
37.8971,1.5597
37.8980,1.4747
37.8991,1.4768
37.8991,1.4494
37.9001,1.5945
37.9005,1.5854
37.9060,1.528
37.9060,1.4372
37.9060,1.438
37.9070,1.3718
37.9130,1.6302
37.9141,1.7187
37.9150,1.6973
37.9150,1.5756
37.9160,1.5683
37.9200,1.6274
37.9210,1.5996
37.9210,1.5137
37.9220,1.5201
37.9260,1.5565
37.9270,1.5047
37.9270,1.426
37.9270,1.3767
37.9281,1.4367
37.9325,1.585
37.9334,1.4652
37.9334,1.485
37.9344,1.6262
37.9397,1.5803
37.9397,1.4183
37.9406,1.5839
37.9406,1.5647
37.9416,1.587
37.9466,1.5822
37.9486,1.6039
37.9496,1.6007
37.9496,1.6354
37.9506,1.7031
37.9536,1.7611
37.9735,1.7357
37.9769,1.9499
37.9816,2.2662
37.9825,2.1738
37.9835,1.9996
37.9855,1.9441
37.9865,1.8887
37.9865,1.9276
37.9875,1.8957
37.9875,1.7699
37.9885,1.6906
37.9885,1.6778
37.9904,1.7609
37.9916,1.8377
37.9916,1.6814
37.9925,1.7061
37.9925,1.8368
37.9934,1.6517
37.9934,1.3915
37.9945,1.2876
37.9949,1.6441
37.9955,1.5769
37.9964,1.522
37.9974,1.5053
38.0005,1.5634
38.0005,1.6562
38.0014,1.6769
38.0014,1.6562
38.0024,1.621
38.0024,1.5649
38.0047,1.5595
38.0055,1.4659
38.0064,1.248
38.0064,1.2659
38.0074,1.3727
38.0074,1.5632
38.0085,1.9832
38.0085,1.8402
38.0096,1.6928
38.0096,1.6716
38.0144,1.7318
38.0144,1.7987
38.0157,1.8323
38.0157,1.7151
38.0217,1.5709
38.0217,1.4243
38.0227,1.3255
38.0228,1.4736
38.0228,1.5332
38.0291,1.4894
38.0300,1.4997
38.0306,1.5381
38.0317,1.4924
38.0337,1.6433
38.0356,1.8055
38.0356,1.7269
38.0367,1.7194
38.0367,1.6592
38.0407,1.6289
38.0416,1.3514
38.0436,1.2743
38.0449,1.3103
38.0456,1.297
38.0486,1.6007
38.0502,1.6679
38.0506,1.6242
38.0506,1.5398
38.0554,1.6032
38.0563,1.6506
38.0593,1.7637
38.0604,1.7566
38.0604,1.6062
38.0621,1.531
38.0623,1.5259
38.0684,1.416
38.0876,1.3958
38.0906,1.4539
38.0923,1.4494
38.0933,1.5124
38.0933,1.4676
38.0943,1.4279
38.0943,1.3285
38.0952,1.263
38.0952,1.2769
38.0952,1.362
38.0963,1.5135
38.0983,1.8017
38.0992,1.7641
38.0992,1.6846
38.1002,1.7157
38.1002,1.6607
38.1012,1.6896
38.1012,1.6482
38.1022,1.6097
38.1022,1.4387
38.1034,1.3789
38.1034,1.5747
38.1044,1.5827
38.1054,1.5929
38.1054,1.3317
38.1064,1.3084
38.1064,1.476
38.1074,1.6546
38.1074,1.7993
38.1086,1.7952
38.1086,1.4415
38.1094,1.5449
38.1094,1.7768
38.1154,1.8524
38.1164,1.711
38.1164,1.7108
38.1164,1.7187
38.1174,1.6236
38.1223,1.5456
38.1223,1.5617
38.1233,1.4837
38.1233,1.4882
38.1283,1.5132
38.1293,1.5578
38.1303,1.59
38.1313,1.6011
38.1313,1.6298
38.1353,1.6429
38.1362,1.6975
38.1372,1.6915
38.1385,1.6478
38.1398,1.6182
38.1425,1.5724
38.1435,1.507
38.1435,1.5075
38.1445,1.5105
38.1497,1.5167
38.1506,1.645
38.1506,1.6733
38.1516,1.7147
38.1516,1.7629
38.1560,1.7991
38.1579,1.7669
38.1579,1.6834
38.1589,1.5477
38.1636,1.5287
38.1643,1.5942
38.1650,1.6703
38.1660,1.389
38.1670,1.3367
38.1694,1.2559
38.1700,1.4515
38.1710,1.5837
38.1730,1.5794
38.1780,1.6936
38.1940,1.8327
38.1954,2.0974
38.1992,1.9726
38.2002,1.8554
38.2019,1.822
38.2029,1.6294
38.2032,1.4543
38.2039,1.3675
38.2049,1.5424
38.2059,1.5895
38.2064,1.7654
38.2069,1.8394
38.2069,1.6729
38.2079,1.5897
38.2079,1.4532
38.2089,1.3197
38.2089,1.7474
38.2099,1.7176
38.2099,1.7837
38.2110,1.7241
38.2110,1.6517
38.2119,1.7318
38.2119,1.7909
38.2130,1.8229
38.2138,1.6801
38.2148,1.7262
38.2159,1.7102
38.2166,1.8361
38.2166,1.8117
38.2176,1.75
38.2176,1.6872
38.2230,1.3602
38.2240,1.4294
38.2240,1.4376
38.2250,1.4571
38.2250,1.4811
38.2300,1.5092
38.2310,1.6017
38.2320,1.6774
38.2330,1.7196
38.2330,1.6283
38.2371,1.6251
38.2380,1.6191
38.2380,1.6114
38.2390,1.6071
38.2444,1.5625
38.2452,1.4136
38.2462,1.3182
38.2474,1.3836
38.2474,1.3992
38.2517,1.4132
38.2527,1.5167
38.2527,1.6624
38.2537,1.7502
38.2580,1.8014
38.2587,1.6388
38.2597,1.5653
38.2607,1.4382
38.2607,1.4087
38.2643,1.4324
38.2652,1.3596
38.2662,1.3694
38.2672,1.4854
38.2714,1.5576
38.2722,1.5602
38.2732,1.5207
38.2742,1.3669
38.2742,1.3469
38.2775,1.4532
38.2785,1.3937
38.2785,1.5366
38.2796,1.6979
38.2805,1.5981
38.3024,1.4753
38.3114,1.5244
38.3126,1.645
38.3126,1.5415
38.3136,1.5501
38.3147,1.5137
38.3154,1.5795
38.3154,1.3834
38.3164,1.6071
38.3174,1.8297
38.3184,1.7344
38.3194,1.5372
38.3204,1.345
38.3204,1.2747
38.3214,1.2927
38.3214,1.4594
38.3214,1.575
38.3224,1.6176
38.3224,1.7269
38.3234,1.7702
38.3234,1.8357
38.3245,1.7912
38.3254,1.7127
38.3263,1.7104
38.3263,1.6414
38.3273,1.6319
38.3273,1.6232
38.3273,1.4228
38.3283,1.3167
38.3283,1.3277
38.3293,1.2972
38.3304,1.6478
38.3324,1.4843
38.3324,1.7674
38.3334,1.8265
38.3334,1.7001
38.3385,1.7462
38.3395,1.4579
38.3395,1.5257
38.3405,1.4719
38.3405,1.461
38.3453,1.5139
38.3463,1.5737
38.3466,1.5004
38.3473,1.5158
38.3523,1.635
38.3523,1.6936
38.3533,1.6144
38.3539,1.7438
38.3543,1.7142
38.3603,1.4001
38.3603,1.3844
38.3613,1.4271
38.3619,1.5049
38.3674,1.3463
38.3682,1.5893
38.3682,1.6075
38.3692,1.6084
38.3696,1.6197
38.3735,1.6589
38.3745,1.7682
38.3745,1.7076
38.3755,1.6362
38.3757,1.5974
38.3816,1.447
38.3825,1.3416
38.3836,1.3424
38.3836,1.4024
38.3885,1.3566
38.3885,1.4719
38.3897,1.5494
38.3907,1.6879
38.3916,1.6876
38.3991,1.7387
38.4121,1.7217
38.4131,1.7725
38.4143,1.8526
38.4151,1.7986
38.4151,1.7635
38.4161,1.2974
38.4164,1.3879
38.4171,1.3975
38.4183,1.2885
38.4183,1.3069
38.4191,1.4234
38.4203,1.7541
38.4211,1.6441
38.4221,1.6349
38.4222,1.6075
38.4231,1.5342
38.4262,1.6187
38.4271,1.6553
38.4281,1.551
38.4291,1.3439
38.4309,1.7131
38.4323,1.6264
38.4333,1.4522
38.4340,1.3812
38.4340,1.4104
38.4352,1.4513
38.4361,1.5653
38.4361,1.557
38.4370,1.495
38.4381,1.6499
38.4390,1.5797
38.4420,1.7541
38.4430,1.6525
38.4440,1.5482
38.4440,1.4434
38.4491,1.41
38.4502,1.5591
38.4510,1.5801
38.4514,1.6832
38.4520,1.8141
38.4551,1.7612
38.4560,1.7768
38.4571,1.8389
38.4580,1.8184
38.4620,1.7221
38.4630,1.7307
38.4650,1.6019
38.4660,1.4997
38.4670,1.5062
38.4689,1.5854
38.4701,1.4954
38.4719,1.4819
38.4730,1.512
38.4730,1.7492
38.4759,1.702
38.4779,1.6454
38.4790,1.6317
38.4799,1.6135
38.4829,1.5668
38.4840,1.3232
38.4849,1.3032
38.4869,1.2949
38.4879,1.3277
38.4890,1.6294
38.4900,1.5492
38.4910,1.6116
38.4919,1.6861
38.4959,1.6471
38.4982,1.8006
38.4989,1.7144
38.5009,1.6656
38.5050,1.6088
38.5058,1.5921
38.5068,1.4522
38.5079,1.4509
38.5111,1.4702
38.5358,1.4708
38.5368,1.419
38.5378,1.4429
38.5388,1.486
38.5393,1.4676
38.5408,1.6523
38.5410,1.7862
38.5447,1.7852
38.5458,1.567
38.5487,1.5561
38.5507,1.6367
38.5517,1.5413
38.5529,1.2801
38.5529,1.4022
38.5537,1.443
38.5548,1.6112
38.5558,1.7236
38.5567,1.7691
38.5579,1.8002
38.5587,1.7519
38.5597,1.7273
38.5597,1.6679
38.5610,1.5212
38.5647,1.3157
38.5658,1.3493
38.5687,1.527
38.5707,1.6058
38.5707,1.5252
38.5717,1.461
38.5717,1.4702
38.5732,1.5212
38.5737,1.6825
38.5737,1.6292
38.5747,1.6007
38.5767,1.7065
38.5777,1.5254
38.5777,1.4464
38.5789,1.3692
38.5789,1.3619
38.5816,1.2589
38.5826,1.296
38.5848,1.3911
38.5860,1.4404
38.5876,1.552
38.5876,1.5188
38.5891,1.5458
38.5906,1.3964
38.5916,1.4172
38.5936,1.315
38.5936,1.3785
38.5947,1.6577
38.5956,1.5362
38.5968,1.4564
38.5986,1.4657
38.6006,1.5617
38.6026,1.7217
38.6026,1.9161
38.6026,1.9358
38.6036,2.0101
38.6036,2.1029
38.6036,2.0551
38.6046,2.3011
38.6046,1.9667
38.6046,1.8782
38.6056,1.8117
38.6096,1.9924
38.6175,1.9799
38.6185,1.999
38.6195,1.9352
38.6195,1.753
38.6195,1.762
38.6195,1.8331
38.6195,1.7166
38.6205,1.7901
38.6205,1.8396
38.6205,1.7376
38.6205,1.7547
38.6205,1.669
38.6245,1.5237
38.6245,1.4577
38.6245,1.4929
38.6255,1.4337
38.6255,1.4384
38.6309,1.5113
38.6309,1.702
38.6319,1.7614
38.6319,1.6832
38.6383,1.5912
38.6383,1.6358
38.6383,1.6347
38.6383,1.5717
38.6393,1.4714
38.6448,1.4594
38.6448,1.5306
38.6448,1.5345
38.6448,1.4747
38.6518,1.5927
38.6518,1.6521
38.6518,1.5915
38.6518,1.6086
38.6528,1.5938
38.6580,1.5996
38.6580,1.5642
38.6590,1.5285
38.6590,1.423
38.6590,1.3673
38.6660,1.3585
38.6660,1.4237
38.6670,1.4117
38.6670,1.4354
38.6730,1.5306
38.6740,1.5664
38.6740,1.542
38.6750,1.5321
38.6750,1.6463
38.6801,1.5779
38.6811,1.4783
38.6821,1.4059
38.6831,1.3797
38.6861,1.4689
38.6861,1.554
38.6873,1.5096
38.6882,1.7183
38.6891,1.7987
38.6921,1.8201
38.6931,1.8214
38.6951,1.8062
38.6960,1.7751
38.6990,1.6442
38.7000,1.5972
38.7010,1.4659
38.7013,1.3904
38.7020,1.4809
38.7058,1.492
38.7067,1.4676
38.7067,1.4847
38.7076,1.4777
38.7076,1.4367
38.7132,1.4757
38.7190,1.587
38.7206,1.6161
38.7377,1.6553
38.7386,1.7877
38.7398,1.6701
38.7425,1.6733
38.7435,1.5996
38.7438,1.5602
38.7456,1.5593
38.7465,1.3872
38.7477,1.4614
38.7486,1.5379
38.7496,1.5779
38.7496,1.822
38.7506,1.8475
38.7506,1.8676
38.7516,1.7507
38.7517,1.6122
38.7535,1.5396
38.7535,1.4534
38.7546,1.3422
38.7546,1.3898
38.7556,1.4159
38.7556,1.4789
38.7565,1.455
38.7565,1.4995
38.7575,1.4624
38.7575,1.441
38.7585,1.5469
38.7585,1.5454
38.7595,1.5861
38.7605,1.6697
38.7615,1.6461
38.7615,1.5336
38.7615,1.4402
38.7677,1.4153
38.7685,1.528
38.7695,1.5471
38.7695,1.5533
38.7705,1.7534
38.7745,1.6697
38.7755,1.7042
38.7765,1.7116
38.7765,1.452
38.7814,1.5115
38.7824,1.6692
38.7835,1.476
38.7844,1.6894
38.7844,1.6964
38.7880,1.6801
38.7886,1.3934
38.7906,1.5259
38.7906,1.6559
38.7944,1.6191
38.7948,1.7136
38.7958,1.6394
38.7978,1.6347
38.7978,1.6328
38.8011,1.4684
38.8021,1.711
38.8026,1.6506
38.8031,1.6654
38.8041,1.5199
38.8081,1.6034
38.8081,1.6135
38.8092,1.7461
38.8092,1.8781
38.8151,1.9662
38.8161,1.9187
38.8165,1.7811
38.8171,1.7543
38.8181,1.732
38.8216,1.6326
38.8225,1.5623
38.8225,1.5263
38.8235,1.5389
38.8319,1.5636
38.8464,1.6238
38.8487,1.6741
38.8514,1.75
38.8528,1.72
38.8534,1.7168
38.8534,1.7792
38.8554,1.7129
38.8554,1.6806
38.8564,1.6587
38.8564,1.6334
38.8574,1.5747
38.8574,1.5385
38.8585,1.5182
38.8585,1.581
38.8594,1.6697
38.8594,1.6302
38.8604,1.6733
38.8615,1.7014
38.8624,1.6576
38.8641,1.6345
38.8644,1.6757
38.8644,1.476
38.8654,1.3523
38.8654,1.2505
38.8665,1.2651
38.8673,1.4689
38.8673,1.4314
38.8693,1.371
38.8703,1.3804
38.8703,1.9444
38.8714,1.9152
38.8759,1.9129
38.8769,1.9525
38.8780,1.6831
38.8780,1.639
38.8790,1.5882
38.8827,1.4809
38.8838,1.4142
38.8838,1.491
38.8849,1.4633
38.8903,1.4991
38.8911,1.632
38.8920,1.6268
38.8931,1.5726
38.8931,1.714
38.8970,1.6482
38.8980,1.7202
38.8990,1.7444
38.9001,1.6939
38.9001,1.5724
38.9034,1.4129
38.9041,1.3679
38.9053,1.4183
38.9060,1.4159
38.9105,1.4815
38.9115,1.4312
38.9117,1.4725
38.9117,1.557
38.9125,1.6523
38.9169,1.6169
38.9175,1.6073
38.9175,1.5587
38.9185,1.6418
38.9240,1.5885
38.9248,1.5651
38.9248,1.5602
38.9258,1.4777
38.9262,1.4123
38.9308,1.4325
38.9318,1.4989
38.9328,1.603
38.9338,1.6523
38.9377,1.5527
38.9397,1.4804
38.9558,1.4361
38.9627,1.4091
38.9647,1.2897
38.9684,1.6456
38.9687,1.7596
38.9687,1.7672
38.9697,1.8321
38.9706,1.627
38.9716,1.6525
38.9729,1.5539
38.9729,1.6429
38.9736,1.6592
38.9736,1.729
38.9748,1.7506
38.9756,1.6109
38.9766,1.533
38.9776,1.4565
38.9787,1.473
38.9787,1.3926
38.9796,1.2897
38.9806,1.302
38.9816,1.3694
38.9816,1.5687
38.9826,1.702
38.9826,1.7138
38.9838,1.7206
38.9838,1.7624
38.9848,1.7039
38.9856,1.6703
38.9866,1.63
38.9876,1.5197
38.9876,1.4479
38.9886,1.3634
38.9886,1.512
38.9896,1.4496
38.9916,1.5269
38.9936,1.6418
38.9946,1.6088
38.9956,1.6819
38.9969,1.7344
38.9996,1.5979
39.0006,1.5758
39.0021,1.5344
39.0033,1.4772
39.0056,1.4442
39.0067,1.5081
39.0076,1.5087
39.0085,1.4835
39.0105,1.5441
39.0125,1.6005
39.0137,1.6682
39.0145,1.6065
39.0155,1.639
39.0185,1.5865
39.0201,1.5233
39.0205,1.3799
39.0225,1.2794
39.0235,1.2497
39.0255,1.2574
39.0265,1.4884
39.0265,1.3562
39.0275,1.4284
39.0325,1.5803
39.0335,1.7132
39.0335,1.6999
39.0346,1.7582
39.0365,1.9028
39.0385,1.9187
39.0405,1.8676
39.0415,1.6816
39.0425,1.3883
39.0445,1.303
39.0574,1.411
39.0714,1.564
39.0737,1.6208
39.0754,1.4629
39.0788,1.528
39.0804,1.6079
39.0814,1.5852
39.0825,1.5602
39.0833,1.5242
39.0833,1.4775
39.0843,1.459
39.0843,1.4245
39.0854,1.2754
39.0866,1.666
39.0873,1.5816
39.0883,1.6095
39.0893,1.6311
39.0893,1.6137
39.0903,1.882
39.0903,1.8996
39.0903,1.8704
39.0913,1.7699
39.0913,1.5921
39.0923,1.5724
39.0923,1.5
39.0934,1.438
39.0944,1.402
39.0953,1.4057
39.0953,1.4468
39.0953,1.4787
39.0968,1.5126
39.0973,1.5345
39.0984,1.6105
39.0984,1.6718
39.0993,1.6982
39.1003,1.6317
39.1023,1.5717
39.1033,1.5152
39.1033,1.5201
39.1043,1.518
39.1043,1.4899
39.1093,1.4775
39.1103,1.5473
39.1103,1.5914
39.1113,1.6921
39.1153,1.7462
39.1173,1.8353
39.1183,1.6675
39.1183,1.6596
39.1193,1.59
39.1222,1.7294
39.1233,1.7459
39.1242,1.4299
39.1252,1.4239
39.1293,1.4072
39.1302,1.4982
39.1312,1.5494
39.1322,1.7888
39.1332,1.8668
39.1352,1.8295
39.1365,1.8732
39.1372,1.7294
39.1382,1.7404
39.1392,1.6975
39.1432,1.5914
39.1437,1.5655
39.1442,1.4942
39.1452,1.3815
39.1502,1.3564
39.1502,1.4404
39.1512,1.5411
39.1512,1.642
39.1522,1.6174
39.1746,1.6491
39.1756,1.711
39.1801,1.483
39.1816,1.3611
39.1816,1.3592
39.1826,1.3819
39.1831,1.3827
39.1836,1.5469
39.1836,1.6371
39.1846,1.6167
39.1846,1.6763
39.1856,1.7026
39.1856,1.675
39.1856,1.7301
39.1867,1.5884
39.1867,1.6337
39.1879,1.7007
39.1887,1.5302
39.1887,1.4706
39.1897,1.4168
39.1903,1.4537
39.1907,1.4687
39.1907,1.4957
39.1917,1.6381
39.1919,1.6941
39.1929,1.6727
39.1929,1.7648
39.1978,1.7911
39.1979,1.7072
39.1992,1.6427
39.1992,1.5713
39.2002,1.5195
39.2042,1.3785
39.2053,1.282
39.2054,1.2812
39.2064,1.3236
39.2103,1.5535
39.2118,1.6617
39.2118,1.6251
39.2128,1.6636
39.2138,1.6934
39.2174,1.6531
39.2190,1.6191
39.2200,1.5278
39.2200,1.3917
39.2240,1.482
39.2250,1.467
39.2250,1.449
39.2250,1.4264
39.2260,1.3898
39.2304,1.3763
39.2312,1.6103
39.2322,1.6491
39.2322,1.5675
39.2332,1.423
39.2374,1.4999
39.2384,1.4691
39.2394,1.5636
39.2394,1.6262
39.2446,1.3388
39.2446,1.299
39.2460,1.2979
39.2473,1.2544
39.2476,1.2702
39.2516,1.3493
39.2528,1.5803
39.2538,1.8833
39.2546,1.7845
39.2576,1.6127
39.2586,1.7716
39.2586,1.7682
39.2596,1.6429
39.2596,1.615
39.2686,2.0845
39.2825,2.3061
39.2855,1.9652
39.2866,2.0029
39.2866,2.0748
39.2875,2.0575
39.2875,2.1078
39.2875,2.1078
39.2886,2.0716
39.2886,1.7952
39.2898,1.8329
39.2905,1.7451
39.2905,1.8912
39.2915,1.596
39.2921,1.3187
39.2925,1.3077
39.2925,1.3844
39.2925,1.5865
39.2935,1.6326
39.2945,1.6868
39.2945,1.7267
39.2945,1.504
39.2955,1.5383
39.2986,1.6005
39.2995,1.6422
39.2995,1.4877
39.3005,1.3654
39.3051,1.4612
39.3061,1.3733
39.3061,1.2959
39.3071,1.3122
39.3071,1.455
39.3121,1.5525
39.3182,1.5878
39.3182,1.6999
39.3192,1.7549
39.3201,1.8602
39.3201,1.7386
39.3211,1.6598
39.3211,1.564
39.3221,1.4912
39.3253,1.4282
39.3262,1.4618
39.3262,1.5036
39.3271,1.3928
39.3271,1.4496
39.3321,1.5254
39.3331,1.5192
39.3341,1.4468
39.3350,1.3896
39.3395,1.5816
39.3407,1.7196
39.3423,1.7626
39.3423,1.6831
39.3434,1.519
39.3455,1.5289
39.3473,1.4935
39.3473,1.4777
39.3483,1.4832
39.3533,1.6069
39.3533,1.7266
39.3542,1.8713
39.3542,1.8391
39.3553,1.6891
39.3593,1.6285
39.3603,1.4309
39.3603,1.2495
39.3614,1.2467
39.3664,1.3412
39.3664,1.585
39.3674,1.6889
39.3674,1.8008
39.3684,1.8002
39.3772,1.8484
39.3916,1.8032
39.3922,1.834
39.3932,1.7371
39.3962,1.7164
39.3973,1.6624
39.3982,1.5347
39.3982,1.464
39.3993,1.446
39.4002,1.5604
39.4013,1.4646
39.4022,1.4744
39.4032,1.5546
39.4042,1.6994
39.4042,1.6994
39.4052,1.6746
39.4054,1.6185
39.4062,1.6699
39.4072,1.639
39.4082,1.5771
39.4082,1.5657
39.4092,1.4397
39.4092,1.4706
39.4102,1.4914
39.4102,1.4764
39.4102,1.5484
39.4112,1.6369
39.4133,1.603
39.4142,1.5938
39.4151,1.6876
39.4151,1.6628
39.4161,1.6789
39.4202,1.7234
39.4216,1.7534
39.4222,1.7566
39.4231,1.3958
39.4241,1.4335
39.4271,1.4974
39.4280,1.5465
39.4281,1.6054
39.4291,1.5049
39.4347,1.3977
39.4347,1.7796
39.4357,1.9825
39.4367,1.8291
39.4377,1.5767
39.4408,1.7074
39.4417,1.5546
39.4425,1.5137
39.4427,1.5355
39.4481,1.6307
39.4492,1.6577
39.4492,1.7072
39.4501,1.7727
39.4501,1.7616
39.4544,1.8014
39.4554,1.816
39.4554,1.8299
39.4564,1.6202
39.4616,1.5919
39.4616,1.5473
39.4626,1.5647
39.4636,1.4905
39.4636,1.5464
39.4676,1.6352
39.4686,1.5066
39.4686,1.5139
39.4698,1.6519
39.4708,1.6917
39.4750,1.6667
39.4750,1.8659
39.4761,1.8629
39.4761,1.9154
39.4849,1.9094
39.5011,1.8426
39.5043,1.7584
39.5043,1.5966
39.5051,1.5319
39.5051,1.5419
39.5061,1.6347
39.5061,1.771
39.5071,1.7972
39.5071,1.9159
39.5080,1.9832
39.5080,1.8137
39.5090,1.7607
39.5090,1.6619
39.5090,1.6435
39.5104,1.5034
39.5104,1.381
39.5113,1.5574
39.5113,1.5077
39.5113,1.7312
39.5123,1.8619
39.5133,1.8162
39.5133,1.7845
39.5157,1.849
39.5163,1.8458
39.5163,1.7397
39.5172,1.6534
39.5172,1.6403
39.5225,1.6204
39.5234,1.564
39.5244,1.6137
39.5255,1.5855
39.5297,1.5332
39.5316,1.5957
39.5326,1.7451
39.5338,1.7091
39.5346,1.7416
39.5360,1.8792
39.5366,1.8492
39.5377,1.6945
39.5377,1.6461
39.5434,1.5224
39.5445,1.4399
39.5455,1.6362
39.5464,1.5636
39.5475,1.4952
39.5494,1.4352
39.5504,1.5773
39.5504,1.6382
39.5516,1.6917
39.5569,1.6784
39.5572,1.7618
39.5582,1.7536
39.5592,1.6607
39.5592,1.5602
39.5630,1.4873
39.5640,1.4213
39.5646,1.4757
39.5650,1.4335
39.5660,1.3746
39.5702,1.4414
39.5710,1.5038
39.5710,1.5364
39.5720,1.6422
39.5776,1.6465
39.5786,1.6846
39.5788,1.6521
39.5788,1.651
39.5801,1.527
39.5837,1.4819
39.5837,1.4372
39.5850,1.2923
39.5850,1.272
39.5909,1.4027
39.5909,1.5591
39.5918,1.738
39.5918,1.7461
39.5928,1.8089
39.6016,1.8631
39.6165,1.8355
39.6176,1.8027
39.6185,1.6116
39.6225,1.3639
39.6225,1.2612
39.6236,1.2525
39.6245,1.2887
39.6245,1.4061
39.6255,1.6626
39.6255,1.7341
39.6265,1.7179
39.6265,1.8629
39.6275,1.903
39.6275,1.5394
39.6285,1.5094
39.6285,1.3941
39.6295,1.4494
39.6295,1.5135
39.6305,1.5293
39.6315,1.5557
39.6315,1.5764
39.6325,1.5679
39.6325,1.5488
39.6335,1.6017
39.6335,1.9176
39.6335,1.8501
39.6383,1.7481
39.6393,1.6742
39.6393,1.6536
39.6403,1.6157
39.6403,1.5143
39.6449,1.5516
39.6459,1.5353
39.6459,1.5362
39.6469,1.5585
39.6521,1.611
39.6529,1.4742
39.6539,1.5891
39.6539,1.6287
39.6539,1.6508
39.6580,1.7352
39.6590,1.744
39.6599,1.693
39.6599,1.5739
39.6608,1.4502
39.6648,1.4622
39.6658,1.468
39.6658,1.5195
39.6668,1.534
39.6729,1.6279
39.6729,1.645
39.6739,1.6101
39.6739,1.5529
39.6752,1.521
39.6786,1.3045
39.6796,1.2525
39.6796,1.2818
39.6806,1.3802
39.6858,1.5934
39.6867,1.545
39.6867,1.5758
39.6877,1.6043
39.6877,1.648
39.6923,1.7363
39.6932,1.8019
39.6932,1.8066
39.6942,1.7166
39.6995,1.6834
39.6995,1.7269
39.7005,1.6799
39.7005,1.6238
39.7015,1.5531
39.7075,1.5426
39.7143,1.3875
39.7265,1.3875
39.7295,1.5357
39.7303,1.5737
39.7303,1.6512
39.7313,1.6229
39.7313,1.5833
39.7323,1.6429
39.7326,1.6405
39.7333,1.6007
39.7333,1.4232
39.7343,1.4685
39.7343,1.3298
39.7353,1.2979
39.7353,1.3754
39.7363,1.5679
39.7363,1.5794
39.7373,1.7211
39.7373,1.7631
39.7383,1.6726
39.7383,1.7354
39.7393,1.8741
39.7393,1.9137
39.7403,1.8004
39.7413,1.6952
39.7423,1.572
39.7467,1.4779
39.7472,1.4357
39.7483,1.3988
39.7492,1.3718
39.7492,1.4059
39.7530,1.7513
39.7539,1.759
39.7545,1.7817
39.7549,1.8861
39.7549,1.8548
39.7599,1.7279
39.7599,1.6641
39.7609,1.6531
39.7618,1.5499
39.7668,1.5987
39.7679,1.5207
39.7679,1.5799
39.7688,1.6973
39.7688,1.6975
39.7738,1.6997
39.7738,1.9152
39.7748,1.8826
39.7748,1.6697
39.7807,1.5683
39.7807,1.4155
39.7818,1.4057
39.7818,1.3497
39.7828,1.4412
39.7870,1.3782
39.7881,1.569
39.7881,1.5829
39.7891,1.8689
39.7940,2.0579
39.7949,1.8803
39.7949,1.6956
39.7949,1.6566
39.7959,1.5717
39.7998,1.3724
39.8008,1.4294
39.8008,1.4607
39.8018,1.7222
39.8018,1.7438
39.8078,1.6499
39.8078,1.882
39.8088,1.8046
39.8088,1.7984
39.8182,1.6169
39.8241,1.7136
39.8359,1.8499
39.8369,1.819
39.8379,1.8796
39.8379,1.7721
39.8395,1.7134
39.8398,1.6418
39.8411,1.5334
