61.1717,1.8237
61.1717,1.5075
61.1727,1.6225
61.1727,1.6457
61.1737,1.5027
61.1737,1.6825
61.1747,1.7466
61.1747,1.6636
61.1757,1.5694
61.1767,1.6037
61.1778,1.5218
61.1808,1.7069
61.1817,1.7462
61.1817,1.6238
61.1827,1.5177
61.1881,1.5531
61.1881,1.6525
61.1891,1.7292
61.1891,1.7813
61.1903,1.7363
61.1938,1.6596
61.1948,1.4974
61.1948,1.516
61.1958,1.4468
61.2013,1.3967
61.2118,1.5732
61.2207,1.7822
61.2237,1.7192
61.2237,1.7457
61.2247,1.7116
61.2247,1.7172
61.2258,1.5934
61.2264,1.437
61.2268,1.4224
61.2278,1.4556
61.2278,1.314
61.2278,1.3787
61.2287,1.5492
61.2287,1.6786
61.2297,1.7609
61.2297,1.7627
61.2308,1.7018
61.2308,1.6999
61.2317,1.7569
61.2317,1.8014
61.2317,1.7371
61.2328,1.7159
61.2353,1.7074
61.2353,1.6739
61.2363,1.7192
61.2363,1.8702
61.2373,1.9208
61.2416,2.0309
61.2423,2.1535
61.2434,2.2683
61.2443,2.2276
61.2487,2.2521
61.2493,2.2347
61.2493,1.9277
61.2503,1.8563
61.2503,1.6679
61.2553,1.5773
61.2563,1.4969
61.2563,1.5469
61.2573,1.5659
61.2573,1.5809
61.2623,1.5934
61.2623,1.7031
61.2633,1.7281
61.2633,1.7046
61.2695,1.6767
61.2705,1.6735
61.2705,1.702
61.2715,1.5567
61.2715,1.4001
61.2756,1.354
61.2766,1.4438
61.2786,1.5156
61.2786,1.6328
61.2829,1.7457
61.2836,1.8166
61.2836,1.846
61.2845,1.8822
61.2845,1.9255
61.2889,1.8152
61.2899,1.7168
61.2899,1.6793
61.2908,1.6105
61.2962,1.4871
61.2968,1.4794
61.2968,1.4097
61.2978,1.4627
61.2978,1.5807
61.3021,1.7684
61.3031,1.9082
61.3031,1.9943
61.3041,1.9347
61.3041,1.8692
61.3111,1.7856
61.3161,1.6913
61.3290,1.5139
61.3320,1.4663
61.3320,1.3234
61.3330,1.3292
61.3340,1.48
61.3342,1.561
61.3350,1.6274
61.3350,1.75
61.3360,1.7629
61.3360,1.8304
61.3370,1.7414
61.3370,1.6804
61.3380,1.7888
61.3380,1.6666
61.3390,1.608
61.3390,1.6446
61.3390,1.5357
61.3400,1.4858
61.3400,1.6658
61.3410,1.5912
61.3433,1.5362
61.3443,1.6337
61.3443,1.5282
61.3453,1.4543
61.3453,1.5831
61.3506,1.6062
61.3516,1.6619
61.3525,1.7087
61.3525,1.696
61.3535,1.5002
61.3575,1.5797
61.3575,1.6317
61.3585,1.6249
61.3585,1.8361
61.3651,1.9386
61.3651,1.9857
61.3661,1.8499
61.3661,1.7774
61.3671,1.6463
61.3703,1.6054
61.3712,1.6317
61.3724,1.6508
61.3733,1.5154
61.3782,1.45
61.3782,1.474
61.3792,1.5846
61.3792,1.6744
61.3802,1.7899
61.3843,1.7843
61.3852,1.7911
61.3862,1.8479
61.3862,1.7101
61.3912,1.6658
61.3922,1.6185
61.3932,1.6129
61.3946,1.7176
61.3952,1.7963
61.3972,1.8687
61.3984,1.8687
61.3984,1.6982
61.3992,1.5644
61.3992,1.4995
61.4052,1.5735
61.4052,1.6375
61.4062,1.7112
61.4062,1.5899
61.4125,1.6384
61.4125,1.6086
61.4135,1.4787
61.4135,1.4625
61.4135,1.6474
61.4244,1.591
61.4384,1.4228
61.4414,1.6647
61.4424,1.5207
61.4434,1.5777
61.4444,1.5953
61.4454,1.9726
61.4454,1.9898
61.4464,1.9377
61.4465,1.8293
61.4474,1.5672
61.4484,1.5351
61.4484,1.6934
61.4494,1.8181
61.4494,1.7847
61.4504,1.6891
61.4504,1.7624
61.4514,1.8764
61.4514,1.8711
61.4514,1.8254
61.4524,1.768
61.4524,1.7796
61.4534,1.729
61.4534,1.6881
61.4544,1.7333
61.4544,1.7221
61.4554,1.6553
61.4600,1.5921
61.4605,1.7751
61.4615,1.7802
61.4625,1.8561
61.4630,1.8953
61.4658,2.0536
61.4708,2.077
61.4718,2.1001
61.4718,1.9651
61.4737,1.7894
61.4737,1.675
61.4748,1.5737
61.4748,1.5439
61.4758,1.5383
61.4797,1.6666
61.4807,1.7292
61.4807,1.8196
61.4807,1.8469
61.4870,1.8824
61.4879,1.96
61.4879,1.8421
61.4888,1.8949
61.4888,1.7611
61.4934,1.5537
61.4934,1.7157
61.4944,1.7676
61.4954,1.7206
61.4954,1.6585
61.5004,1.5287
61.5004,1.5668
61.5014,1.5957
61.5014,1.5784
61.5077,1.66
61.5077,1.5734
61.5087,1.4729
61.5097,1.4646
61.5106,1.6135
61.5140,1.8387
61.5149,1.8389
61.5149,1.7159
61.5159,1.59
61.5211,1.6583
61.5220,1.777
61.5220,1.8355
61.5230,1.9765
61.5230,2.0357
61.5310,1.8434
61.5459,1.6643
61.5459,1.5469
61.5489,1.5608
61.5499,1.507
61.5499,1.5209
61.5509,1.5932
61.5509,1.6225
61.5509,1.7037
61.5519,1.675
61.5519,1.6947
61.5529,1.7275
61.5529,1.7753
61.5539,1.9051
61.5539,1.9861
61.5549,1.8119
61.5549,1.6493
61.5559,1.516
61.5559,1.2809
61.5559,1.2848
61.5570,1.3868
61.5570,1.5394
61.5579,1.576
61.5619,1.5921
61.5619,1.6791
61.5629,1.6816
61.5629,1.5953
61.5687,1.5758
61.5687,1.5229
61.5698,1.339
61.5698,1.3557
61.5708,1.3977
61.5755,1.368
61.5764,1.5597
61.5773,1.6
61.5783,1.5863
61.5821,1.6011
61.5821,1.5019
61.5832,1.5222
61.5832,1.6546
61.5842,1.6502
61.5885,1.7213
61.5895,1.8319
61.5895,1.804
61.5905,1.6951
61.5906,1.6324
61.5956,1.5679
61.5965,1.5492
61.5965,1.7009
61.5965,1.663
61.6029,1.6148
61.6037,1.7074
61.6037,1.8229
61.6047,1.8449
61.6047,1.8364
61.6099,1.828
61.6109,1.6609
61.6119,1.5966
61.6119,1.5482
61.6164,1.6441
61.6170,1.615
61.6170,1.6142
61.6180,1.6816
61.6180,1.5546
61.6230,1.5216
61.6230,1.5214
61.6239,1.6024
61.6239,1.6947
61.6298,1.7942
61.6298,1.7669
61.6308,1.5477
61.6308,1.4691
61.6318,1.4856
61.6361,1.4072
61.6369,1.564
61.6369,1.6127
61.6381,1.6439
61.6559,1.7869
61.6568,1.8818
61.6598,1.7654
61.6608,1.7487
61.6608,1.6922
61.6618,1.717
61.6618,1.7387
61.6628,1.6122
61.6628,1.5179
61.6639,1.4108
61.6639,1.3924
61.6648,1.3585
61.6648,1.3757
61.6648,1.4691
61.6658,1.378
61.6658,1.2552
61.6668,1.2786
61.6668,1.627
61.6678,1.8151
61.6708,1.8539
61.6718,2.0012
61.6718,1.8175
61.6728,1.7867
61.6769,1.5674
61.6778,1.546
61.6788,1.5015
61.6788,1.6296
61.6798,1.5529
61.6838,1.4856
61.6838,1.3476
61.6848,1.3476
61.6857,1.4753
61.6866,1.6577
61.6907,1.828
61.6907,1.4742
61.6918,1.4325
61.6918,1.7708
61.6980,1.7652
61.6988,1.6491
61.6988,1.6735
61.6997,1.6904
61.6997,1.8034
61.7040,1.7421
61.7050,1.7395
61.7050,1.7513
61.7060,1.8231
61.7113,1.6105
61.7123,1.4984
61.7123,1.4573
61.7133,1.3581
61.7133,1.4708
61.7177,1.4832
61.7185,1.5081
61.7185,1.5509
61.7195,1.5535
61.7262,1.5874
61.7273,1.5017
61.7273,1.7221
61.7283,1.7125
61.7283,1.6652
61.7333,1.747
61.7333,1.578
61.7344,1.6071
61.7344,1.5867
61.7344,1.5034
61.7394,1.4828
61.7404,1.6039
61.7404,1.629
61.7413,1.5497
61.7469,1.5165
61.7479,1.4344
61.7489,1.4539
61.7489,1.3161
61.7499,1.2765
61.7532,1.3709
61.7542,1.4655
61.7542,1.4549
61.7552,1.4607
61.7606,1.5083
61.7615,1.8604
61.7615,1.9071
61.7625,1.843
61.7794,1.8499
61.7824,1.864
61.7834,1.7352
61.7834,1.6075
61.7844,1.5497
61.7844,1.3534
61.7854,1.2732
61.7854,1.2885
61.7864,1.3328
61.7864,1.3829
61.7874,1.4684
61.7874,1.6157
61.7874,1.7567
61.7884,1.7044
61.7884,1.8289
61.7894,1.6928
61.7894,1.6679
61.7904,1.6714
61.7904,1.6774
61.7943,1.5574
61.7953,1.6133
61.7953,1.6422
61.7963,1.281
61.7963,1.2602
61.8008,1.3255
61.8014,1.4684
61.8014,1.5777
61.8025,1.6604
61.8078,1.8199
61.8078,1.8184
61.8089,1.7112
61.8098,1.492
61.8108,1.4783
61.8142,1.3913
61.8152,1.3613
61.8152,1.3506
61.8162,1.4325
61.8214,1.5488
61.8214,1.4747
61.8224,1.6439
61.8224,1.8589
61.8234,1.8649
61.8276,1.627
61.8284,1.5906
61.8284,1.6375
61.8294,1.2565
61.8294,1.2503
61.8344,1.2494
61.8354,1.2486
61.8354,1.2503
61.8354,1.3632
61.8420,1.8591
61.8420,2.0944
61.8431,1.9324
61.8431,1.8619
61.8441,1.8835
61.8482,1.9636
61.8493,1.8205
61.8493,1.7121
61.8503,1.5158
61.8555,1.3236
61.8555,1.3362
61.8565,1.3868
61.8565,1.4012
61.8575,1.4556
61.8617,1.5287
61.8628,1.5248
61.8628,1.5979
61.8628,1.6307
61.8689,1.7759
61.8689,1.6889
61.8699,1.6092
61.8699,1.6019
61.8709,1.5709
61.8769,1.5732
61.8898,1.4517
61.8929,1.4779
61.8929,1.392
61.8938,1.3401
61.8938,1.4305
61.8949,1.5141
61.8949,1.5244
61.8958,1.5994
61.8958,1.4727
61.8958,1.4534
61.8969,1.4179
61.8969,1.261
61.8979,1.2482
61.8979,1.2488
61.8989,1.2799
61.8989,1.666
61.8999,1.6553
61.9029,1.5435
61.9029,1.5812
61.9039,1.6084
61.9039,1.5119
61.9049,1.4541
61.9092,1.468
61.9111,1.3502
61.9112,1.3431
61.9122,1.3806
61.9163,1.3184
61.9163,1.2578
61.9174,1.2899
61.9174,1.297
61.9184,1.3502
61.9226,1.5137
61.9236,1.5344
61.9236,1.6622
61.9236,2.0509
61.9246,1.8267
61.9296,1.7215
61.9296,1.6245
61.9306,1.2992
61.9306,1.2578
61.9364,1.2882
61.9373,1.3255
61.9383,1.2546
61.9385,1.2812
61.9385,1.3817
61.9435,1.4346
61.9438,1.4714
61.9438,1.339
61.9448,1.2604
61.9504,1.549
61.9504,1.6928
61.9515,1.5968
61.9515,1.438
61.9524,1.3219
61.9566,1.4494
61.9576,1.3907
61.9576,1.3077
61.9586,1.5366
61.9632,1.5887
61.9640,1.5957
61.9653,1.6159
61.9653,1.8317
61.9660,1.8567
61.9701,1.9051
61.9711,1.8762
61.9711,1.9247
61.9711,1.8141
61.9721,1.7198
61.9773,1.7554
61.9773,1.7826
61.9785,1.7689
61.9786,1.8321
61.9848,1.6964
61.9988,1.4661
62.0019,1.4504
62.0025,1.471
62.0029,1.4689
62.0029,1.2749
62.0039,1.2698
62.0039,1.2589
62.0049,1.3341
62.0049,1.4337
62.0060,1.3632
62.0061,1.3107
62.0061,1.338
62.0072,1.2758
62.0072,1.2859
62.0082,1.5239
62.0082,1.6039
62.0092,1.7194
62.0113,1.6581
62.0115,1.6778
62.0122,1.632
62.0122,1.7695
62.0132,1.8773
62.0180,1.8342
62.0180,1.6936
62.0190,1.5812
62.0190,1.3733
62.0190,1.3349
62.0243,1.2692
62.0253,1.2854
62.0253,1.3352
62.0263,1.3504
62.0318,1.2756
62.0329,1.2882
62.0329,1.3849
62.0329,1.3885
62.0339,1.3103
62.0383,1.2852
62.0393,1.3457
62.0393,1.3744
62.0393,1.4496
62.0451,1.5017
62.0462,1.7007
62.0462,1.7206
62.0469,1.6981
62.0469,1.5801
62.0517,1.41
62.0517,1.3022
62.0528,1.2788
62.0528,1.2608
62.0584,1.3047
62.0594,1.2702
62.0602,1.2782
62.0612,1.2651
62.0622,1.3247
62.0647,1.4384
62.0657,1.5473
62.0657,1.5522
62.0666,1.5449
62.0666,1.5173
62.0719,1.4436
62.0719,1.4537
62.0729,1.4408
62.0729,1.407
62.0791,1.3392
62.0802,1.2445
62.0802,1.2447
62.0802,1.2494
62.0814,1.2685
62.0854,1.5419
62.0867,1.5432
62.0867,1.3733
62.0867,1.4288
62.0938,1.8017
62.1079,1.632
62.1106,1.5152
62.1119,1.4774
62.1119,1.54
62.1126,1.6223
62.1126,1.6446
62.1136,1.4785
62.1136,1.329
62.1146,1.3354
62.1146,1.3287
62.1156,1.4867
62.1158,1.5597
62.1158,1.4955
62.1169,1.3266
62.1169,1.3069
62.1179,1.3478
62.1179,1.434
62.1189,1.434
62.1189,1.5042
62.1199,1.5437
62.1200,1.6011
62.1211,1.6752
62.1268,1.6866
62.1271,1.6482
62.1281,1.4882
62.1281,1.2861
62.1292,1.2822
62.1326,1.3124
62.1336,1.3688
62.1336,1.2775
62.1346,1.2799
62.1400,1.2685
62.1400,1.264
62.1410,1.2525
62.1410,1.2561
62.1421,1.3079
62.1460,1.4235
62.1470,1.3304
62.1470,1.4985
62.1480,1.6107
62.1532,1.6296
62.1535,1.5154
62.1535,1.585
62.1546,1.5964
62.1546,1.5955
62.1595,1.8077
62.1602,1.7389
62.1602,1.7768
62.1612,1.7337
62.1612,1.4018
62.1665,1.3062
62.1665,1.3105
62.1676,1.4256
62.1685,1.2529
62.1737,1.2464
62.1737,1.2488
62.1747,1.2469
62.1747,1.2484
62.1747,1.2509
62.1797,1.2533
62.1807,1.444
62.1807,1.6945
62.1807,1.7541
62.1868,1.6981
62.1868,1.7569
62.1880,1.7661
62.1890,1.6202
62.1890,1.6062
62.1932,1.5207
62.1940,1.4519
62.1940,1.3857
62.1950,1.3566
62.2032,1.3754
62.2232,1.3652
62.2272,1.4192
62.2282,1.4824
62.2282,1.5615
62.2294,1.564
62.2294,1.5904
62.2304,1.6077
62.2304,1.5319
62.2314,1.5042
62.2314,1.5064
62.2324,1.5604
62.2324,1.6094
62.2334,1.5775
62.2334,1.4879
62.2334,1.6088
62.2344,1.6771
62.2344,1.6411
62.2356,1.5792
62.2356,1.4196
62.2366,1.4189
62.2366,1.3043
62.2376,1.2814
62.2376,1.321
62.2386,1.2492
62.2386,1.254
62.2386,1.2739
62.2396,1.3178
62.2396,1.2801
62.2406,1.2572
62.2406,1.257
62.2418,1.3255
62.2473,1.3709
62.2473,1.3545
62.2483,1.2514
62.2483,1.3118
62.2493,1.282
62.2537,1.2743
62.2546,1.2902
62.2546,1.699
62.2555,1.4384
62.2555,1.2668
62.2609,1.2464
62.2618,1.263
62.2618,1.2989
62.2618,1.4179
62.2685,1.558
62.2685,1.4447
62.2695,1.416
62.2695,1.3302
62.2705,1.345
62.2740,1.3262
62.2751,1.3754
62.2751,1.3047
62.2760,1.2812
62.2814,1.2912
62.2814,1.3065
62.2825,1.2895
62.2825,1.2902
62.2834,1.294
62.2877,1.3384
62.2887,1.4014
62.2887,1.4363
62.2897,1.3109
62.2948,1.2788
62.2948,1.2604
62.2958,1.2563
62.2958,1.2707
62.2968,1.2505
62.3008,1.2612
62.3019,1.3264
62.3019,1.257
62.3029,1.2681
62.3029,1.2764
62.3081,1.3448
62.3081,1.3
62.3093,1.3075
62.3094,1.282
62.3149,1.2619
62.3149,1.4603
62.3160,1.5848
62.3160,1.4507
62.3170,1.2465
62.3266,1.2445
62.3396,1.2456
62.3437,1.2617
62.3437,1.26
62.3446,1.3272
62.3446,1.3559
62.3456,1.2715
62.3456,1.2792
62.3466,1.2805
62.3466,1.3444
62.3476,1.3397
62.3476,1.272
62.3476,1.3118
62.3486,1.3354
62.3486,1.3071
62.3498,1.2861
62.3498,1.2779
62.3498,1.2764
62.3509,1.3362
62.3509,1.33
62.3519,1.2552
62.3519,1.2477
62.3529,1.2522
62.3550,1.2509
62.3550,1.2608
62.3561,1.2846
62.3561,1.327
62.3624,1.3028
62.3631,1.3337
62.3631,1.4084
62.3641,1.4729
62.3641,1.4286
62.3685,1.467
62.3685,1.3454
62.3696,1.2833
62.3696,1.2749
62.3756,1.2657
62.3767,1.2563
62.3778,1.2681
62.3787,1.264
62.3787,1.2739
62.3817,1.2914
62.3828,1.4444
62.3831,1.369
62.3831,1.3624
62.3886,1.2552
62.3886,1.26
62.3896,1.2692
62.3896,1.2709
62.3906,1.2934
62.3951,1.3313
62.3962,1.4841
62.3962,1.5229
62.3962,1.4207
62.3972,1.3982
62.4014,1.255
62.4024,1.2482
62.4024,1.2443
62.4034,1.245
62.4098,1.287
62.4100,1.2698
62.4100,1.329
62.4111,1.2947
62.4111,1.2685
62.4158,1.2985
62.4158,1.2842
62.4168,1.2745
62.4168,1.3502
62.4225,1.3992
62.4233,1.429
62.4233,1.4648
62.4243,1.3622
62.4243,1.341
62.4288,1.3225
62.4349,1.2503
62.4482,1.2469
62.4512,1.2479
62.4532,1.2454
62.4532,1.2458
62.4542,1.2525
62.4542,1.2681
62.4542,1.3619
62.4551,1.4849
62.4551,1.4149
62.4564,1.386
62.4564,1.422
62.4574,1.3673
62.4574,1.3714
62.4584,1.335
62.4584,1.3004
62.4596,1.2764
62.4604,1.2608
62.4616,1.255
62.4616,1.2655
62.4624,1.314
62.4624,1.2584
62.4644,1.2572
62.4654,1.2518
62.4654,1.3699
62.4664,1.4624
62.4716,1.4642
62.4769,1.3853
62.4779,1.3122
62.4788,1.2816
62.4788,1.3529
62.4798,1.3845
62.4798,1.2799
62.4808,1.2949
62.4808,1.3109
62.4848,1.4219
62.4848,1.4262
62.4859,1.3305
62.4859,1.2692
62.4869,1.2462
62.4911,1.2471
62.4921,1.279
62.4927,1.2893
62.4931,1.2574
62.4931,1.2469
62.4981,1.2507
62.4981,1.2632
62.4991,1.3004
62.4991,1.4449
62.5055,1.5659
62.5062,1.5278
62.5062,1.4543
62.5073,1.3469
62.5073,1.3242
62.5115,1.3652
62.5125,1.2555
62.5125,1.2503
62.5135,1.2563
62.5188,1.2533
62.5188,1.2597
62.5198,1.2552
62.5198,1.2497
62.5208,1.2584
62.5252,1.2659
62.5262,1.4009
62.5262,1.39
62.5272,1.2749
62.5323,1.2477
62.5323,1.2975
62.5334,1.5109
62.5334,1.6506
62.5344,1.3624
62.5427,1.263
62.5563,1.2839
62.5589,1.2921
62.5595,1.3705
62.5606,1.339
62.5606,1.3525
62.5616,1.2773
62.5616,1.2878
62.5626,1.3519
62.5626,1.2805
62.5626,1.264
62.5636,1.2872
62.5636,1.2938
62.5646,1.3615
62.5646,1.3553
62.5656,1.2702
62.5656,1.2535
62.5666,1.3103
62.5666,1.3425
62.5676,1.3697
62.5676,1.3416
62.5676,1.3161
62.5686,1.2649
62.5722,1.264
62.5732,1.3052
62.5732,1.3328
62.5732,1.3995
62.5790,1.4312
62.5799,1.4102
62.5799,1.3334
62.5809,1.2589
62.5809,1.2464
62.5855,1.245
62.5863,1.2465
62.5863,1.2452
62.5873,1.2494
62.5873,1.4099
62.5933,1.3184
62.5933,1.449
62.5943,1.5244
62.5943,1.3092
62.6002,1.2696
62.6006,1.2799
62.6006,1.2844
62.6016,1.2692
62.6016,1.2779
62.6066,1.2704
62.6066,1.2608
62.6077,1.2574
62.6077,1.2531
62.6132,1.2779
62.6132,1.252
62.6143,1.2488
62.6143,1.3804
62.6152,1.3399
62.6195,1.3045
62.6203,1.2807
62.6203,1.38
62.6213,1.338
62.6265,1.3251
62.6273,1.354
62.6273,1.2947
62.6273,1.2582
62.6284,1.2599
62.6326,1.2584
62.6336,1.3013
62.6336,1.2533
62.6336,1.2509
62.6346,1.2484
62.6396,1.2747
62.6396,1.323
62.6406,1.3767
62.6406,1.4035
62.6512,1.5113
62.6642,1.5267
62.6675,1.4843
62.6682,1.4899
62.6682,1.5983
62.6692,1.6907
62.6692,1.6977
62.6702,1.572
62.6702,1.6017
62.6712,1.6842
62.6712,1.6682
62.6722,1.6559
62.6722,1.6452
62.6722,1.6163
62.6732,1.5404
62.6732,1.33
62.6742,1.2539
62.6742,1.2465
62.6751,1.245
62.6761,1.2582
62.6771,1.27
62.6781,1.2469
62.6791,1.2492
62.6801,1.2497
62.6801,1.2899
62.6812,1.3045
62.6821,1.2942
62.6821,1.4417
62.6871,1.5267
62.6881,1.5079
62.6891,1.4361
62.6891,1.317
62.6941,1.2591
62.6941,1.2452
62.6961,1.2447
62.6971,1.2471
62.6971,1.2447
62.7005,1.2465
62.7015,1.3157
62.7015,1.4054
62.7025,1.3514
62.7075,1.2632
62.7075,1.4114
62.7087,1.4258
62.7095,1.4132
62.7106,1.4243
62.7138,1.3849
62.7145,1.3647
62.7145,1.317
62.7145,1.3049
62.7207,1.2835
62.7219,1.2585
62.7219,1.2837
62.7229,1.3232
62.7229,1.3094
62.7269,1.2857
62.7280,1.3249
62.7281,1.303
62.7281,1.2484
62.7291,1.2458
62.7343,1.249
62.7353,1.2614
62.7355,1.5347
62.7373,1.6426
62.7413,1.5921
62.7413,1.5392
62.7426,1.489
62.7426,1.4108
62.7433,1.4172
62.7475,1.4948
62.7475,1.4942
62.7485,1.4957
62.7485,1.4475
62.7549,1.3712
62.7617,1.2985
62.7752,1.2972
62.7782,1.2784
62.7782,1.261
62.7789,1.2501
62.7789,1.2936
62.7789,1.3999
62.7799,1.5089
62.7799,1.4147
62.7799,1.2657
62.7799,1.3817
62.7811,1.3274
62.7811,1.2745
62.7811,1.267
62.7821,1.2525
62.7821,1.2497
62.7821,1.2563
62.7831,1.252
62.7831,1.2617
62.7831,1.2764
62.7831,1.3932
62.7841,1.4554
62.7882,1.3542
62.7882,1.3883
62.7882,1.4014
62.7892,1.3982
62.7892,1.3405
62.7948,1.3731
62.7954,1.3928
62.7954,1.305
62.7964,1.4084
62.8018,1.374
62.8018,1.4202
62.8018,1.3607
62.8029,1.3679
62.8029,1.3902
62.8084,1.4175
62.8084,1.4387
62.8084,1.3562
62.8094,1.4262
62.8158,1.4121
62.8160,1.3401
62.8160,1.3645
62.8168,1.3988
62.8168,1.4582
62.8219,1.4974
62.8219,1.5015
62.8219,1.5235
62.8229,1.5089
62.8229,1.585
62.8291,1.578
62.8291,1.5792
62.8291,1.3866
62.8291,1.2921
62.8366,1.2539
62.8366,1.2471
62.8366,1.2681
62.8366,1.2525
62.8376,1.246
62.8423,1.2475
62.8423,1.4925
62.8423,1.5167
62.8433,1.4957
62.8491,1.5479
62.8498,1.4942
62.8500,1.4961
62.8500,1.6444
62.8500,1.6161
62.8560,1.461
62.8560,1.3947
62.8567,1.4194
62.8567,1.3688
62.8639,1.3997
62.8722,1.5203
62.8732,1.6516
62.8742,1.6589
62.8742,1.4404
62.8742,1.5443
62.8742,1.6459
62.8752,1.5255
62.8752,1.422
62.8752,1.4595
62.8762,1.3774
62.8775,1.248
62.8775,1.2475
62.8775,1.4755
62.8839,1.3302
62.8839,1.6039
62.8839,1.7586
62.8839,1.7264
62.8849,1.7072
62.8902,1.6952
62.8902,1.645
62.8902,1.6131
62.8912,1.5447
62.8974,1.5434
62.8974,1.5171
62.8974,1.5096
62.8984,1.6486
62.8984,1.5608
62.9037,1.4078
62.9037,1.3285
62.9049,1.4048
62.9049,1.4204
62.9098,1.4543
62.9110,1.4205
62.9110,1.342
62.9120,1.305
62.9120,1.3418
62.9166,1.2932
62.9176,1.3883
62.9176,1.3649
62.9186,1.3703
62.9186,1.3289
62.9238,1.4074
62.9238,1.5049
62.9248,1.7204
62.9248,1.6705
62.9313,1.5259
62.9313,1.426
62.9324,1.3395
62.9324,1.3047
62.9336,1.2816
62.9382,1.2709
62.9382,1.2576
62.9393,1.2582
62.9393,1.2627
62.9440,1.261
62.9453,1.3062
62.9463,1.411
62.9463,1.3686
62.9473,1.3386
62.9508,1.4429
62.9508,1.3499
62.9519,1.2585
62.9519,1.4509
62.9583,1.4502
62.9583,1.4575
62.9593,1.4954
62.9593,1.3881
62.9603,1.3984
62.9645,1.5027
62.9656,1.4547
62.9656,1.4273
62.9656,1.4607
62.9665,1.4712
62.9871,1.327
62.9904,1.2625
62.9914,1.2531
62.9914,1.2756
62.9927,1.3917
62.9935,1.3264
62.9935,1.3035
62.9944,1.2803
62.9944,1.2981
62.9954,1.269
62.9954,1.3956
62.9964,1.2915
62.9967,1.2835
62.9967,1.3322
62.9977,1.3264
62.9977,1.2917
62.9987,1.2752
62.9987,1.2576
62.9997,1.2964
62.9997,1.4009
63.0007,1.3832
63.0007,1.3335
63.0055,1.2983
63.0055,1.4447
63.0066,1.4732
63.0066,1.4213
63.0076,1.3915
63.0113,1.3234
63.0123,1.3352
63.0123,1.3772
63.0133,1.4434
63.0133,1.4674
63.0186,1.4215
63.0196,1.3752
63.0196,1.4151
63.0206,1.3917
63.0260,1.3099
63.0270,1.2527
63.0270,1.2831
63.0280,1.252
63.0280,1.2507
63.0326,1.2465
63.0335,1.245
63.0335,1.8152
63.0335,1.759
63.0397,1.6836
63.0397,1.5314
63.0407,1.4798
63.0407,1.4567
63.0417,1.5342
63.0457,1.3975
63.0467,1.432
63.0467,1.4024
63.0477,1.3624
63.0528,1.3992
63.0528,1.3309
63.0538,1.2825
63.0538,1.2705
63.0551,1.3484
63.0592,1.3251
63.0604,1.4144
63.0604,1.5199
63.0604,1.5874
63.0614,1.6407
63.0662,1.6144
63.0666,1.5237
63.0666,1.4907
63.0676,1.4322
63.0735,1.413
63.0735,1.3553
63.0746,1.4115
63.0746,1.392
63.0756,1.4342
63.0875,1.4772
63.1006,1.3986
63.1036,1.3114
63.1036,1.3289
63.1048,1.342
63.1048,1.2792
63.1058,1.2544
63.1058,1.273
63.1068,1.2893
63.1068,1.3574
63.1078,1.3242
63.1078,1.3478
63.1088,1.3292
63.1088,1.3412
63.1101,1.4352
63.1101,1.5454
63.1112,1.4942
63.1112,1.4817
63.1121,1.4879
63.1121,1.3484
63.1131,1.3367
63.1131,1.3913
63.1141,1.3836
63.1141,1.3534
63.1151,1.3345
63.1151,1.3677
63.1151,1.3047
63.1213,1.3122
63.1215,1.2698
63.1226,1.2604
63.1226,1.2492
63.1235,1.5036
63.1277,1.5034
63.1277,1.5149
63.1286,1.5919
63.1286,1.4189
63.1343,1.4685
63.1343,1.5779
63.1353,1.6169
63.1353,1.6086
63.1363,1.6015
63.1407,1.5042
63.1417,1.479
63.1417,1.485
63.1430,1.4762
63.1477,1.605
63.1477,1.606
63.1489,1.4901
63.1499,1.4946
63.1499,1.3251
63.1538,1.2507
63.1549,1.2715
63.1556,1.3943
63.1556,1.5342
63.1556,1.525
63.1608,1.5422
63.1618,1.4325
63.1618,1.4552
63.1628,1.4588
63.1685,1.4789
63.1685,1.4879
63.1696,1.5295
63.1696,1.4916
63.1705,1.4102
63.1746,1.4616
63.1757,1.4018
63.1757,1.411
63.1767,1.5319
63.1837,1.4438
63.1837,1.377
63.1847,1.3073
63.1847,1.275
63.1857,1.3742
63.1910,1.3795
63.2076,1.3159
63.2115,1.2908
63.2115,1.2569
63.2128,1.2458
63.2128,1.245
63.2138,1.3251
63.2138,1.9555
63.2138,1.9232
63.2148,1.8462
63.2148,1.7187
63.2158,1.6214
63.2158,1.6249
63.2168,1.6167
63.2168,1.5818
63.2168,1.4903
63.2180,1.2949
63.2180,1.3424
63.2191,1.4305
63.2191,1.3919
63.2191,1.3885
63.2201,1.474
63.2210,1.4672
63.2236,1.3598
63.2246,1.3553
63.2246,1.3328
63.2256,1.4222
63.2310,1.4708
63.2310,1.4903
63.2320,1.4841
63.2320,1.4387
63.2330,1.3913
63.2373,1.2752
63.2373,1.3034
63.2383,1.3238
63.2383,1.449
63.2438,1.4005
63.2445,1.3988
63.2455,1.4215
63.2469,1.4646
63.2469,1.471
63.2509,1.4699
63.2509,1.3525
63.2519,1.3585
63.2519,1.3157
63.2530,1.3322
63.2571,1.3086
63.2581,1.3622
63.2581,1.2957
63.2593,1.285
63.2650,1.2895
63.2652,1.3204
63.2662,1.4093
63.2662,1.7217
63.2672,1.6523
63.2714,1.5317
63.2724,1.4359
63.2724,1.476
63.2724,1.3585
63.2776,1.4318
63.2786,1.4601
63.2786,1.3536
63.2796,1.4663
63.2796,1.437
63.2848,1.4663
63.2848,1.4421
63.2858,1.3825
63.2858,1.3305
63.2910,1.2829
63.2920,1.255
63.2925,1.2897
63.2930,1.2638
63.2930,1.4112
63.3022,1.6369
63.3206,1.5814
63.3236,1.5615
63.3246,1.615
63.3246,1.5994
63.3262,1.6561
63.3262,1.7072
63.3271,1.7449
63.3271,1.7768
63.3281,1.6823
63.3281,1.6722
63.3291,1.999
63.3291,2.0444
63.3301,1.9656
63.3301,1.9002
63.3311,1.6969
63.3311,1.4865
63.3311,1.4715
63.3323,1.4609
63.3333,1.4267
63.3333,1.5182
63.3343,1.4805
63.3343,1.3439
63.3353,1.2711
63.3353,1.293
63.3363,1.2855
63.3363,1.5194
63.3384,1.4965
63.3395,1.4142
63.3395,1.4014
63.3404,1.4346
63.3404,1.4132
63.3454,1.4059
63.3454,1.3435
63.3464,1.3718
63.3464,1.512
63.3474,1.5019
63.3526,1.4262
63.3526,1.5728
63.3536,1.572
63.3536,1.5025
63.3598,1.497
63.3608,1.3502
63.3618,1.4556
63.3628,1.4459
63.3628,1.3309
63.3657,1.3694
63.3667,1.356
63.3677,1.4865
63.3677,1.5004
63.3730,1.5049
63.3740,1.593
63.3748,1.4847
63.3757,1.4775
63.3768,1.4532
63.3797,1.5045
63.3797,1.4348
63.3807,1.3255
63.3807,1.2936
63.3860,1.3163
63.3869,1.5119
63.3869,1.5012
63.3879,1.4995
63.3879,1.5726
63.3926,1.5604
63.3937,1.629
63.3937,1.6525
63.3937,1.6549
63.3947,1.5882
63.3999,1.5432
63.3999,1.4727
63.4009,1.4802
63.4009,1.4481
63.4096,1.4314
63.4238,1.4571
63.4278,1.4346
63.4278,1.4384
63.4288,1.4162
63.4288,1.3965
63.4298,1.4487
63.4300,1.4729
63.4300,1.521
63.4310,1.3928
63.4310,1.488
63.4320,1.3679
63.4320,1.45
63.4320,1.7509
63.4330,1.6065
63.4330,1.5767
63.4339,1.5743
63.4339,1.5165
63.4352,1.4826
63.4352,1.4355
63.4352,1.4324
63.4362,1.4337
63.4362,1.4055
63.4407,1.3746
63.4407,1.4852
63.4417,1.4625
63.4417,1.3827
63.4432,1.2805
63.4479,1.5246
63.4479,1.5355
63.4479,1.5158
63.4489,1.4804
63.4548,1.6986
63.4548,1.7264
63.4559,1.7114
63.4559,1.5951
63.4569,1.4354
63.4613,1.4207
63.4613,1.5795
63.4623,1.5471
63.4623,1.5623
63.4678,1.5156
63.4691,1.5404
63.4691,1.5409
63.4701,1.5835
63.4701,1.6304
63.4746,1.6591
63.4746,1.6022
63.4757,1.5205
63.4757,1.3883
63.4817,1.4995
63.4873,1.557
63.4873,1.4929
63.4883,1.4624
63.4883,1.4624
63.4883,1.5824
63.4893,1.501
63.4893,1.396
63.4903,1.497
63.4903,1.6022
63.4953,1.7099
63.4953,1.6827
63.4963,1.7131
63.4963,1.6519
63.5023,1.5707
63.5023,1.6103
63.5033,1.7577
63.5033,1.7361
63.5045,1.699
63.5086,1.6174
63.5098,1.5038
63.5098,1.4939
63.5098,1.5554
63.5181,1.4247
63.5330,1.3806
63.5358,1.4157
63.5358,1.5859
63.5368,1.645
63.5368,1.6305
63.5378,1.7144
63.5380,1.6861
63.5380,1.7314
63.5390,1.7241
63.5390,1.7316
63.5400,1.7207
63.5400,1.6752
63.5410,1.7356
63.5410,1.777
63.5420,1.7387
63.5427,1.6129
63.5430,1.5846
63.5430,1.6184
63.5442,1.6381
63.5442,1.6304
63.5453,1.5908
63.5462,1.6697
63.5497,1.6639
63.5497,1.6544
63.5507,1.5799
63.5507,1.6589
63.5517,1.6105
63.5563,1.6786
63.5563,1.578
63.5573,1.456
63.5573,1.6729
63.5632,1.8396
63.5632,1.6889
63.5641,1.5615
63.5641,1.5852
63.5651,1.5953
63.5694,1.5555
63.5704,1.4665
63.5704,1.4931
63.5714,1.4314
63.5765,1.4601
63.5771,1.4502
63.5779,1.4702
63.5779,1.4909
63.5779,1.578
63.5827,1.6613
63.5827,1.7144
63.5837,1.6054
63.5837,1.563
63.5847,1.5707
63.5899,1.5085
63.5899,1.4753
63.5909,1.536
63.5909,1.5608
63.5971,1.5516
63.5981,1.5117
63.5981,1.4835
63.5981,1.4706
63.5994,1.5244
63.6033,1.5518
63.6045,1.5137
63.6046,1.4937
63.6046,1.4654
63.6104,1.453
63.6104,1.4076
63.6114,1.4269
63.6114,1.6352
63.6124,1.5728
63.6167,1.5479
63.6178,1.5876
63.6178,1.6427
63.6187,1.6208
63.6239,1.5435
63.6339,1.4972
63.6424,1.405
63.6454,1.4839
63.6464,1.4809
63.6464,1.3979
63.6474,1.4327
63.6474,1.4991
63.6486,1.627
63.6486,1.6742
63.6497,1.5987
63.6497,1.4419
63.6506,1.4657
63.6506,1.6294
63.6517,1.6208
63.6517,1.5248
63.6517,1.4702
63.6526,1.5171
63.6526,1.5469
63.6538,1.3437
63.6538,1.3982
63.6549,1.4252
63.6549,1.4774
63.6578,1.5565
63.6578,1.5602
63.6593,1.5497
63.6602,1.395
63.6602,1.399
63.6644,1.3559
63.6644,1.35
63.6655,1.6592
63.6655,1.5803
63.6713,1.5402
63.6719,1.528
63.6719,1.5717
63.6729,1.5569
63.6729,1.5004
63.6771,1.4879
63.6779,1.5302
63.6779,1.4419
63.6789,1.4162
63.6789,1.4622
63.6841,1.6281
63.6851,1.7078
63.6851,1.6159
63.6861,1.5689
63.6915,1.5559
63.6925,1.5632
63.6935,1.6005
63.6935,1.6045
63.6945,1.6223
63.6975,1.5713
63.6997,1.587
63.6997,1.5098
63.7007,1.5383
63.7049,1.5194
63.7049,1.5719
63.7059,1.5389
63.7059,1.555
63.7069,1.5659
63.7115,1.4652
63.7115,1.4104
63.7125,1.3628
63.7125,1.3793
63.7186,1.5342
63.7186,1.564
63.7196,1.5724
63.7196,1.5747
63.7206,1.5454
63.7248,1.461
63.7258,1.3956
63.7268,1.446
63.7279,1.6311
63.7280,1.6598
63.7318,1.6399
63.7318,1.5482
63.7328,1.5471
63.7328,1.5614
63.7513,1.4961
63.7542,1.4389
63.7542,1.6028
63.7552,1.561
63.7552,1.4822
63.7565,1.5728
63.7565,1.6735
63.7576,1.7843
63.7576,1.7436
63.7585,1.4179
63.7585,1.3645
63.7595,1.2824
63.7599,1.3315
63.7605,1.5372
63.7605,1.5606
63.7615,1.6626
63.7615,1.4249
63.7625,1.5276
63.7651,1.5165
63.7662,1.7202
63.7672,1.7459
63.7672,1.7674
63.7682,1.7689
63.7722,1.7251
63.7732,1.6133
63.7732,1.5145
63.7742,1.5715
63.7744,1.5807
63.7794,1.5441
63.7794,1.5803
63.7807,1.5636
63.7807,1.537
63.7868,1.5975
63.7868,1.6122
63.7878,1.6264
63.7878,1.6172
63.7888,1.612
63.7924,1.5749
63.7934,1.5642
63.7934,1.5578
63.7944,1.4747
63.7998,1.4865
63.7998,1.5435
63.8009,1.6456
63.8009,1.635
63.8019,1.654
63.8061,1.6035
63.8072,1.6146
63.8072,1.5908
63.8082,1.563
63.8132,1.5983
63.8132,1.633
63.8143,1.6506
63.8143,1.5702
63.8155,1.5087
63.8195,1.4344
63.8205,1.4087
63.8208,1.4001
63.8208,1.4625
63.8218,1.5959
63.8270,1.7177
63.8270,1.7082
63.8280,1.6636
63.8280,1.6159
63.8337,1.4605
63.8345,1.4556
63.8345,1.6448
63.8355,1.7687
63.8355,1.7491
63.8400,1.7177
63.8411,1.5651
63.8411,1.5434
63.8421,1.6302
63.8607,1.6564
63.8637,1.6692
63.8647,1.6799
63.8647,1.6079
63.8660,1.648
63.8660,1.7571
63.8668,1.6771
63.8668,1.5036
63.8677,1.6365
63.8677,1.422
63.8687,1.5075
63.8687,1.5649
63.8697,1.5869
63.8697,1.69
63.8697,1.6187
63.8707,1.5597
63.8707,1.6641
63.8719,1.6302
63.8719,1.5242
63.8739,1.5169
63.8739,1.6365
63.8749,1.5949
63.8749,1.5842
63.8813,1.5814
63.8813,1.5848
63.8826,1.6041
63.8826,1.5833
63.8836,1.5818
63.8878,1.5619
63.8878,1.5878
63.8889,1.4292
63.8899,1.4151
63.8941,1.6457
63.8952,1.5162
63.8952,1.4779
63.8962,1.5387
63.8962,1.7129
63.9010,1.614
63.9021,1.5825
63.9021,1.6352
63.9021,1.6696
63.9083,1.6379
63.9094,1.6229
63.9094,1.5186
63.9106,1.6257
63.9106,1.6253
63.9161,1.573
63.9161,1.5499
63.9171,1.6103
63.9171,1.5749
63.9181,1.5985
63.9234,1.7018
63.9234,1.7356
63.9244,1.6452
63.9244,1.5936
63.9306,1.6377
63.9306,1.5441
63.9317,1.4444
63.9317,1.5083
63.9328,1.6019
63.9367,1.456
63.9377,1.4856
63.9377,1.5175
63.9388,1.5462
63.9444,1.6546
63.9444,1.621
63.9451,1.627
63.9451,1.6002
63.9461,1.5398
63.9499,1.4565
63.9511,1.3605
63.9574,1.4665
63.9712,1.4586
63.9735,1.4397
63.9745,1.6028
63.9745,1.546
63.9755,1.6232
63.9766,1.6643
63.9766,1.693
63.9775,1.7952
63.9775,1.7011
63.9775,1.7457
63.9787,1.8265
63.9787,1.8636
63.9798,1.8535
63.9798,1.876
63.9808,1.8764
63.9808,1.9
63.9808,1.8681
63.9818,1.8597
63.9818,2.0029
63.9828,2.0744
63.9843,2.1224
63.9851,1.9639
63.9851,1.8646
63.9861,1.8685
63.9917,1.7736
63.9927,1.5449
63.9937,1.5578
63.9948,1.6527
63.9949,1.6583
63.9978,1.6322
63.9987,1.584
63.9987,1.5248
63.9997,1.5437
64.0053,1.578
64.0062,1.5852
64.0064,1.5998
64.0064,1.6154
64.0074,1.6105
64.0113,1.6555
64.0124,1.6682
64.0126,1.6396
64.0126,1.5854
64.0136,1.5651
64.0188,1.7144
64.0188,1.7179
64.0188,1.6148
64.0198,1.5411
64.0256,1.6328
64.0266,1.6073
64.0266,1.5629
64.0277,1.6637
64.0277,1.6667
64.0321,1.5756
64.0332,1.569
64.0332,1.5287
64.0342,1.6294
64.0397,1.5704
64.0397,1.6176
64.0407,1.5983
64.0407,1.6493
64.0407,1.6
64.0452,1.717
64.0452,1.7222
64.0462,1.8396
64.0462,1.7942
64.0527,1.6712
64.0527,1.6354
64.0537,1.585
64.0537,1.5092
64.0547,1.605
64.0633,1.7466
64.0776,1.7601
64.0808,1.7429
64.0808,1.6169
64.0818,1.6915
64.0818,1.6786
64.0828,1.6159
64.0828,1.5915
64.0828,1.5754
64.0838,1.6585
64.0848,1.7288
64.0848,1.6069
64.0848,1.6022
64.0860,1.6765
64.0860,1.663
64.0870,1.7039
64.0870,1.6836
64.0870,1.6969
64.0880,1.6812
64.0880,1.6889
64.0890,1.6118
64.0890,1.6405
64.0900,1.7168
64.0927,1.6559
64.0934,1.6452
64.0934,1.6377
64.0944,1.6172
64.1000,1.6416
64.1000,1.6017
64.1011,1.629
64.1011,1.6339
64.1023,1.7159
64.1064,1.6872
64.1075,1.6433
64.1076,1.5715
64.1076,1.6636
64.1086,1.6476
64.1134,1.539
64.1134,1.6579
64.1144,1.6981
64.1144,1.7616
64.1202,1.6866
64.1213,1.6217
64.1213,1.6529
64.1213,1.6319
64.1223,1.6868
64.1266,1.7577
64.1277,1.7344
64.1277,1.7684
64.1286,1.7322
64.1341,1.5467
64.1341,1.5627
64.1353,1.617
64.1353,1.7393
64.1363,1.6609
64.1406,1.6225
64.1406,1.6444
64.1416,1.6041
64.1416,1.6832
64.1474,1.7352
64.1474,1.8747
64.1485,1.9452
64.1485,1.7491
64.1495,1.6118
64.1537,1.5516
64.1547,1.6184
64.1547,1.7168
64.1547,1.7624
64.1557,1.8542
64.1609,1.8428
64.1609,1.7888
64.1619,1.8126
64.1621,1.7142
64.1721,1.7155
64.1868,1.759
64.1878,1.699
64.1898,1.6707
64.1908,1.6921
64.1908,1.7357
64.1921,1.7974
64.1925,1.7326
64.1931,1.726
64.1931,1.7879
64.1941,1.7879
64.1941,1.8089
64.1951,1.8214
64.1951,1.8167
64.1961,1.7237
64.1961,1.7802
64.1971,1.7914
64.1971,1.8053
64.1981,1.798
64.1981,1.7959
64.1990,1.792
64.1990,1.7916
64.2000,1.7174
64.2009,1.6587
64.2018,1.6879
64.2018,1.7297
64.2018,1.7618
64.2028,1.8794
64.2080,1.9229
64.2080,1.9082
64.2090,1.7939
64.2102,1.783
64.2156,1.8383
64.2156,1.8691
64.2166,1.7972
64.2166,1.7022
64.2176,1.6754
64.2218,1.5919
64.2218,1.8407
64.2228,1.9467
64.2228,1.9034
64.2291,1.7781
64.2291,1.7511
64.2302,1.81
64.2302,1.7266
64.2312,1.6802
64.2353,1.6812
64.2363,1.705
64.2363,1.7819
64.2373,1.7382
64.2424,1.6611
64.2424,1.5599
64.2435,1.7498
64.2435,1.8766
64.2447,1.7472
64.2487,1.7322
64.2497,1.7236
64.2500,1.7202
64.2500,1.6652
64.2510,1.533
64.2552,1.6296
64.2562,1.5818
64.2562,1.7018
64.2572,1.6951
64.2631,1.7609
64.2631,1.7042
64.2642,1.6487
64.2642,1.6109
64.2652,1.6705
64.2694,1.7359
64.2705,1.6118
64.2705,1.6294
64.2715,1.6714
64.2768,1.7011
64.2768,1.7084
64.2777,1.6737
64.2777,1.6482
64.2789,1.6187
64.2828,1.5739
64.2839,1.6525
64.2842,1.7232
64.2842,1.7687
64.2897,1.7545
64.2897,1.684
64.2907,1.663
64.2907,1.6007
64.2957,1.5312
64.3073,1.5585
64.3125,1.6742
64.3135,1.596
64.3135,1.5475
64.3145,1.4989
64.3145,1.4618
64.3155,1.4487
64.3155,1.6639
64.3165,1.7007
64.3165,1.7704
64.3175,1.8094
64.3175,1.7789
64.3187,1.756
64.3187,1.6529
64.3187,1.503
64.3198,1.4237
64.3198,1.5479
64.3208,1.6834
64.3242,1.7172
64.3242,1.7296
64.3251,1.6628
64.3261,1.6497
64.3261,1.654
64.3306,1.5722
64.3315,1.4824
64.3315,1.5824
64.3325,1.6808
64.3379,1.6319
64.3379,1.759
64.3389,1.7819
64.3389,1.7507
64.3399,1.6906
64.3442,1.7106
64.3442,1.6354
64.3452,1.6037
64.3452,1.5854
64.3452,1.621
64.3514,1.6422
64.3514,1.6592
64.3514,1.6907
64.3524,1.7264
64.3586,1.7566
64.3599,1.6654
64.3599,1.7296
64.3599,1.6748
64.3610,1.6741
64.3652,1.7269
64.3652,1.6611
64.3663,1.6587
64.3663,1.6952
64.3717,1.6315
64.3717,1.6103
64.3728,1.5989
64.3728,1.5544
64.3738,1.5392
64.3782,1.5351
64.3792,1.5516
64.3792,1.7026
64.3802,1.6877
64.3855,1.6461
64.3855,1.7065
64.3864,1.7243
64.3864,1.6771
64.3877,1.626
64.3917,1.6587
64.3928,1.7052
64.3929,1.69
64.3929,1.6662
64.3940,1.6769
64.3981,1.6684
64.3993,1.6403
64.3993,1.6403
64.4002,1.4474
64.4060,1.488
64.4071,1.6187
64.4071,1.6669
64.4071,1.6981
64.4081,1.5801
64.4124,1.5244
64.4134,1.5539
64.4134,1.6313
64.4146,1.6951
64.4236,1.5983
64.4330,1.6067
64.4363,1.7012
64.4373,1.7277
64.4373,1.7826
64.4373,1.8724
64.4383,1.7316
64.4383,1.7099
64.4393,1.6821
64.4393,1.6343
64.4403,1.5779
64.4403,1.6165
64.4415,1.5377
64.4415,1.4582
64.4425,1.5585
64.4431,1.632
64.4435,1.7009
64.4435,1.684
64.4445,1.7262
64.4465,1.8227
64.4465,1.7318
64.4478,1.7562
64.4478,1.7194
64.4535,1.7581
64.4535,1.6697
64.4545,1.7219
64.4545,1.6163
64.4555,1.6086
64.4602,1.6439
64.4608,1.7005
64.4618,1.7042
64.4618,1.5854
64.4672,1.5413
64.4672,1.6544
64.4683,1.5975
64.4683,1.6759
64.4695,1.6542
64.4736,1.6652
64.4748,1.6705
64.4748,1.6549
64.4748,1.6163
64.4805,1.6229
64.4805,1.6399
64.4815,1.5585
64.4815,1.6707
64.4825,1.6726
64.4868,1.5707
64.4921,1.5525
64.4921,1.626
64.4931,1.6487
64.4931,1.6767
64.4940,1.533
64.4940,1.5392
64.4951,1.6546
64.4951,1.5974
64.5013,1.5147
64.5013,1.5014
64.5023,1.5705
64.5023,1.7414
64.5033,1.7789
64.5077,1.687
64.5086,1.6364
64.5086,1.6604
64.5095,1.6831
64.5147,1.8887
64.5147,1.9086
64.5158,1.8162
64.5158,1.7926
64.5168,1.7721
64.5211,1.7901
64.5388,1.8066
64.5431,1.7777
64.5431,1.7449
64.5438,1.6932
64.5438,1.6911
64.5447,1.7774
64.5447,1.7918
64.5457,1.8212
64.5457,1.7624
64.5467,1.6724
64.5467,1.6292
64.5477,1.6077
64.5477,1.5229
64.5487,1.6099
64.5487,1.6456
64.5487,1.6519
64.5497,1.6553
64.5497,1.8004
64.5507,1.7149
64.5507,1.6437
64.5517,1.6656
64.5517,1.6315
64.5549,1.6159
64.5557,1.6459
64.5557,1.5246
64.5567,1.6197
64.5626,1.6319
64.5626,1.6214
64.5636,1.5435
64.5636,1.5349
64.5646,1.6279
64.5688,1.6474
64.5697,1.4179
64.5697,1.5239
64.5707,1.6546
64.5756,1.7552
64.5766,1.8413
64.5771,1.8085
64.5776,1.7434
64.5786,1.6169
64.5823,1.5846
64.5833,1.6124
64.5833,1.6936
64.5833,1.6034
64.5843,1.5968
64.5892,1.5705
64.5892,1.7157
64.5902,1.6756
64.5902,1.6326
64.5966,1.5987
64.5976,1.6054
64.5979,1.5282
64.5989,1.5014
64.5989,1.4224
64.6032,1.3227
64.6040,1.4099
64.6040,1.5722
64.6050,1.6019
64.6099,1.9163
64.6107,1.8867
64.6107,1.8308
64.6117,1.7813
64.6117,1.7481
64.6165,1.7429
64.6176,1.7067
64.6176,1.6125
64.6186,1.6452
64.6236,1.6405
64.6236,1.6529
64.6247,1.7192
64.6247,1.7479
64.6258,1.6476
64.6298,1.6471
64.6309,1.6212
64.6311,1.6429
64.6311,1.6645
64.6322,1.6544
64.6498,1.6589
64.6530,1.6399
64.6531,1.6013
64.6538,1.4155
64.6538,1.467
64.6548,1.528
64.6548,1.5704
64.6558,1.5696
64.6558,1.6424
64.6568,1.6414
64.6568,1.6456
64.6578,1.7802
64.6578,1.9891
64.6592,1.9973
64.6600,2.023
64.6600,2.056
64.6600,2.1743
64.6610,2.1453
64.6659,2.1513
64.6659,2.1295
64.6669,2.1201
64.6669,1.993
64.6728,1.9624
64.6728,1.8113
64.6739,1.8473
64.6739,1.7209
64.6751,1.7041
64.6789,1.6853
64.6797,1.6787
64.6797,1.6831
64.6809,1.6832
64.6809,1.6193
64.6859,1.6013
64.6870,1.6305
64.6870,1.6519
64.6880,1.4909
64.6931,1.3064
64.6941,1.2809
64.6950,1.3476
64.6960,1.519
64.6970,1.6045
64.6996,1.6592
64.7003,1.7011
64.7013,1.8171
64.7013,1.9009
64.7070,1.8501
64.7070,1.7663
64.7080,1.8327
64.7080,1.8087
64.7090,1.7626
64.7130,1.723
64.7140,1.708
64.7150,1.7297
64.7150,1.6971
64.7205,1.6711
64.7214,1.6062
64.7215,1.6712
64.7215,1.612
64.7226,1.6611
64.7268,1.6688
64.7277,1.6735
64.7287,1.6934
64.7287,1.7116
64.7297,1.6763
64.7339,1.666
64.7339,1.6861
64.7350,1.7071
64.7350,1.6836
64.7430,1.7626
64.7521,1.7316
64.7616,1.6786
64.7658,1.6534
64.7658,1.5998
64.7668,1.635
64.7668,1.6255
64.7668,1.687
64.7678,1.6741
64.7688,1.6247
64.7688,1.6221
64.7698,1.639
64.7698,1.6304
64.7708,1.6782
64.7708,1.7438
64.7720,1.6705
64.7730,1.6204
64.7740,1.5698
64.7740,1.47
64.7750,1.5216
64.7760,1.6131
64.7764,1.8297
64.7770,1.7567
64.7770,1.6474
64.7782,1.7877
64.7782,1.8627
64.7792,1.603
64.7792,1.6245
64.7812,1.5906
64.7812,1.6019
64.7822,1.6465
64.7822,1.7129
64.7884,1.7344
64.7896,1.7153
64.7906,1.7356
64.7906,1.7099
64.7916,1.6212
64.7946,1.5584
64.7958,1.684
64.7968,1.648
64.7968,1.6534
64.8020,1.7618
64.8020,1.7337
64.8030,1.7389
64.8030,1.7787
64.8040,1.6634
64.8082,1.6544
64.8092,1.6379
64.8095,1.7674
64.8102,1.6967
64.8144,1.6729
64.8154,1.7102
64.8164,1.7018
64.8164,1.6902
64.8164,1.7125
64.8213,1.7699
64.8233,1.783
64.8243,1.6257
64.8253,1.7189
64.8263,1.7896
64.8293,1.6911
64.8303,1.6442
64.8303,1.5812
64.8313,1.6784
64.8358,1.5614
64.8363,1.6894
64.8375,1.8293
64.8385,1.8207
64.8395,1.6343
64.8425,1.6607
64.8425,1.5929
64.8437,1.5222
64.8447,1.611
64.8488,1.7982
64.8726,1.4764
64.8776,1.5445
64.8776,1.536
64.8786,1.5797
64.8796,1.7432
64.8796,2.0026
64.8806,1.8664
64.8806,1.9516
64.8816,1.8994
64.8816,1.8456
64.8826,1.8126
64.8826,1.8394
64.8836,1.8263
64.8836,1.8856
64.8848,1.8854
64.8848,1.9077
64.8858,1.8107
64.8868,1.8361
64.8868,1.7914
64.8877,1.7476
64.8877,1.7104
64.8887,1.6705
64.8887,1.7132
64.8897,1.7642
64.8897,1.8136
64.8911,1.7777
64.8911,1.8644
64.8921,1.9859
64.8931,1.9602
64.8941,1.9926
64.8941,1.9866
64.8961,1.9397
64.8973,1.8154
64.8983,1.8267
64.8983,1.6394
64.8991,1.5737
64.9033,1.6731
64.9043,1.6259
64.9043,1.5786
64.9053,1.6926
64.9100,1.8452
64.9105,1.7725
64.9115,1.7521
64.9124,1.8831
64.9124,1.8824
64.9164,1.8702
64.9174,1.7704
64.9174,1.7719
64.9174,1.7504
64.9184,1.774
64.9229,1.7404
64.9239,1.7059
64.9247,1.6699
64.9249,1.6652
64.9309,1.6834
64.9309,1.714
64.9319,1.6369
64.9319,1.5122
64.9329,1.6549
64.9371,1.7191
64.9371,1.6919
64.9381,1.6525
64.9381,1.5501
64.9440,1.5614
64.9453,1.6624
64.9455,1.8436
64.9465,1.7172
64.9465,1.6641
64.9505,1.6253
64.9505,1.5514
64.9515,1.5254
64.9525,1.4927
64.9605,1.6304
64.9820,1.7181
64.9850,1.5822
64.9860,1.5312
64.9870,1.6853
64.9880,1.7099
64.9880,1.6827
64.9890,1.6872
64.9890,1.7852
64.9900,1.5743
64.9900,1.552
64.9910,1.5945
64.9910,1.6146
64.9925,1.5932
64.9930,1.5394
64.9942,1.5117
64.9952,1.608
64.9952,1.5702
64.9952,1.6354
64.9962,1.8156
64.9962,1.6667
64.9972,1.657
64.9982,1.6996
64.9982,1.7018
64.9991,1.6967
65.0004,1.629
65.0014,1.7071
65.0014,1.72
65.0024,1.7376
65.0024,1.611
65.0034,1.6099
65.0044,1.6981
65.0051,1.6909
65.0053,1.6444
65.0066,1.6035
65.0076,1.6272
65.0076,1.6412
65.0116,1.5235
65.0116,1.5109
65.0128,1.5955
65.0128,1.5572
65.0138,1.6525
65.0189,1.6769
65.0198,1.6182
65.0198,1.6367
65.0208,1.6859
65.0260,1.7149
65.0260,1.6187
65.0270,1.6296
65.0270,1.645
65.0280,1.6441
65.0322,1.5773
65.0332,1.5765
65.0332,1.6367
65.0342,1.4781
65.0394,1.5989
65.0394,1.6609
65.0405,1.6776
65.0405,1.7356
65.0414,1.6521
65.0454,1.5674
65.0464,1.5839
65.0464,1.5799
65.0474,1.6017
65.0527,1.6382
65.0537,1.6947
65.0549,1.6418
65.0549,1.5992
65.0559,1.5807
65.0590,1.5812
65.0602,1.5032
65.0612,1.5188
65.0612,1.548
65.0612,1.7318
65.0763,1.8128
65.0865,1.7774
65.0895,1.5975
65.0905,1.5578
65.0905,1.5585
65.0915,1.4507
65.0915,1.7877
65.0925,1.741
65.0935,1.7097
65.0937,1.7832
65.0945,1.7412
65.0945,1.6712
65.0955,1.5773
65.0965,1.7153
65.0965,1.7457
65.0975,1.7723
65.0975,1.6823
65.0985,1.6251
65.0985,1.6013
65.0997,1.603
65.0997,1.639
65.1007,1.7414
65.1007,1.6954
65.1017,1.6221
65.1017,1.6718
65.1027,1.657
65.1027,1.6703
65.1068,1.7266
65.1078,1.7275
65.1078,1.7086
65.1088,1.7048
65.1088,1.6722
65.1138,1.6894
65.1148,1.623
65.1148,1.606
65.1148,1.579
65.1214,1.5555
65.1225,1.5685
65.1225,1.6662
65.1235,1.6981
65.1235,1.6396
65.1274,1.6752
65.1285,1.6924
65.1285,1.6741
65.1295,1.6576
65.1340,1.6621
65.1351,1.6354
65.1361,1.6022
65.1361,1.594
65.1361,1.509
65.1415,1.518
65.1415,1.6069
65.1426,1.6326
65.1426,1.5261
65.1483,1.6035
65.1483,1.6964
65.1494,1.7072
65.1494,1.8467
65.1506,1.7577
65.1546,1.5632
65.1557,1.603
65.1559,1.5572
65.1559,1.5908
65.1569,1.7387
65.1611,1.7247
65.1622,1.6881
65.1622,1.7174
65.1632,1.7429
65.1688,1.7879
65.1688,1.6562
65.1699,1.6742
65.1699,1.6622
65.1709,1.5413
65.1781,1.5074
65.1911,1.5049
65.1955,1.4717
65.1955,1.6154
65.1963,1.6097
65.1963,1.6786
65.1973,1.5855
65.1973,1.5938
65.1983,1.7132
65.1983,1.6823
65.1983,1.7732
65.1993,1.879
65.1993,1.7226
65.2005,1.6817
65.2005,1.6649
65.2005,1.6082
65.2015,1.6229
65.2015,1.6407
65.2025,1.6771
65.2025,1.7134
65.2036,1.7245
65.2036,1.7204
65.2045,1.6643
65.2097,1.7067
65.2097,1.6934
65.2107,1.7119
65.2117,1.6988
65.2171,1.6876
65.2172,1.6947
65.2172,1.6491
65.2183,1.6611
65.2183,1.7346
65.2227,1.7292
65.2237,1.7852
65.2237,1.7438
65.2247,1.7342
65.2300,1.6874
65.2300,1.6034
65.2311,1.5085
65.2311,1.5615
65.2321,1.6536
65.2365,1.657
65.2375,1.7335
65.2375,1.7886
65.2375,1.7357
65.2434,1.7402
65.2443,1.6846
65.2445,1.72
65.2445,1.8057
65.2455,1.7372
65.2501,1.7271
65.2508,1.6551
65.2508,1.6178
65.2518,1.6651
65.2518,1.6626
65.2571,1.8962
65.2571,1.7337
65.2581,1.6446
65.2581,1.6184
65.2641,1.6244
65.2651,1.6302
65.2651,1.5966
65.2661,1.6827
65.2661,1.6566
65.2704,1.7003
65.2714,1.6806
65.2714,1.7991
65.2725,1.8496
65.2780,1.7755
65.2780,1.6255
65.2791,1.6726
65.2791,1.6197
65.2791,1.558
65.2895,1.6364
65.2978,1.6204
65.3012,1.606
65.3022,1.6184
65.3022,1.6493
65.3032,1.6881
65.3032,1.6459
65.3041,1.6155
65.3041,1.7042
65.3041,1.6767
65.3054,1.5985
65.3054,1.6215
65.3065,1.621
65.3065,1.6352
65.3075,1.6501
65.3075,1.696
65.3085,1.7766
65.3085,1.7941
65.3118,1.7451
65.3118,1.6238
65.3129,1.5567
65.3129,1.563
65.3139,1.6067
65.3183,1.5518
65.3193,1.6647
65.3193,1.5979
65.3203,1.6516
65.3254,1.7507
65.3264,1.7301
65.3274,1.6459
65.3274,1.6135
65.3284,1.7078
65.3316,1.6356
65.3325,1.5692
65.3325,1.7282
65.3336,1.6902
65.3381,1.6752
65.3391,1.6795
65.3401,1.6726
65.3401,1.7267
65.3401,1.7729
65.3448,1.7245
65.3455,1.6688
65.3455,1.5932
65.3465,1.6052
65.3465,1.6002
65.3518,1.6176
65.3528,1.5741
65.3528,1.6514
65.3538,1.5807
65.3593,1.6469
65.3593,1.7252
65.3603,1.7847
65.3603,1.8182
65.3613,1.8111
65.3656,1.7884
65.3666,1.912
65.3666,1.9536
65.3676,2.0449
65.3728,2.0734
65.3728,2.0536
65.3739,2.059
65.3739,2.0667
65.3749,2.0973
65.3815,2.0916
65.3816,2.0076
65.3826,1.9088
65.3826,1.6688
65.3880,1.5932
65.3880,1.6463
65.3891,1.6069
65.3891,1.5854
65.3901,1.7011
65.3954,1.6452
65.4095,1.4914
65.4125,1.5105
65.4125,1.5182
65.4135,1.7067
65.4135,1.6692
65.4144,1.7273
65.4144,1.6444
65.4154,1.6037
65.4154,1.4224
65.4164,1.4554
65.4167,1.6662
65.4167,1.7877
65.4177,1.7581
65.4177,1.7886
65.4187,1.8432
65.4187,1.7757
65.4197,1.7249
65.4223,1.6292
65.4223,1.5775
65.4232,1.6911
65.4232,1.8327
65.4242,1.8171
65.4283,1.8865
65.4294,1.8466
65.4294,1.8199
65.4304,1.7706
65.4356,1.6598
65.4356,1.726
65.4366,1.7262
65.4366,1.7401
65.4376,1.747
65.4419,1.7768
65.4429,1.7176
65.4439,1.7656
65.4452,1.7762
65.4452,1.7431
65.4492,1.7875
65.4492,1.8074
65.4492,1.7837
65.4504,1.6624
65.4559,1.6471
65.4569,1.7206
65.4569,1.621
65.4579,1.7104
65.4579,1.669
65.4624,1.7204
65.4635,1.6994
65.4635,1.7318
65.4645,1.678
65.4696,1.6737
65.4696,1.6056
65.4706,1.5477
65.4706,1.6204
65.4716,1.7646
65.4759,1.7909
65.4770,1.6904
65.4770,1.7909
65.4779,1.8366
65.4834,1.7922
65.4834,1.7176
65.4845,1.7391
65.4845,1.7341
65.4855,1.7551
65.4892,1.7552
65.4903,1.7207
65.4903,1.7552
65.4913,1.8764
65.4955,1.7245
65.4965,1.6519
65.4965,1.6962
65.4975,1.7007
65.4975,1.7573
65.5035,1.7393
65.5176,1.7106
65.5204,1.8835
65.5204,1.9307
65.5214,1.894
65.5214,1.7961
65.5224,1.8239
65.5224,1.6491
65.5234,1.6937
65.5234,1.7314
65.5244,1.7215
65.5244,1.7412
65.5254,1.6407
65.5263,1.5674
65.5264,1.6956
65.5264,1.8681
65.5274,1.9382
65.5274,1.9651
65.5306,2.0275
65.5308,1.9992
65.5316,1.9276
65.5316,1.7483
65.5326,1.7393
65.5368,1.7768
65.5376,1.6891
65.5376,1.738
65.5386,1.7342
65.5386,1.693
65.5440,1.6602
65.5446,1.7791
65.5446,1.8561
65.5457,1.8038
65.5510,1.8233
65.5518,1.9159
65.5518,1.8576
65.5529,1.7502
65.5529,1.6662
65.5571,1.6838
65.5581,1.7588
65.5581,1.6705
65.5591,1.7541
65.5645,1.8072
65.5652,1.9232
65.5652,1.8769
65.5663,1.9829
65.5663,2.0155
65.5705,1.93
65.5715,1.9045
65.5715,1.9114
65.5725,1.7942
65.5777,1.7596
65.5788,1.8359
65.5788,1.8571
65.5797,1.9512
65.5797,2.0005
65.5842,1.933
65.5848,1.9381
65.5848,1.9673
65.5859,2.0059
65.5859,1.9964
65.5909,1.9487
65.5919,1.9071
65.5919,1.8008
65.5929,1.8145
65.5986,1.9157
65.5986,1.852
65.5997,1.9411
65.5997,1.96
65.6007,1.9739
65.6048,1.963
65.6057,2.002
65.6057,1.9405
65.6068,1.9546
65.6127,1.9356
65.6267,1.8743
65.6297,1.8338
65.6307,1.9163
65.6307,1.876
65.6317,1.6744
65.6317,1.8591
65.6327,1.9244
65.6327,1.9377
65.6337,1.9002
65.6337,1.816
65.6347,1.8692
65.6347,1.8631
65.6347,1.8872
65.6357,1.8509
65.6357,1.8501
65.6367,1.9375
65.6367,1.8454
65.6377,1.8329
65.6387,1.8019
65.6387,1.7892
65.6398,1.7624
65.6398,1.7746
65.6461,1.7309
65.6461,1.6174
65.6471,1.6169
65.6471,1.7875
65.6481,1.7408
65.6523,1.8507
65.6533,1.8548
65.6533,1.7674
65.6543,1.7897
65.6588,1.792
65.6608,1.7547
65.6608,1.7614
65.6618,1.8062
65.6618,1.8857
65.6658,1.8231
65.6658,1.7965
65.6669,1.7309
65.6669,1.7562
65.6729,1.7162
65.6729,1.6802
65.6739,1.7888
65.6739,1.7672
65.6749,1.7633
65.6790,1.7611
65.6801,1.663
65.6801,1.5407
65.6811,1.6594
65.6811,1.4198
65.6861,1.62
65.6861,1.7965
65.6871,1.8884
65.6871,1.9549
65.6938,1.8122
65.6938,1.7746
65.6951,1.6994
65.6951,1.7892
65.6961,1.7881
65.7001,1.7695
65.7001,1.7693
65.7013,1.8432
65.7013,1.8762
65.7073,1.7907
65.7073,1.6776
65.7082,1.6324
65.7097,1.6776
65.7102,1.6628
65.7135,1.7275
65.7135,1.7027
65.7145,1.5533
65.7145,1.7286
65.7208,1.7794
65.7365,1.7487
65.7392,1.7701
65.7403,1.7781
65.7403,1.7847
65.7412,1.8994
65.7412,1.8059
65.7425,1.8166
65.7432,1.8158
65.7432,1.7607
65.7442,1.7774
65.7452,1.6937
65.7452,1.7138
65.7462,1.7024
65.7462,1.8807
65.7472,1.8936
65.7472,1.7965
65.7472,1.7447
65.7485,1.7472
65.7485,1.6928
65.7495,1.6656
65.7495,1.7007
65.7505,1.8186
65.7545,1.7843
65.7545,1.765
65.7556,1.7307
65.7556,1.6984
65.7566,1.6776
65.7613,1.6982
65.7613,1.7611
65.7623,1.7959
65.7623,1.7326
65.7679,1.6969
65.7679,1.8287
65.7690,1.7566
65.7690,1.7121
65.7702,1.7256
65.7744,1.7781
65.7752,1.8644
65.7752,1.7993
65.7762,1.8083
65.7762,1.7412
65.7815,1.7736
65.7824,1.7491
65.7824,1.7554
65.7834,1.7462
65.7888,1.6996
65.7888,1.7639
65.7899,1.7762
65.7899,1.6581
65.7908,1.585
65.7949,1.765
65.7959,1.909
65.7959,1.9536
65.7969,1.8312
65.8023,1.7935
65.8023,1.7061
65.8036,1.6504
65.8036,1.6838
65.8036,1.8173
65.8090,1.8638
65.8090,1.8807
65.8104,1.8381
65.8111,1.8906
65.8157,1.7213
65.8157,1.7982
65.8167,1.7875
65.8167,1.735
65.8177,1.7342
65.8220,1.7729
65.8230,1.801
65.8230,1.8572
65.8230,1.8359
65.8240,1.7963
65.8435,1.8151
65.8465,1.8092
65.8474,1.7704
65.8474,1.7916
65.8487,1.7989
65.8487,1.8139
65.8497,1.7395
65.8497,1.7159
65.8507,1.6538
65.8507,1.6667
65.8507,1.6172
65.8517,1.5848
65.8517,1.7189
65.8527,1.6906
65.8527,1.828
65.8538,1.666
65.8539,1.7322
65.8539,1.7896
65.8562,1.8398
65.8570,1.831
65.8580,1.7781
65.8589,1.8122
65.8633,1.8679
65.8633,1.807
65.8645,1.7911
65.8645,1.8906
65.8656,1.8319
65.8701,1.7971
65.8704,1.8158
65.8704,1.8218
65.8714,1.8089
65.8714,1.7974
65.8776,1.7215
65.8776,1.7781
65.8786,1.7254
65.8786,1.7927
65.8840,1.771
65.8840,1.8002
65.8851,1.7963
65.8851,1.8464
65.8860,1.8781
65.8903,2.0147
65.8913,1.8692
65.8913,1.7402
65.8923,1.813
65.8975,1.7569
65.8975,1.6716
65.8988,1.7357
65.8988,1.7093
65.8999,1.7474
65.9041,1.7849
65.9041,1.795
65.9051,1.8209
65.9051,1.8462
65.9108,1.7738
65.9108,2.0172
65.9118,1.8938
65.9118,1.6609
65.9128,1.5887
65.9173,1.4916
65.9183,1.6019
65.9183,1.7462
65.9183,1.6911
65.9193,1.6904
65.9245,1.8089
65.9245,1.8865
65.9255,1.7438
65.9255,2.0354
65.9321,2.0404
65.9321,2.0281
65.9331,1.9527
65.9331,1.8959
65.9341,1.9043
65.9525,1.9264
65.9574,1.8261
65.9574,1.8055
65.9585,1.7579
65.9594,1.7657
65.9594,1.8046
65.9606,1.7886
65.9617,1.8458
65.9627,1.8824
65.9627,1.8595
65.9637,1.9249
65.9647,1.9645
65.9657,1.8906
65.9657,1.8411
65.9667,1.8087
65.9672,1.7652
65.9672,1.8494
65.9678,1.9307
65.9678,1.8584
65.9688,1.8055
65.9688,1.906
65.9698,1.9448
65.9698,1.8784
65.9720,1.6911
65.9720,1.7209
65.9730,1.7108
65.9730,1.7119
65.9791,1.7507
65.9801,1.7732
65.9801,1.7129
65.9811,1.672
65.9821,1.6585
65.9856,1.7247
65.9866,1.8996
65.9866,1.9114
65.9876,1.8227
65.9921,1.8994
65.9932,1.8516
65.9932,1.7457
65.9944,1.7196
65.9944,1.7234
65.9995,1.6921
65.9996,1.5085
65.9996,1.6002
66.0007,1.6493
66.0063,1.7541
66.0063,1.8055
66.0073,1.7884
66.0073,1.8398
66.0083,1.7686
66.0126,1.6609
66.0126,1.6478
66.0137,1.6682
66.0137,1.6649
66.0147,1.6544
66.0198,1.7397
66.0198,1.8447
66.0210,1.8709
66.0210,1.9268
66.0274,1.9981
66.0279,1.8376
66.0279,1.8098
66.0289,1.7462
66.0289,1.6765
66.0332,1.7138
66.0342,1.6754
66.0342,1.7037
66.0352,1.4633
66.0404,1.7247
66.0404,1.6472
66.0415,1.7232
66.0415,1.612
66.0437,1.696
66.0618,1.6954
66.0648,1.7614
66.0648,1.9486
66.0658,1.8859
66.0658,1.849
66.0668,1.8844
66.0668,1.6712
66.0681,1.7016
66.0681,1.7213
66.0691,1.7174
66.0691,1.7843
66.0691,1.8593
66.0701,1.9092
66.0701,1.9632
66.0711,2.0159
66.0711,2.0508
66.0721,2.0903
66.0721,2.1816
66.0741,2.2096
66.0761,2.2321
66.0771,2.1423
66.0781,2.041
66.0793,2.1205
66.0808,2.1261
66.0813,2.1244
66.0823,2.1254
66.0823,2.0794
66.0881,2.0151
66.0887,1.9289
66.0887,1.8814
66.0900,1.8938
66.0900,1.7783
66.0940,1.6576
66.0953,1.6909
66.0953,1.6994
66.0953,1.6416
66.1008,1.5475
66.1018,1.4432
66.1028,1.4185
66.1028,1.7026
66.1038,1.8171
66.1087,1.9122
66.1098,1.9244
66.1108,1.9435
66.1108,1.9506
66.1108,1.8207
66.1160,1.678
66.1172,1.7342
66.1172,1.7502
66.1182,1.6305
66.1238,1.7312
66.1247,1.7922
66.1247,1.8031
66.1257,1.8286
66.1257,1.8709
66.1300,1.8674
66.1311,1.7991
66.1311,1.8254
66.1321,1.7575
66.1374,1.7633
66.1382,1.813
66.1382,1.8739
66.1393,1.8415
66.1393,1.7577
66.1434,1.8955
66.1445,1.8717
66.1445,1.8271
66.1455,1.8651
66.1508,1.777
66.1508,1.7281
66.1566,1.6499
66.1696,1.6681
66.1736,1.6742
66.1736,1.7691
66.1748,1.8469
66.1748,1.8422
66.1758,1.8681
66.1758,1.9013
66.1768,1.8936
66.1768,1.9606
66.1778,1.9486
66.1778,1.9154
66.1788,1.8419
66.1788,1.7852
66.1798,1.774
66.1798,1.7599
66.1810,1.7402
66.1811,1.6825
66.1811,1.8362
66.1821,1.9
66.1821,1.7897
66.1851,1.7759
66.1861,1.822
66.1861,1.8947
66.1871,1.8614
66.1873,1.8586
66.1911,1.8796
66.1921,1.8827
66.1933,1.8608
66.1943,1.7331
66.1984,1.7451
66.1984,1.7504
66.1996,1.8184
66.1997,1.7924
66.1997,1.8031
66.2049,1.8616
66.2049,1.8574
66.2060,1.9041
66.2060,1.8008
66.2070,1.7112
66.2112,1.6892
66.2122,1.7324
66.2122,1.8014
66.2133,1.7504
66.2188,1.7633
66.2199,1.8098
66.2199,1.8102
66.2199,1.837
66.2211,1.8104
66.2251,1.8186
66.2263,1.9504
66.2264,1.9081
66.2264,1.8953
66.2322,1.8689
66.2322,1.8297
66.2333,1.8413
66.2333,1.8912
66.2343,1.8299
66.2386,1.8726
66.2396,1.7867
66.2396,1.7873
66.2406,1.9086
66.2458,1.8422
66.2458,1.8745
66.2469,1.8175
66.2469,1.8698
66.2481,1.8865
66.2521,1.8792
66.2532,1.8989
66.2533,1.8799
66.2533,1.8359
66.2544,1.8417
66.2587,1.8464
66.2598,1.8766
66.2598,1.8841
66.2608,1.8272
66.2665,1.8391
66.2675,1.9064
66.2675,1.9427
66.2675,1.9367
66.2685,1.9247
66.2728,1.9229
66.2740,1.8653
66.2788,1.7783
66.2931,1.7907
66.2960,1.8068
66.2960,1.7781
66.2970,1.8437
66.2970,1.9084
66.2983,1.9002
66.2983,1.8661
66.2993,1.6304
66.2993,1.8792
66.3003,1.8623
66.3003,1.8636
66.3003,1.9733
66.3013,2.0969
66.3013,2.1063
66.3023,1.936
66.3023,1.9937
66.3034,2.0481
66.3035,1.9705
66.3035,2.0341
66.3046,1.9977
66.3068,1.9418
66.3075,1.9431
66.3075,1.8968
66.3085,1.8805
66.3143,1.9122
66.3143,1.9407
66.3154,1.8497
66.3154,1.8394
66.3163,1.7942
66.3209,1.8319
66.3209,1.9982
66.3219,2.0693
66.3219,2.0116
66.3273,1.9641
66.3273,1.9722
66.3283,1.9536
66.3283,1.9924
66.3293,2.0344
66.3340,1.951
66.3350,1.8812
66.3350,1.8796
66.3350,1.8617
66.3413,1.9471
66.3415,1.9304
66.3426,1.9684
66.3435,1.9478
66.3435,1.9021
66.3471,1.7984
66.3481,1.8762
66.3481,1.7541
66.3491,1.7217
66.3491,1.7506
66.3544,1.8346
66.3544,1.8034
66.3554,1.7834
66.3554,1.7584
66.3617,1.7569
66.3628,1.7873
66.3630,1.7174
66.3630,1.6975
66.3640,1.7575
66.3678,1.7929
66.3694,1.8188
66.3700,1.7794
66.3700,1.7217
66.3752,1.7142
66.3752,1.777
66.3762,1.8121
66.3762,1.6375
66.3772,1.7151
66.3816,1.8874
66.3826,1.7927
66.3826,1.6988
66.3836,1.7371
66.3888,1.7048
66.4032,1.8505
66.4060,1.7507
66.4060,1.7346
66.4070,1.6943
66.4070,1.7198
66.4080,1.7854
66.4090,1.6765
66.4091,1.6472
66.4100,1.6566
66.4100,1.6002
66.4110,1.7672
66.4110,1.8194
66.4120,1.8842
66.4120,1.8992
66.4120,1.8211
66.4130,1.783
66.4130,1.7057
66.4140,1.6945
66.4160,1.7367
66.4160,1.7249
66.4170,1.7234
66.4170,1.7337
66.4226,1.8421
66.4226,1.8627
66.4237,1.7903
66.4237,1.7914
66.4247,1.7479
66.4291,1.7627
66.4300,1.7731
66.4300,1.7635
66.4311,1.7879
66.4361,1.8934
66.4361,1.8038
66.4372,1.8021
66.4372,1.8032
66.4384,1.8158
66.4420,1.8317
66.4431,1.8509
66.4431,1.8518
66.4443,1.8436
66.4443,1.7198
66.4496,1.7502
66.4496,1.831
66.4506,1.7777
66.4506,1.7489
66.4566,1.8162
66.4576,1.8859
66.4576,1.798
66.4586,1.7556
66.4586,1.7341
66.4629,1.6793
66.4639,1.6806
66.4639,1.8857
66.4649,1.8932
66.4701,1.8914
66.4701,1.8374
66.4712,1.8141
66.4712,1.7905
66.4722,1.7791
66.4763,1.7123
66.4774,1.6819
66.4774,1.7206
66.4785,1.7082
66.4836,1.7131
66.4836,1.7192
66.4846,1.7517
66.4846,1.6797
66.4858,1.8034
66.4898,1.8595
66.4909,1.8726
66.4911,1.7959
66.4911,1.7211
66.4921,1.621
66.5117,1.7245
66.5197,1.8021
66.5197,1.8428
66.5208,1.9459
66.5208,1.9915
66.5218,1.8428
66.5218,1.7849
66.5218,1.8632
66.5227,1.9223
66.5227,1.9146
66.5237,1.8364
66.5237,1.8068
66.5248,1.7727
66.5257,1.7296
66.5257,1.7307
66.5267,1.7873
66.5267,1.6988
66.5277,1.7691
66.5277,1.7926
66.5287,1.7909
66.5287,1.8068
66.5297,1.8006
66.5307,1.7832
66.5307,1.7372
66.5317,1.7554
66.5317,1.8169
66.5327,1.7704
66.5371,1.8094
66.5380,1.8119
66.5380,1.7965
66.5390,1.8244
66.5390,1.8353
66.5439,1.681
66.5449,1.6682
66.5449,1.7149
66.5459,1.7333
66.5514,1.711
66.5520,1.7254
66.5520,1.8057
66.5530,1.8306
66.5530,1.7796
66.5576,1.7787
66.5586,1.639
66.5586,1.554
66.5596,1.8473
66.5648,1.7946
66.5648,1.7575
66.5659,1.8379
66.5659,1.8387
66.5669,1.8426
66.5710,1.8689
66.5721,1.8379
66.5721,1.7346
66.5731,1.7935
66.5782,1.8856
66.5782,1.7146
66.5793,1.7374
66.5793,1.7237
66.5803,1.7054
66.5844,1.6615
66.5854,1.8509
66.5854,1.8376
66.5864,1.8497
66.5864,1.7566
66.5914,1.7327
66.5924,1.6666
66.5924,1.6962
66.5924,1.7594
66.5988,1.7344
66.5995,1.7138
66.5995,1.765
66.6005,1.8797
66.6005,1.7551
66.6210,1.6877
66.6235,1.789
66.6245,1.7987
66.6245,1.8983
66.6255,1.9482
66.6265,1.8454
66.6265,1.7588
66.6275,1.7536
66.6275,1.7611
66.6285,1.7271
66.6285,1.7303
66.6285,1.6896
66.6295,1.7779
66.6295,1.8169
66.6305,1.7241
66.6305,1.8726
66.6314,2.0046
66.6314,1.9555
66.6324,1.9216
66.6324,1.9306
66.6334,1.8886
66.6334,1.8893
66.6334,1.9261
66.6384,1.9767
66.6394,1.8016
66.6394,1.8087
66.6404,1.7768
66.6466,1.7434
66.6466,1.8383
66.6476,1.8194
66.6476,1.7659
66.6486,1.8115
66.6524,1.7138
66.6534,1.6427
66.6534,1.6701
66.6544,1.732
66.6594,1.8181
66.6594,1.9141
66.6605,1.7386
66.6605,1.7982
66.6614,1.8252
66.6665,1.9073
66.6668,1.9073
66.6678,1.8032
66.6678,1.813
66.6730,1.8301
66.6730,1.8608
66.6741,1.7063
66.6741,1.6832
66.6750,1.7249
66.6792,1.708
66.6803,1.7607
66.6803,1.7654
66.6813,1.8031
66.6813,1.9341
66.6863,1.8616
66.6863,1.8139
66.6873,1.7277
66.6873,1.6229
66.6935,1.6804
66.6945,1.738
66.6945,1.8469
66.6945,1.7327
66.6956,1.6502
66.6998,1.6864
66.7008,1.8076
66.7008,1.7288
66.7018,1.732
66.7070,1.7725
66.7079,1.8426
66.7079,1.9141
66.7089,1.9259
66.7089,1.9124
66.7192,1.7243
66.7359,1.7326
66.7399,1.7646
66.7399,1.6817
66.7409,1.8066
66.7409,1.8512
66.7421,1.7982
66.7429,1.762
66.7438,1.7372
66.7449,1.6686
66.7449,1.8042
66.7459,1.7753
66.7459,1.7127
66.7469,1.7449
66.7469,1.7307
66.7479,1.6979
66.7479,1.6529
66.7479,1.6684
66.7489,1.6146
66.7489,1.7348
66.7499,1.7387
66.7499,1.8522
66.7509,1.8807
66.7509,1.8537
66.7519,1.7879
66.7519,1.7504
66.7529,1.6887
66.7545,1.7198
66.7545,1.7076
66.7554,1.6562
66.7554,1.6945
66.7564,1.7459
66.7606,1.7871
66.7616,1.7069
66.7616,1.6589
66.7616,1.6356
66.7672,1.7299
66.7682,1.7828
66.7682,1.8601
66.7692,1.9459
66.7692,1.9862
66.7745,2.0477
66.7745,2.2049
66.7755,2.2812
66.7755,2.2527
66.7764,2.1762
66.7814,2.1166
66.7814,2.1595
66.7814,2.2201
66.7824,2.3104
66.7885,2.1492
66.7885,2.0911
66.7895,1.9789
66.7895,1.8897
66.7905,1.9285
66.7945,1.8445
66.7955,1.8047
66.7955,1.7288
66.7965,1.6632
66.8018,1.663
66.8024,1.6444
66.8024,1.5057
66.8034,1.5735
66.8034,1.6791
66.8081,1.7106
66.8090,1.8631
66.8090,1.8707
66.8100,1.8797
66.8152,1.8233
66.8152,1.7772
66.8163,1.7498
66.8163,1.7211
66.8173,1.7307
66.8215,1.8094
66.8225,1.8473
66.8295,1.8676
66.8414,1.8325
66.8444,1.8002
66.8455,1.7674
66.8455,1.7534
66.8465,1.7654
66.8465,1.6831
66.8475,1.6714
66.8475,1.6365
66.8485,1.6088
66.8485,1.6934
66.8495,1.78
66.8495,1.8381
66.8495,1.9231
66.8505,1.8852
66.8505,1.9141
66.8515,1.8749
66.8515,1.8841
66.8525,1.7517
66.8525,1.7018
66.8535,1.7185
66.8572,1.6712
66.8583,1.7708
66.8592,1.8677
66.8605,1.9064
66.8644,1.8818
66.8653,1.8436
66.8653,1.7247
66.8663,1.7035
66.8665,1.6257
66.8707,1.7209
66.8714,1.5959
66.8714,1.6727
66.8726,1.7867
66.8726,1.8479
66.8776,1.8338
66.8789,1.7729
66.8789,1.786
66.8799,1.8739
66.8854,1.9264
66.8854,1.8565
66.8864,1.7631
66.8864,1.8143
66.8874,1.8241
66.8913,1.7927
66.8924,1.8248
66.8934,1.8136
66.8934,1.8721
66.8986,1.9019
66.8986,1.8743
66.8996,1.7511
66.8996,1.7712
66.9009,1.783
66.9050,1.7716
66.9061,1.7582
66.9061,1.7198
66.9071,1.8747
66.9125,1.7504
66.9127,1.7577
66.9137,1.8182
66.9137,1.7577
66.9137,1.7207
66.9181,1.7476
66.9191,1.8454
66.9191,1.8981
66.9201,1.8582
66.9201,1.7879
66.9253,1.7922
66.9253,1.8248
66.9264,1.8314
66.9264,1.8646
66.9335,1.8374
66.9502,1.7676
66.9532,1.7547
66.9532,1.723
66.9542,1.6281
66.9542,1.7654
66.9552,1.7794
66.9552,1.8904
66.9562,1.9542
66.9562,1.9551
66.9572,1.9351
66.9574,1.8091
66.9574,1.7978
66.9584,1.7652
66.9584,1.9855
66.9594,1.7762
66.9594,1.747
66.9604,1.7946
66.9604,1.7877
66.9614,1.7292
66.9614,1.7791
66.9624,1.7926
66.9624,1.8424
66.9662,1.8182
66.9662,1.807
66.9672,1.8346
66.9672,1.8407
66.9682,1.8149
66.9725,1.792
66.9735,1.7476
66.9735,1.75
66.9745,1.9051
66.9807,1.8752
66.9807,1.9212
66.9815,1.9457
66.9815,1.8829
66.9825,1.7573
66.9864,1.828
66.9874,1.8179
66.9874,1.9692
66.9884,1.9859
66.9937,1.9452
66.9937,1.9148
66.9947,1.9191
66.9947,1.8739
66.9957,1.9214
67.0001,1.9217
67.0011,1.9589
67.0011,1.8827
67.0021,1.8743
67.0066,1.9472
67.0076,1.9692
67.0087,1.8166
67.0087,1.9427
67.0096,1.8994
67.0140,1.8773
67.0140,1.9186
67.0150,1.8961
67.0150,2.0153
67.0150,2.0526
67.0203,1.8696
67.0203,1.8381
67.0213,1.8818
67.0213,1.9079
67.0277,1.9671
67.0277,2.0444
67.0288,1.9418
67.0288,1.9017
67.0300,1.9086
67.0340,1.8989
67.0353,1.7672
67.0353,1.7414
67.0353,1.7785
67.0408,1.852
67.0408,1.8668
67.0418,1.8329
67.0418,1.8473
67.0428,1.8632
67.0474,1.8552
67.0483,1.8745
67.0483,1.7828
67.0493,1.6399
67.0546,1.5158
67.0546,1.5696
67.0616,1.5632
67.0763,1.6064
67.0793,1.8497
67.0793,1.8241
67.0803,1.9306
67.0803,1.8807
67.0815,1.7327
67.0815,1.7582
67.0826,1.8426
67.0826,1.9517
67.0835,1.7931
67.0835,1.7309
67.0845,1.7125
67.0845,1.6424
67.0855,1.9015
67.0855,1.8777
67.0855,1.8719
67.0867,1.7982
67.0867,1.7991
67.0878,1.6497
67.0878,1.5239
67.0888,1.7086
67.0888,1.9324
67.0898,1.792
67.0898,1.7485
67.0908,1.6701
67.0947,1.6529
67.0957,1.6928
67.0957,1.8526
67.0967,1.7206
67.1023,1.7258
67.1024,1.7376
67.1035,1.7599
67.1035,1.8467
67.1046,1.8713
67.1088,1.7369
67.1088,1.7721
67.1100,1.8077
67.1109,1.7896
67.1109,1.7933
67.1151,1.7288
67.1151,1.6975
67.1161,1.6986
67.1161,1.7005
67.1226,1.7099
67.1236,1.7237
67.1236,1.7867
67.1247,1.8156
67.1248,1.7622
67.1287,1.7309
67.1298,1.6981
67.1298,1.6688
67.1309,1.7438
67.1363,1.7303
67.1363,1.7395
67.1373,1.7777
67.1373,1.8072
67.1383,1.8137
67.1420,1.7215
67.1431,1.7978
67.1431,1.7764
67.1440,1.7809
67.1494,1.7986
67.1494,1.7147
67.1503,1.6937
67.1503,1.6774
67.1513,1.6862
67.1553,1.6504
67.1563,1.6574
67.1563,1.6986
67.1573,1.7132
67.1573,1.7151
67.1622,1.7639
67.1632,1.8113
67.1632,1.8827
67.1652,1.8584
67.1712,1.84
67.1841,1.7995
67.1869,1.6457
67.1869,1.6441
67.1879,1.7783
67.1879,1.7035
67.1892,1.5822
67.1892,1.7095
67.1902,1.7429
67.1902,1.7796
67.1912,1.7961
67.1912,1.7419
67.1922,1.7731
67.1927,1.7551
67.1932,1.8006
67.1932,1.8565
67.1942,1.7907
67.1942,1.69
67.1972,1.7256
67.1972,1.7363
67.1981,1.7342
67.1981,1.666
67.1991,1.711
67.2034,1.8792
67.2045,1.8349
67.2045,1.7485
67.2045,1.6915
67.2055,1.7464
67.2107,1.8295
67.2107,1.7867
67.2117,1.6872
67.2117,1.6555
67.2182,1.5717
67.2182,1.5218
67.2192,1.5514
67.2192,1.8109
67.2192,1.7899
67.2237,1.8316
67.2247,1.7948
67.2257,1.7517
67.2257,1.7399
67.2313,1.7491
67.2320,1.6705
67.2320,1.7305
67.2331,1.7365
67.2331,1.6791
67.2376,1.7517
67.2387,1.7252
67.2387,1.6823
67.2397,1.675
67.2449,1.7453
67.2449,1.7716
67.2459,1.7909
67.2459,1.7594
67.2471,1.6022
67.2512,1.6793
67.2524,1.738
67.2524,1.8141
67.2534,1.8239
67.2534,1.8458
67.2584,1.8563
67.2584,1.8181
67.2594,1.8314
67.2594,1.7312
67.2652,1.6999
67.2652,1.8194
67.2663,1.8687
67.2663,1.7674
67.2673,1.6853
67.2716,1.7125
67.2736,1.8192
67.2901,1.7858
67.2934,1.6069
67.2944,1.5332
67.2944,1.4989
67.2954,1.6352
67.2954,1.7166
67.2964,1.717
67.2964,1.7766
67.2974,1.7577
67.2974,1.7794
67.2974,1.7646
67.2984,1.7905
67.2993,1.7669
67.2996,1.7386
67.2996,1.7777
67.3007,1.8042
67.3007,1.7837
67.3016,1.7506
67.3016,1.6883
67.3026,1.6932
67.3026,1.7652
67.3058,1.7361
67.3058,1.6407
67.3069,1.7342
67.3069,1.8514
67.3131,1.7652
67.3131,1.6298
67.3142,1.7502
67.3142,1.7172
67.3152,1.7069
67.3192,1.6887
67.3199,1.7183
67.3199,1.7243
67.3209,1.753
67.3267,1.672
67.3274,1.7382
67.3274,1.7307
67.3283,1.7192
67.3283,1.7554
67.3329,1.591
67.3329,1.6502
67.3339,1.6454
67.3339,1.5655
67.3401,1.8537
67.3401,1.8578
67.3412,1.7466
67.3422,1.7288
67.3422,1.6885
67.3464,1.7669
67.3475,1.8077
67.3475,1.8222
67.3475,1.7729
67.3485,1.8728
67.3537,1.8966
67.3537,1.921
67.3537,1.9099
67.3547,1.7635
67.3607,1.7682
67.3607,1.8002
67.3617,1.8479
67.3617,1.7168
67.3629,1.7839
67.3677,1.8177
67.3677,1.8079
67.3687,1.8647
67.3689,1.8541
67.3745,1.8134
67.3745,1.7796
67.3755,1.7294
67.3755,1.771
67.3765,1.7515
67.3803,1.6403
67.3814,1.7556
67.3865,1.8295
67.4012,1.9015
67.4039,1.7852
67.4039,1.7522
67.4050,1.7731
67.4050,1.7746
67.4059,1.6305
67.4059,1.6064
67.4070,1.6651
67.4071,1.6583
67.4071,1.7247
67.4081,1.6885
67.4081,1.6568
67.4093,1.654
67.4101,1.6532
67.4101,1.6774
67.4111,1.6664
67.4111,1.6433
67.4121,1.6688
67.4121,1.7089
67.4134,1.7575
67.4148,1.7882
67.4148,1.7622
67.4159,1.7654
67.4159,1.7871
67.4218,1.8109
67.4218,1.8167
67.4228,1.7022
67.4228,1.6778
67.4238,1.6836
67.4282,1.6386
67.4293,1.6471
67.4293,1.6937
67.4293,1.7417
67.4357,1.6352
67.4358,1.6238
67.4358,1.4614
67.4369,1.434
67.4378,1.5411
67.4413,1.8287
67.4423,1.8124
67.4423,1.7821
67.4433,1.7693
67.4443,1.7736
67.4486,1.7168
67.4486,1.7729
67.4496,1.7155
67.4496,1.6772
67.4560,1.6527
67.4560,1.63
67.4571,1.7254
67.4571,1.7125
67.4581,1.6932
67.4624,1.8137
67.4634,1.7858
67.4634,1.6969
67.4644,1.6727
67.4699,1.6592
67.4699,1.567
67.4709,1.5949
67.4709,1.6452
67.4719,1.636
67.4760,1.605
67.4766,1.5464
67.4766,1.5477
67.4776,1.6465
67.4827,1.7924
67.4827,1.8655
67.4838,1.9075
67.4838,2.008
67.4848,2.0267
67.4893,2.0029
67.4933,2.0791
67.5059,2.1263
67.5086,2.1878
67.5120,2.2741
67.5122,2.0817
67.5130,2.0958
67.5130,2.1691
67.5140,2.1798
67.5140,2.0847
67.5140,1.9474
67.5150,1.8865
67.5150,1.8342
67.5163,1.8291
67.5163,1.8182
67.5174,1.7905
67.5215,1.6887
67.5226,1.6829
67.5226,1.7642
67.5236,1.7616
67.5236,1.4924
67.5236,1.468
67.5246,1.5831
67.5253,1.7672
67.5256,1.7089
67.5256,1.7601
67.5266,1.669
67.5307,1.6424
67.5316,1.7736
67.5316,1.7828
67.5326,1.7536
67.5326,1.7401
67.5368,1.6947
67.5379,1.7399
67.5379,1.7359
67.5379,1.6163
67.5389,1.5447
67.5438,1.6829
67.5448,1.6742
67.5448,1.8353
67.5458,1.7667
67.5511,1.8406
67.5511,1.7821
67.5522,1.6669
67.5522,1.618
67.5532,1.7292
67.5575,1.6345
67.5591,1.6341
67.5594,1.6146
67.5594,1.6118
67.5648,1.6386
67.5648,1.7211
67.5658,1.8042
67.5658,1.7543
67.5668,1.7969
67.5725,1.8218
67.5736,1.8019
67.5736,1.8136
67.5736,1.7273
67.5798,1.6981
67.5798,1.6065
67.5809,1.6343
67.5809,1.6836
67.5819,1.7528
67.5862,1.8342
67.5873,1.8887
67.5873,1.8797
67.5873,1.6896
67.5883,1.8031
67.5932,1.7641
67.5932,1.6806
67.5942,1.6388
67.5942,1.7003
67.6035,1.7982
67.6175,1.6896
67.6204,1.8209
67.6205,1.8931
67.6214,1.7657
67.6214,1.7402
67.6214,1.7791
67.6224,1.7539
67.6224,1.7642
67.6234,1.7667
67.6234,1.7016
67.6244,1.6952
67.6244,1.6219
67.6254,1.7016
67.6260,1.6718
67.6264,1.7144
67.6264,1.6705
67.6274,1.7716
67.6274,1.7963
67.6284,1.7462
67.6284,1.6628
67.6294,1.7431
67.6294,1.7813
67.6337,1.8501
67.6347,1.7759
67.6347,1.7862
67.6347,1.7819
67.6357,1.7824
67.6407,1.7097
67.6407,1.7363
67.6417,1.7357
67.6427,1.7631
67.6477,1.7434
67.6487,1.7826
67.6487,1.7333
67.6487,1.7003
67.6497,1.7247
67.6543,1.5915
67.6553,1.6392
67.6553,1.6324
67.6553,1.6409
67.6614,1.6765
67.6614,1.8396
67.6624,1.8987
67.6624,1.9174
67.6634,1.9002
67.6676,1.8181
67.6684,1.822
67.6684,1.8201
67.6694,1.7432
67.6748,1.7108
67.6752,1.7817
67.6758,1.6793
67.6758,1.6596
67.6768,1.7269
67.6812,1.6696
67.6821,1.6579
67.6821,1.6217
67.6831,1.6716
67.6831,1.7491
67.6880,1.75
67.6880,1.771
67.6891,1.7845
67.6891,1.8857
67.6950,1.9997
67.6960,2.0074
67.6960,1.8456
67.6960,1.7507
67.6970,1.6024
67.7015,1.5495
67.7024,1.6793
67.7024,1.7676
67.7034,1.7828
67.7085,1.9088
67.7095,1.9244
67.7145,1.9272
67.7304,1.9936
67.7354,1.9748
67.7364,1.8794
67.7364,1.8467
67.7374,1.9024
67.7374,1.8094
67.7384,1.8591
67.7384,1.8246
67.7394,1.7807
67.7394,1.7532
67.7404,1.771
67.7404,1.7543
67.7414,1.7926
67.7424,1.7566
67.7434,1.7451
67.7444,1.8391
67.7444,1.8949
67.7454,1.936
67.7454,1.9326
67.7464,1.8518
67.7464,2.0221
67.7464,2.0628
67.7474,2.0352
67.7474,1.7792
67.7484,1.7843
67.7492,1.7401
67.7502,1.684
67.7502,1.8092
67.7512,1.8036
67.7564,1.7297
67.7564,1.6287
67.7575,1.618
67.7575,1.6894
67.7585,1.7129
67.7627,1.9797
67.7635,2.1484
67.7635,1.9079
67.7645,1.8989
67.7700,1.8278
67.7700,1.7575
67.7710,1.7183
67.7710,1.6879
67.7720,1.6009
67.7762,1.5966
67.7770,1.651
67.7781,1.7311
67.7781,1.7498
67.7781,1.7875
67.7831,1.7264
67.7841,1.7352
67.7841,1.7431
67.7841,1.7462
67.7906,1.7592
67.7916,1.7161
67.7916,1.7046
67.7926,1.7329
67.7926,1.7129
67.7969,1.7206
67.7980,1.7108
67.7980,1.6889
67.7990,1.675
67.8042,1.6538
67.8042,1.6879
67.8052,1.6896
67.8052,1.6664
67.8062,1.615
67.8103,1.6579
67.8112,1.6262
67.8112,1.5987
67.8122,1.6204
67.8176,1.6722
67.8183,1.6941
67.8183,1.6418
67.8194,1.6797
67.8293,1.7382
67.8382,1.7631
67.8412,1.783
67.8422,1.7972
67.8422,1.8182
67.8433,1.7397
67.8433,1.7999
67.8444,1.7481
67.8444,1.714
67.8453,1.5102
67.8453,1.4901
67.8462,1.4457
67.8462,1.5289
67.8462,1.5735
67.8472,1.5692
67.8472,1.6163
67.8483,1.7911
67.8483,1.8477
67.8492,1.837
67.8515,1.7914
67.8522,1.7011
67.8522,1.8602
67.8532,1.9049
67.8532,1.8863
67.8579,1.9731
67.8589,1.798
67.8601,1.7016
67.8609,1.5025
67.8653,1.5707
67.8659,1.6133
67.8659,1.6902
67.8670,1.7997
67.8679,1.7762
67.8712,1.6997
67.8722,1.7504
67.8722,1.6984
67.8722,1.6937
67.8732,1.6667
67.8782,1.6302
67.8792,1.6215
67.8792,1.7286
67.8802,1.7091
67.8854,1.8001
67.8864,1.7999
67.8864,1.789
67.8874,1.7312
67.8874,1.7326
67.8917,1.702
67.8927,1.672
67.8927,1.6952
67.8937,1.6009
67.8994,1.6645
67.8994,1.6615
67.9003,1.663
67.9003,1.7042
67.9013,1.7102
67.9055,1.7189
67.9063,1.7271
67.9063,1.753
67.9073,1.7755
67.9126,1.7288
67.9133,1.8197
67.9133,1.7656
67.9144,1.8235
67.9144,1.8032
67.9188,1.8595
67.9199,1.8621
67.9199,1.7003
67.9199,1.5546
67.9209,1.5034
67.9258,1.4965
67.9258,1.5482
67.9268,1.6305
67.9268,1.7513
67.9328,1.8072
67.9469,1.7254
67.9502,1.7202
67.9508,1.6907
67.9508,1.6984
67.9518,1.6645
67.9518,1.6279
67.9518,1.6092
67.9527,1.633
67.9527,1.7629
67.9538,1.8182
67.9538,1.8207
67.9548,1.7324
67.9548,1.771
67.9558,1.7712
67.9558,1.7832
67.9558,1.7627
67.9568,1.7517
67.9594,1.6465
67.9604,1.6245
67.9604,1.6484
67.9614,1.62
67.9614,1.6375
67.9663,1.6182
67.9674,1.5848
67.9674,1.7318
67.9674,1.6967
67.9684,1.6585
67.9733,1.7687
67.9733,1.9611
67.9744,1.9562
67.9744,1.9414
67.9806,1.8038
67.9806,1.7997
67.9817,1.7372
67.9817,1.7804
67.9826,1.7656
67.9868,1.6915
67.9878,1.672
67.9878,1.7001
67.9888,1.7018
67.9942,1.7316
67.9942,1.7211
67.9950,1.6797
67.9950,1.5531
67.9960,1.6531
68.0004,1.6799
68.0014,1.6174
68.0014,1.7097
68.0014,1.7839
68.0074,1.8016
68.0085,1.7738
68.0085,1.7571
68.0095,1.7417
68.0095,1.8091
68.0133,1.768
68.0141,1.6568
68.0151,1.6129
68.0151,1.6564
68.0161,1.6981
68.0201,1.6495
68.0211,1.6549
68.0211,1.6791
68.0221,1.726
68.0278,1.6651
68.0278,1.7026
68.0288,1.7078
68.0288,1.7031
68.0298,1.6842
68.0349,1.7894
68.0349,1.777
68.0360,1.7521
68.0360,1.7086
68.0412,1.7179
68.0589,1.7481
68.0619,1.6681
68.0619,1.5764
68.0629,1.623
68.0629,1.6862
68.0629,1.6142
68.0639,1.6193
68.0639,1.7579
68.0649,1.7982
68.0649,1.7221
68.0659,1.6405
68.0659,1.5642
68.0669,1.5844
68.0669,1.5696
68.0679,1.7333
68.0679,1.8726
68.0689,1.954
68.0689,1.8824
68.0689,1.8895
68.0699,1.9049
68.0699,1.8779
68.0709,1.7717
68.0756,1.7101
68.0758,1.648
68.0768,1.6339
68.0768,1.795
68.0768,1.9592
68.0816,1.5293
68.0827,1.5377
68.0827,1.5844
68.0837,1.7695
68.0888,1.7972
68.0888,1.7633
68.0897,1.9761
68.0897,2.0404
68.0907,1.9975
68.0949,2.0029
68.0958,1.9221
68.0958,1.8439
68.0968,1.7191
68.1022,1.6911
68.1022,1.7496
68.1032,1.7599
68.1032,1.7014
68.1042,1.6949
68.1084,1.6853
68.1094,1.6679
68.1094,1.7204
68.1104,1.7104
68.1104,1.8559
68.1154,1.8002
68.1154,1.7532
68.1164,1.6266
68.1164,1.7217
68.1227,1.7687
68.1227,1.7642
68.1237,1.8256
68.1237,1.8055
68.1247,1.8632
68.1290,1.8466
68.1299,1.7892
68.1299,1.7112
68.1309,1.6045
68.1361,1.7337
68.1361,1.8317
68.1372,1.9037
68.1372,1.7708
68.1382,1.6966
68.1424,1.7095
68.1432,1.7462
68.1432,1.78
68.1443,1.8447
68.1515,1.7926
68.1665,1.7275
68.1695,1.6915
68.1704,1.6825
68.1704,1.7843
68.1714,1.6887
68.1714,1.5473
68.1724,1.6594
68.1724,1.7074
68.1724,1.7521
68.1734,1.9457
68.1734,1.9111
68.1744,1.7596
68.1754,2.02
68.1759,1.7824
68.1764,1.8897
68.1764,1.6994
68.1774,1.585
68.1774,1.825
68.1784,1.9317
68.1784,1.843
68.1784,1.7873
68.1794,1.942
68.1836,2.0669
68.1845,1.9463
68.1845,1.6722
68.1845,1.6484
68.1855,1.5535
68.1897,1.6334
68.1908,1.7588
68.1908,1.8805
68.1917,1.7093
68.1968,1.8422
68.1968,1.7746
68.1978,1.7706
68.1978,1.8752
68.1987,1.7657
68.2038,1.681
68.2038,1.8646
68.2048,1.6966
68.2048,1.657
68.2058,1.7453
68.2098,1.7581
68.2108,1.7076
68.2108,1.7794
68.2117,1.7344
68.2173,1.6742
68.2183,1.9857
68.2183,2.1162
68.2183,2.1293
68.2192,2.1546
68.2235,2.4314
68.2246,2.4282
68.2246,2.557
68.2256,2.1363
68.2307,1.9874
68.2316,2.0221
68.2316,2.1719
68.2325,2.1334
68.2325,2.0498
68.2370,1.8402
68.2380,1.8295
68.2380,1.816
68.2380,1.8254
68.2444,1.7524
68.2452,1.7581
68.2452,1.6883
68.2462,1.7423
68.2462,1.7474
68.2505,1.768
68.2505,1.8218
68.2515,1.8932
68.2515,2.0986
68.2525,1.9287
68.2575,1.756
68.2575,1.6118
68.2585,1.7078
68.2585,1.9152
68.2654,1.8032
68.2787,1.7014
68.2817,1.8996
68.2829,1.7387
68.2829,1.7312
68.2839,1.7541
68.2839,1.7858
68.2839,1.6193
68.2849,1.7639
68.2849,1.8518
68.2859,1.8379
68.2859,2.0851
68.2869,1.9519
68.2869,1.978
68.2879,2.0221
68.2879,1.9761
68.2889,1.7292
68.2891,1.5477
68.2916,1.75
68.2920,1.9371
68.2930,1.9643
68.2930,1.8181
68.2940,1.8302
68.2980,1.7312
68.2991,1.9028
68.2991,1.9969
68.2991,1.9934
68.3001,1.9242
68.3063,1.9439
68.3075,1.9581
68.3075,1.6142
68.3085,1.5516
68.3140,1.6549
68.3140,1.8107
68.3150,1.9544
68.3150,1.9992
68.3160,1.7639
68.3204,1.7952
68.3214,1.7716
68.3214,1.7849
68.3224,1.6581
68.3275,1.7712
68.3275,1.8809
68.3286,1.8775
68.3286,1.7967
68.3298,2.1156
68.3337,2.2784
68.3348,1.9634
68.3348,1.6761
68.3358,1.708
68.3411,1.5974
68.3412,1.7444
68.3420,1.7991
68.3420,1.6367
68.3430,1.7663
68.3477,1.7611
68.3477,1.7491
68.3487,1.7134
68.3487,1.7309
68.3487,1.6298
68.3540,2.0446
68.3550,1.9109
68.3550,1.7646
68.3550,1.8269
68.3616,1.8694
68.3626,1.9967
68.3626,1.9448
68.3636,1.7999
68.3636,1.7093
68.3679,1.4742
68.3679,1.4151
68.3689,1.4209
68.3689,1.7284
68.3755,2.0751
68.3893,2.2173
68.3930,2.1143
68.3930,1.9902
68.3940,1.8355
68.3940,1.8754
68.3940,1.8488
68.3952,1.9814
68.3952,1.9628
68.3962,1.9461
68.3962,1.8752
68.3962,1.8064
68.3972,1.8597
68.3972,1.8085
68.3982,1.8364
68.3982,1.6945
68.3992,1.8514
68.3992,1.5867
68.4002,1.7089
68.4014,1.8514
68.4014,1.8936
68.4026,2.0138
68.4026,2.1925
68.4084,1.7781
68.4094,1.6709
68.4104,1.7665
68.4104,1.9146
68.4116,2.0545
68.4153,2.0974
68.4163,2.0054
68.4163,1.9572
68.4175,1.9189
68.4228,1.8214
68.4228,1.804
68.4238,1.8061
68.4238,2.1261
68.4248,2.0067
68.4286,2.0519
68.4286,1.6155
68.4296,1.6667
68.4296,1.9375
68.4359,1.8053
68.4359,1.7252
68.4367,1.7911
68.4377,1.9238
68.4377,2.1428
68.4417,2.2171
68.4427,2.2411
68.4427,2.2257
68.4437,2.0061
68.4437,2.1267
68.4490,2.0721
68.4500,1.9675
68.4500,1.9456
68.4510,1.972
68.4566,1.8122
68.4576,1.7292
68.4576,1.6742
68.4586,1.6019
68.4586,1.5484
68.4631,1.8047
68.4631,1.786
68.4641,2.2208
68.4651,2.0937
68.4693,2.0614
68.4703,1.9598
68.4713,2.0871
68.4723,2.0836
68.4723,2.1394
68.4765,2.0292
68.4765,2.0191
68.4775,1.6275
68.4785,1.7607
68.4850,1.9178
68.4993,1.8796
68.5023,2.0372
68.5023,1.9195
68.5033,1.8351
68.5033,1.5702
68.5043,2.0748
68.5043,1.8934
68.5043,1.7761
68.5056,2.0262
68.5056,2.0339
68.5066,1.7545
68.5066,1.9624
68.5076,1.8066
68.5076,2.1379
68.5086,1.8604
68.5091,1.9279
68.5096,1.8166
68.5096,1.8278
68.5108,1.6114
68.5108,1.6915
68.5119,1.7708
68.5119,1.8235
68.5176,1.9429
68.5176,1.8556
68.5186,1.7236
68.5186,1.6572
68.5196,1.6915
68.5240,1.873
68.5310,1.7597
68.5310,1.9581
68.5321,1.9056
68.5321,1.9999
68.5331,1.9521
68.5331,1.7603
68.5341,1.6384
68.5341,1.6922
68.5375,1.7524
68.5381,1.6127
68.5391,1.6876
68.5391,1.6516
68.5391,1.6245
68.5441,1.4138
68.5451,1.9892
68.5451,2.0357
68.5461,1.8552
68.5516,2.0845
68.5516,1.9499
68.5527,1.9139
68.5527,1.6551
68.5536,1.5006
68.5588,1.5827
68.5589,1.7952
68.5599,1.7057
68.5599,2.0682
68.5652,1.9077
68.5652,2.0588
68.5662,1.8385
68.5662,1.9007
68.5672,1.936
68.5716,1.6726
68.5722,1.5904
68.5733,1.4035
68.5733,1.4967
68.5787,1.8038
68.5787,2.026
68.5797,2.1509
68.5797,2.1402
68.5807,1.9707
68.5851,2.0397
68.5857,1.9101
68.5867,1.8047
68.5867,1.7922
68.5867,1.9291
68.6083,1.7629
68.6107,1.6804
68.6117,1.569
68.6117,1.669
68.6127,1.7959
68.6127,1.7989
68.6137,1.7078
68.6137,1.7226
68.6147,2.0596
68.6147,2.1372
68.6157,1.8571
68.6157,1.6703
68.6157,1.8152
68.6167,1.8346
68.6167,1.7106
68.6177,1.5141
68.6177,1.6754
68.6187,1.6632
68.6187,1.8044
68.6197,1.8887
68.6197,1.897
68.6207,2.0971
68.6259,2.0204
68.6259,2.0404
68.6269,1.9752
68.6269,1.6356
68.6279,1.7566
68.6322,1.9028
68.6332,2.3076
68.6332,2.005
68.6332,1.611
68.6342,1.5462
68.6392,1.7189
68.6402,1.7614
68.6402,1.5975
68.6412,1.5278
68.6467,1.7106
68.6467,1.8278
68.6477,2.3067
68.6477,2.1925
68.6487,1.6304
68.6528,1.9101
68.6537,2.3211
68.6537,2.2338
68.6547,1.7588
68.6602,1.6804
68.6602,1.7993
68.6613,1.8404
68.6613,1.6889
68.6623,1.6223
68.6665,1.3729
68.6675,1.4717
68.6675,1.9279
68.6685,2.1138
68.6736,2.1338
68.6736,1.8889
68.6746,1.6902
68.6746,1.7121
68.6756,1.8931
68.6798,1.9542
68.6807,1.5749
68.6807,1.5115
68.6817,1.606
68.6817,1.6696
68.6877,1.7352
68.6887,1.8087
68.6897,2.0269
68.6897,2.0331
68.6938,2.0307
68.6947,1.8946
68.6947,1.9319
68.6957,2.0093
68.6957,2.1779
68.7138,2.32
68.7216,1.7826
68.7226,1.9223
68.7236,2.0093
68.7236,1.7924
68.7236,1.41
68.7246,1.3557
68.7258,1.6874
68.7258,1.509
68.7266,1.9221
68.7266,2.0363
68.7276,2.1349
68.7286,2.0719
68.7286,2.1023
68.7296,1.867
68.7306,2.0116
68.7316,2.0836
68.7326,1.5608
68.7336,1.3159
68.7336,1.5998
68.7346,1.9037
68.7356,1.9073
68.7361,1.8287
68.7365,1.8413
68.7375,1.7957
68.7386,1.7937
68.7386,1.9375
68.7415,1.8299
68.7425,1.8572
68.7435,1.8034
68.7445,1.6637
68.7445,1.7614
68.7475,1.9474
68.7485,2.0191
68.7485,1.9733
68.7495,1.8175
68.7547,1.9806
68.7557,2.0796
68.7559,2.1835
68.7569,2.1177
68.7569,1.8404
68.7613,1.9527
68.7622,1.8242
68.7631,1.7166
68.7631,1.6088
68.7673,1.4792
68.7684,1.2689
68.7684,1.4507
68.7693,1.7641
68.7693,1.8676
68.7745,2.1863
68.7755,2.6189
68.7755,2.4113
68.7765,2.1106
68.7775,2.104
68.7815,1.906
68.7825,1.8027
68.7825,2.1001
68.7835,2.0438
68.7887,1.6632
68.7898,1.7487
68.7899,2.0738
68.7909,1.5777
68.7909,1.3118
68.7952,1.2764
68.7959,1.4404
68.7959,1.9182
68.7969,2.4376
68.8019,2.5887
68.8029,2.4297
68.8029,1.9519
68.8039,1.8362
68.8039,1.9711
68.8132,1.6549
68.8290,2.2536
68.8324,1.7948
68.8334,2.1008
68.8334,2.4021
68.8345,1.7822
68.8346,1.8286
68.8346,2.1466
68.8356,2.4106
68.8366,2.047
68.8366,1.9405
68.8377,2.0224
68.8377,1.7566
68.8386,1.7809
68.8386,1.8151
68.8396,1.927
68.8404,1.9741
68.8406,2.1518
68.8419,1.9711
68.8426,1.9982
68.8436,1.573
68.8446,1.4415
68.8446,1.5589
68.8458,1.6861
68.8468,1.8316
68.8478,1.7759
68.8488,1.8269
68.8488,1.8394
68.8498,1.6947
68.8508,1.7663
68.8519,1.7725
68.8529,2.056
68.8559,2.1846
68.8569,2.2846
68.8580,2.3088
68.8581,1.8867
68.8629,1.7361
68.8631,1.6334
68.8643,1.7984
68.8653,1.8089
68.8663,1.8141
68.8693,2.1235
68.8705,2.1319
68.8716,2.6628
68.8716,2.2516
68.8725,1.6816
68.8765,1.6804
68.8775,1.81
68.8785,2.0834
68.8795,2.0725
68.8835,1.5488
68.8845,1.8706
68.8855,1.9924
68.8855,2.0688
68.8865,2.0624
68.8898,2.1786
68.8906,1.8029
68.8916,1.8192
68.8926,2.302
68.8969,2.2666
68.8978,1.9709
68.8988,1.8132
68.8988,1.7862
68.9000,1.9634
68.9030,2.0243
68.9040,1.8469
68.9050,1.9609
68.9061,2.2819
68.9101,2.3776
68.9111,2.0989
68.9111,1.8274
68.9123,1.6324
68.9133,1.6849
68.9163,2.0112
68.9173,1.9797
68.9173,2.1194
68.9184,2.5073
68.9185,1.432
68.9238,1.5471
68.9244,2.0357
68.9244,1.9236
68.9254,1.8167
68.9320,1.7914
68.9385,1.8842
68.9402,1.8608
68.9402,2.0995
68.9402,2.0826
68.9402,2.2079
68.9412,2.5851
68.9412,2.626
68.9416,2.3684
68.9442,2.0181
68.9442,1.981
68.9453,1.8655
68.9464,1.6799
68.9472,1.9444
68.9502,2.425
68.9512,2.6624
68.9512,2.6616
68.9524,2.6519
68.9573,1.7084
68.9573,1.7826
68.9583,1.8486
68.9598,2.0316
68.9603,2.1252
68.9643,2.1213
68.9645,2.0393
68.9655,1.587
68.9665,1.6317
68.9675,1.5184
68.9717,1.6836
68.9717,2.1522
68.9727,2.1966
68.9737,2.2928
68.9782,2.2538
68.9787,2.1619
68.9797,1.9092
68.9807,1.7316
68.9807,1.7942
68.9850,2.0331
68.9860,2.3581
68.9860,1.9825
68.9870,1.621
68.9916,2.5778
68.9919,2.224
68.9929,2.1488
68.9939,2.0579
68.9951,2.0958
68.9981,1.9724
68.9991,2.2579
68.9991,2.1014
69.0001,1.7746
69.0043,1.6317
69.0053,1.7986
69.0063,2.197
69.0075,2.1814
69.0085,1.9913
69.0114,1.8863
69.0124,2.4516
69.0124,2.0631
69.0136,2.0899
69.0146,2.0376
69.0186,1.6761
69.0198,1.6596
69.0208,1.8092
69.0208,1.9559
69.0258,1.9367
69.0258,1.8291
69.0268,1.7896
69.0278,2.1983
69.0288,1.9007
69.0447,1.9834
69.0552,2.1357
69.0567,1.8137
69.0577,2.1723
69.0577,2.278
69.0583,1.8211
69.0587,1.7629
69.0587,1.7959
69.0597,1.9026
69.0597,1.5839
69.0597,1.6682
69.0608,1.9999
69.0613,1.942
69.0613,2.6018
69.0618,2.4991
69.0618,2.654
69.0618,2.4644
69.0628,2.1792
69.0628,2.0901
69.0634,1.8773
69.0638,1.9853
69.0638,1.846
69.0638,1.8287
69.0679,2.2782
69.0679,2.5484
69.0679,2.3418
69.0679,2.1016
69.0748,1.8709
69.0748,2.0584
69.0757,2.2309
69.0757,2.2311
69.0757,2.4841
69.0808,2.0909
69.0808,2.1869
69.0818,2.485
69.0818,2.266
69.0882,1.9319
69.0882,1.6671
69.0892,1.6868
69.0892,1.4892
69.0902,1.8627
69.0950,1.9186
69.0950,1.8796
69.0950,1.6902
69.0960,2.1972
69.1016,1.9859
69.1016,1.9148
69.1027,2.0125
69.1027,2.0573
69.1036,2.2431
69.1079,2.0586
69.1079,1.8216
69.1089,1.9609
69.1089,2.0116
69.1099,2.0963
69.1150,2.4428
69.1150,2.6294
69.1162,2.4477
69.1162,1.8968
69.1224,1.999
69.1224,1.5604
69.1234,1.5464
69.1234,1.6808
69.1245,1.7545
69.1286,2.2636
69.1296,2.5238
69.1296,2.4899
69.1306,2.4246
69.1358,2.0001
69.1369,1.9174
69.1369,2.0164
69.1378,2.0847
69.1378,2.1344
69.1482,2.3688
69.1607,2.5163
69.1647,2.2615
69.1649,2.4342
69.1659,2.6245
69.1659,2.5036
69.1669,1.9731
69.1669,2.0558
69.1679,2.1389
69.1679,2.3624
69.1689,2.2129
69.1689,2.0611
69.1699,1.9984
69.1699,2.1276
69.1710,1.9219
69.1716,2.2626
69.1719,2.5739
69.1719,2.6065
69.1729,2.0436
69.1729,2.0824
69.1739,1.7926
69.1739,2.593
69.1748,2.5932
69.1759,2.4329
69.1779,2.4218
69.1779,1.9557
69.1788,1.9277
69.1835,1.9414
69.1835,1.8904
69.1845,2.2758
69.1845,2.5392
69.1855,2.6086
69.1895,2.6624
69.1905,1.8696
69.1905,2.3541
69.1915,2.2788
69.1966,2.3682
69.1976,1.684
69.1976,1.2614
69.1986,1.9484
69.1989,2.275
69.2028,2.1771
69.2038,2.1021
69.2050,1.5664
69.2050,1.2512
69.2060,1.4781
69.2103,2.1428
69.2110,2.6622
69.2110,2.6275
69.2120,2.6403
69.2172,2.6626
69.2172,2.6628
69.2183,1.5424
69.2183,1.6339
69.2193,1.7961
69.2236,2.0571
69.2236,2.3151
69.2247,2.4674
69.2247,2.5002
69.2306,2.0346
69.2306,1.7018
69.2317,2.0997
69.2317,2.1814
69.2331,2.1813
69.2370,1.8976
69.2380,1.5794
69.2380,2.1963
69.2391,1.6624
69.2431,1.7646
69.2448,2.0929
69.2451,1.9382
69.2461,2.0228
69.2471,2.1784
69.2523,2.2429
69.2660,1.7886
69.2691,2.1004
69.2691,2.3125
69.2700,2.2968
69.2708,2.1698
69.2710,1.6829
69.2710,2.0106
69.2720,2.519
69.2720,2.1501
69.2731,2.4334
69.2732,2.4599
69.2732,2.2143
69.2743,1.7809
69.2752,1.7277
69.2756,1.9247
69.2763,1.8767
69.2772,1.4631
69.2772,1.5707
69.2785,1.7897
69.2785,1.9922
69.2785,2.2739
69.2796,2.5011
69.2847,2.1349
69.2847,2.2141
69.2857,1.4554
69.2857,1.4374
69.2909,1.7768
69.2919,2.1383
69.2931,2.3069
69.2939,2.2786
69.2939,1.768
69.2971,1.7689
69.2981,2.254
69.2981,2.5868
69.2991,2.6622
69.2991,2.6626
69.3043,2.398
69.3053,1.9802
69.3053,1.8475
69.3062,1.5349
69.3114,1.7329
69.3124,1.9857
69.3124,2.4293
69.3134,2.6626
69.3134,2.6255
69.3176,2.3151
69.3186,2.1664
69.3186,1.9949
69.3196,2.1844
69.3253,2.0042
69.3257,1.9561
69.3257,2.2619
69.3267,2.167
69.3279,1.9857
69.3319,2.6508
69.3329,2.6393
69.3329,2.3358
69.3340,2.3502
69.3384,1.8368
69.3397,2.0641
69.3401,2.2315
69.3410,1.5666
69.3420,1.7312
69.3450,1.6137
69.3462,1.9457
69.3462,2.3526
69.3472,2.3194
69.3482,1.9223
69.3523,1.9396
69.3533,2.3408
69.3533,2.2431
69.3545,1.8807
69.3633,2.1391
69.3847,1.9538
69.3892,2.2716
69.3902,2.0331
69.3912,1.9401
69.3922,2.0706
69.3932,2.0843
69.3942,1.8302
69.3952,1.9922
69.3959,2.0828
69.3962,2.4464
69.3962,2.5364
69.3972,2.2591
69.3982,2.3453
69.3992,1.9521
69.4002,1.6463
69.4002,1.8179
69.4012,1.6606
69.4023,1.7057
69.4032,2.4593
69.4042,2.6628
69.4042,2.6517
69.4052,2.6007
69.4062,2.4079
69.4070,1.9712
69.4072,1.6643
69.4082,1.8542
69.4095,2.3744
69.4102,2.2647
69.4112,2.1603
69.4122,2.338
69.4132,1.9598
69.4144,1.8835
69.4153,2.0099
69.4153,2.3161
69.4162,2.2114
69.4172,2.5716
69.4181,2.4154
69.4191,1.9769
69.4201,2.1231
69.4211,2.1171
69.4211,1.9782
69.4221,1.7839
69.4231,2.0365
69.4241,2.0549
69.4251,2.3971
69.4271,2.2182
69.4271,1.9527
69.4281,2.308
69.4291,2.6022
69.4331,2.2542
69.4341,2.1573
69.4351,2.0059
69.4361,1.5882
69.4371,1.7402
69.4401,1.8715
69.4401,1.7916
69.4414,2.0554
69.4414,2.1029
69.4421,2.0873
69.4474,2.3626
69.4474,2.6586
69.4481,2.6628
69.4481,2.4522
69.4546,1.5567
69.4550,1.2885
69.4550,1.4749
69.4550,1.7489
69.4560,2.1865
69.4610,2.6172
69.4610,2.6538
69.4610,2.1093
69.4620,2.1263
69.4691,2.2394
69.4740,2.3959
69.4750,2.5842
69.4760,2.3654
69.4760,2.3543
69.4760,2.4443
69.4770,2.0811
69.4770,2.2615
69.4770,1.8996
69.4810,1.9501
69.4810,2.2518
69.4820,2.3804
69.4820,2.4728
69.4820,2.2701
69.4874,2.1895
69.4880,2.1128
69.4880,1.8546
69.4880,2.3393
69.4890,2.23
69.4950,2.3841
69.4950,2.3446
69.4950,2.1912
69.4959,2.1014
69.5019,2.2182
69.5019,2.3239
69.5019,2.0599
69.5029,1.8301
69.5029,2.1366
69.5081,2.0464
69.5089,2.0065
69.5092,2.0989
69.5092,1.8976
69.5156,1.9802
69.5159,2.0845
69.5159,2.3695
69.5159,2.6033
69.5159,2.2206
69.5219,1.6647
69.5219,1.6517
69.5219,2.191
69.5229,1.9036
69.5289,1.8177
69.5289,1.5235
69.5289,2.5418
69.5298,2.497
69.5298,2.0639
69.5348,1.4819
69.5378,1.6922
69.5378,1.942
69.5388,1.9317
69.5388,1.9979
69.5428,2.5861
69.5428,2.3884
69.5428,2.0044
69.5428,2.1663
69.5498,2.1837
69.5498,2.4543
69.5498,2.6459
69.5498,2.5593
69.5508,2.0757
69.5558,1.9877
69.5558,1.8439
69.5568,2.1621
69.5570,2.2143
69.5631,1.9697
69.5631,2.4936
69.5638,2.3736
69.5638,2.1312
69.5638,2.2546
69.5698,2.1079
69.5700,2.1303
69.5700,2.2527
69.5700,2.1529
69.5768,2.6564
69.5828,2.5478
69.5852,2.3498
69.5854,1.8612
69.5858,1.8143
69.5858,1.8306
69.5858,1.8038
69.5868,1.8167
69.5868,2.4312
69.5868,2.3521
69.5902,2.038
69.5902,1.7789
69.5908,1.6433
69.5908,2.0116
69.5972,1.9617
69.5972,2.1595
69.5979,2.0808
69.5979,2.0884
69.5979,2.6024
69.6036,2.6307
69.6036,2.4036
69.6043,2.3678
69.6043,2.5068
69.6103,2.4207
69.6113,2.2139
69.6113,2.3254
69.6113,2.4805
69.6113,2.4303
69.6173,2.4972
69.6173,1.8861
69.6173,2.0067
69.6173,1.8902
69.6244,1.9467
69.6244,2.2227
69.6244,2.1586
69.6244,2.4496
69.6253,2.6508
69.6307,2.2713
69.6307,1.7624
69.6314,1.6626
69.6314,1.6577
69.6314,1.8321
69.6374,2.1252
69.6384,2.1625
69.6384,2.642
69.6384,2.651
69.6447,2.2774
69.6447,1.9585
69.6455,1.9077
69.6455,1.599
69.6461,1.7633
69.6511,2.2304
69.6517,2.6114
69.6517,2.6513
69.6517,2.6356
69.6581,2.3686
69.6581,2.2836
69.6591,2.3599
69.6592,2.272
69.6592,2.5062
69.6647,2.5763
69.6651,1.9722
69.6651,1.3898
69.6651,1.7091
69.6720,1.7783
69.6721,2.0785
69.6721,2.6082
69.6721,2.0896
69.6731,2.0322
69.6781,2.5405
69.6781,2.2214
69.6781,2.6151
69.6793,2.4541
69.6794,1.9551
69.6850,2.3746
69.6850,2.6525
69.6850,2.5257
69.6860,1.8634
69.6924,1.3296
69.6924,1.549
69.6924,1.4864
69.6934,1.7622
69.6934,1.969
69.6984,2.0914
69.6984,2.1653
69.6994,2.4541
69.7064,2.2512
69.7064,2.2444
69.7074,2.3828
69.7084,2.1046
69.7085,1.8079
69.7085,1.7198
69.7126,1.9409
69.7126,1.6384
69.7126,2.0097
69.7126,2.4734
69.7196,2.4241
69.7196,2.602
69.7196,2.6628
69.7196,2.6361
69.7206,1.9589
69.7256,2.044
69.7256,2.4123
69.7266,2.5591
69.7266,2.3176
69.7266,2.08
69.7328,2.1616
69.7328,1.9887
69.7340,1.9244
69.7340,1.7879
69.7402,2.1426
69.7402,2.6468
69.7402,2.5073
69.7413,2.3886
69.7413,2.3896
69.7470,1.7811
69.7470,1.395
69.7480,1.6339
69.7480,1.6456
69.7532,2.2529
69.7542,2.6086
69.7552,2.4923
69.7552,1.9851
69.7562,2.0789
69.7601,2.3566
69.7611,2.4042
69.7611,2.1329
69.7621,1.9364
69.7691,2.4286
69.7691,2.2216
69.7701,2.4858
69.7701,2.1595
69.7711,1.7084
69.7757,1.8227
69.7757,2.0192
69.7777,2.3371
69.7777,1.9463
69.7787,1.8816
69.7828,1.8796
69.7828,1.687
69.7828,1.813
69.7838,2.1235
69.7890,2.2116
69.7899,2.1972
69.7899,2.1014
69.7911,2.2429
69.7922,2.4409
69.7961,1.9823
69.7973,2.1027
69.7973,2.0776
69.7983,2.104
69.8023,2.2969
69.8035,2.6459
69.8035,2.6525
69.8045,2.6343
69.8045,2.6622
69.8173,2.6626
69.8276,2.5315
69.8316,1.9328
69.8316,2.1258
69.8326,2.0041
69.8326,1.9407
69.8339,2.1619
69.8339,2.5081
69.8349,2.6624
69.8349,2.6624
69.8359,2.0678
69.8359,2.0371
69.8359,2.0281
69.8369,1.8884
69.8369,2.5514
69.8379,2.6628
69.8379,2.4698
69.8390,2.1837
69.8390,1.8484
69.8400,1.666
69.8400,1.7207
69.8411,2.4618
69.8411,2.3731
69.8431,2.5891
69.8441,2.3768
69.8441,2.6015
69.8453,2.6031
69.8507,2.3434
69.8507,1.852
69.8517,2.2203
69.8517,2.4676
69.8527,2.368
69.8569,1.9482
69.8580,1.9317
69.8590,1.9536
69.8599,2.0076
69.8641,2.3151
69.8641,2.3626
69.8651,2.4426
69.8651,2.4301
69.8661,1.9733
69.8705,1.951
69.8715,2.56
69.8715,2.4477
69.8725,1.8998
69.8725,1.8631
69.8778,1.4783
69.8778,1.5527
69.8787,1.99
69.8789,2.5872
69.8845,2.662
69.8845,1.9414
69.8855,1.5402
69.8865,1.4684
69.8865,1.9054
69.8911,2.5077
69.8922,2.5941
69.8922,2.6331
69.8932,2.1231
69.8984,1.8518
69.8984,1.6746
69.8994,1.7228
69.8994,1.72
69.9004,1.8902
69.9047,1.8955
69.9057,1.6069
69.9057,1.4937
69.9067,2.0695
69.9117,2.6328
69.9117,2.4104
69.9128,2.6352
69.9128,2.5499
69.9140,2.1132
69.9223,2.0005
69.9355,1.8301
69.9386,2.2713
69.9395,2.6086
69.9395,2.2613
69.9405,2.2195
69.9405,1.9964
69.9416,1.7243
69.9416,2.0828
69.9427,2.5795
69.9427,2.1288
69.9437,1.6969
69.9437,2.0359
69.9447,2.0854
69.9447,2.6303
69.9457,2.0252
69.9457,2.4042
69.9467,2.5983
69.9467,2.3279
69.9477,1.8235
69.9479,1.8809
69.9487,2.0316
69.9487,2.639
69.9523,2.5746
69.9532,2.3138
69.9532,2.0549
69.9543,1.318
69.9585,1.4385
69.9596,1.6167
69.9605,1.7037
69.9605,1.9088
69.9615,2.1274
69.9655,2.0288
69.9666,1.8091
69.9666,1.6701
69.9666,1.7551
69.9676,1.5263
69.9728,1.9861
69.9728,2.6446
69.9738,2.6622
69.9738,2.4554
69.9803,1.4033
69.9811,1.2829
69.9811,1.5404
69.9811,1.8267
69.9823,2.5998
69.9865,2.305
69.9876,2.1966
69.9876,2.2984
69.9876,1.9812
69.9930,1.9574
69.9940,2.0954
69.9940,2.4471
69.9950,2.2758
69.9950,2.0492
69.9999,2.2141
70.0010,1.7997
70.0010,2.0584
70.0020,2.1854
70.0071,2.0266
70.0071,2.062
70.0081,2.1413
70.0081,2.2966
70.0092,1.6731
70.0133,1.7151
70.0144,1.5947
70.0144,1.7048
70.0144,1.9418
70.0154,1.8769
70.0206,1.8396
70.0206,1.8981
70.0206,2.3478
70.0218,2.4897
70.0278,2.5236
70.0286,2.4402
70.0286,1.5374
70.0296,2.0269
70.0306,2.4147
70.0340,1.8696
70.0340,1.8503
70.0350,2.4046
70.0350,2.6598
70.0415,2.3316
70.0518,2.0808
70.0668,1.8722
70.0705,1.7929
70.0708,1.81
70.0718,1.587
70.0718,1.3905
70.0728,2.6555
70.0737,2.3719
70.0747,2.1991
70.0757,2.0639
70.0767,2.2068
70.0767,1.9827
70.0778,1.8666
70.0778,2.0879
70.0788,2.1674
70.0788,2.5818
70.0798,2.2885
70.0798,1.7618
70.0808,1.3307
70.0808,1.4294
70.0818,1.3287
70.0818,1.8239
70.0818,1.7541
70.0828,2.0059
70.0828,2.4348
70.0838,1.5374
70.0838,1.9765
70.0848,2.1903
70.0848,2.3054
70.0858,1.7153
70.0858,1.5867
70.0887,1.7884
70.0887,1.9928
70.0897,2.0916
70.0897,1.9159
70.0907,1.84
70.0949,2.1342
70.0960,2.1008
70.0960,1.9229
70.0960,1.7875
70.1021,2.3082
70.1021,2.5225
70.1032,2.6626
70.1041,2.6247
70.1041,1.8786
70.1081,1.8415
70.1091,1.8685
70.1091,2.1111
70.1101,1.8955
70.1101,2.1573
70.1151,1.9741
70.1161,1.8413
70.1161,2.5716
70.1161,2.6099
70.1225,2.4869
70.1234,2.1679
70.1234,1.2501
70.1244,1.6645
70.1244,2.1207
70.1287,1.9088
70.1298,1.7504
70.1298,2.4477
70.1308,2.1078
70.1357,1.6437
70.1367,1.8589
70.1367,2.6519
70.1367,2.6061
70.1377,1.4237
70.1427,1.4999
70.1427,1.6523
70.1438,1.8497
70.1438,2.1711
70.1492,1.6334
70.1670,1.2777
70.1700,1.3926
70.1710,2.0221
70.1710,2.1865
70.1719,2.212
70.1719,1.8908
70.1729,1.5735
70.1729,1.4955
70.1729,1.3587
70.1739,1.566
70.1749,1.8469
70.1760,2.4687
70.1760,2.1363
70.1760,1.5874
70.1769,2.0628
70.1769,2.2756
70.1779,2.353
70.1779,2.6345
70.1789,2.6294
70.1789,2.2986
70.1799,1.9208
70.1799,1.3887
70.1832,1.2683
70.1832,1.2788
70.1842,1.4108
70.1842,1.927
70.1852,1.9066
70.1896,1.7562
70.1903,2.5458
70.1913,2.458
70.1923,2.5656
70.1967,2.5495
70.1967,1.9735
70.1977,2.3768
70.1977,2.2023
70.1987,2.0183
70.2029,1.7789
70.2040,1.3373
70.2040,1.245
70.2040,1.2441
70.2050,1.386
70.2099,2.3952
70.2099,2.1829
70.2110,2.5437
70.2110,2.6615
70.2172,2.1803
70.2182,1.404
70.2182,1.5974
70.2192,1.2456
70.2192,1.359
70.2234,1.9508
70.2244,1.9769
70.2244,1.8434
70.2254,1.5469
70.2307,1.3926
70.2307,1.7309
70.2317,1.9585
70.2317,2.002
70.2317,1.287
70.2368,1.2951
70.2378,1.3007
70.2378,1.7747
70.2388,2.4764
70.2441,2.6285
70.2450,2.6378
70.2450,2.6622
70.2460,2.6163
70.2460,1.4603
70.2500,1.5342
70.2510,1.6954
70.2510,1.8325
70.2520,2.6588
70.2520,2.1578
70.2570,1.4213
70.2580,1.6328
70.2590,2.5263
70.2639,2.6628
70.2780,2.6626
70.2809,2.1235
70.2819,2.1128
70.2819,1.9236
70.2829,1.6182
70.2829,1.7822
70.2839,2.0511
70.2839,2.1554
70.2849,1.6817
70.2849,1.2443
70.2859,1.2443
70.2859,1.245
70.2869,1.3857
70.2869,2.6622
70.2869,2.6624
70.2879,2.3386
70.2879,2.2294
70.2889,2.2188
70.2912,1.3765
70.2922,1.5411
70.2922,2.3324
70.2932,1.8117
70.2932,1.7177
70.2974,1.8734
70.2982,1.2655
70.2982,1.2855
70.2992,1.2775
70.2992,1.5563
70.3042,1.2473
70.3052,1.2659
70.3052,1.3152
70.3062,1.4226
70.3113,1.8261
70.3122,2.0234
70.3132,1.8854
70.3132,1.8447
70.3142,2.3243
70.3182,2.1184
70.3193,1.8312
70.3193,1.6922
70.3204,1.2443
70.3248,1.3352
70.3259,1.4419
70.3259,1.569
70.3269,2.2566
70.3269,2.6376
70.3319,2.662
70.3319,2.6615
70.3329,2.1871
70.3329,1.4399
70.3386,1.2443
70.3386,1.3045
70.3397,1.3015
70.3397,1.8364
70.3406,2.6511
70.3448,2.2077
70.3457,1.8556
70.3457,1.957
70.3468,2.0162
70.3468,1.8197
70.3517,1.7292
70.3517,1.434
70.3527,1.6097
70.3527,2.2401
70.3591,2.6525
70.3599,2.5118
70.3599,1.7794
70.3610,1.5696
70.3610,1.3868
70.3652,1.2479
70.3663,1.7586
70.3663,2.0221
70.3673,2.0746
70.3732,2.6393
70.3863,1.5649
70.3892,1.248
70.3898,1.284
70.3902,1.6658
70.3902,2.0704
70.3915,1.756
70.3921,1.8512
70.3931,1.9167
70.3941,1.2509
70.3941,1.2531
70.3951,1.4027
70.3951,1.5552
70.3961,1.8942
70.3961,2.2079
70.3971,2.3948
70.3971,2.6489
70.3981,1.8946
70.3981,1.38
70.3991,1.2443
70.3991,1.2443
70.4001,1.4438
70.4001,1.9208
70.4065,2.2711
70.4065,2.2133
70.4075,2.1854
70.4085,2.2362
70.4097,1.5732
70.4126,1.2578
70.4136,1.2458
70.4136,1.3281
70.4147,2.0973
70.4197,2.6431
70.4197,2.4205
70.4208,1.969
70.4208,1.7989
70.4218,1.8361
70.4261,1.8762
70.4268,1.8477
70.4268,1.6319
70.4278,1.4852
70.4333,1.5276
70.4333,1.7444
70.4343,1.8083
70.4343,1.7719
70.4353,1.4149
70.4391,1.9461
70.4401,2.1576
70.4401,1.9221
70.4411,1.4777
70.4411,1.8406
70.4461,2.6189
70.4471,2.3616
70.4471,1.8739
70.4481,1.7397
70.4536,1.3859
70.4543,1.4217
70.4543,1.4757
70.4554,1.7273
70.4554,1.7792
70.4596,1.3472
70.4607,1.5188
70.4607,2.1531
70.4616,2.1381
70.4672,1.3542
70.4679,1.2595
70.4679,1.2989
70.4690,1.4909
70.4690,1.7776
70.4731,1.6971
70.4742,1.5323
70.4742,1.9171
70.4752,1.7792
70.4921,1.4504
70.4931,1.7299
70.4971,1.7074
70.4971,2.0607
70.4981,2.0245
70.4981,2.368
70.4991,2.1036
70.4991,1.8996
70.4991,1.8239
70.5001,1.2927
70.5001,1.4232
70.5011,1.6442
70.5011,1.633
70.5021,1.5004
70.5021,2.5715
70.5031,1.8629
70.5031,1.8451
70.5041,2.0768
70.5041,2.3508
70.5091,1.8282
70.5098,1.8267
70.5098,1.6206
70.5108,1.8265
70.5161,1.6283
70.5161,1.5021
70.5171,1.6131
70.5171,1.9077
70.5181,1.5959
70.5225,1.8306
70.5234,1.6071
70.5234,1.2445
70.5247,1.5284
70.5296,2.2144
70.5296,2.1177
70.5306,1.684
70.5306,1.2441
70.5316,1.2694
70.5360,1.5064
70.5366,1.6002
70.5378,1.6857
70.5378,2.0521
70.5386,2.2075
70.5436,1.3785
70.5436,1.2554
70.5446,1.2454
70.5446,1.2525
70.5502,1.2443
70.5502,1.245
70.5513,1.3157
70.5513,1.2567
70.5523,1.3932
70.5565,1.9259
70.5574,2.3974
70.5574,2.3037
70.5584,1.7365
70.5636,1.2604
70.5636,1.2539
70.5647,1.5135
70.5647,1.3427
70.5657,1.759
70.5699,1.4796
70.5709,1.7271
70.5709,2.0509
70.5719,1.9891
70.5770,1.3165
70.5770,1.2512
70.5780,1.3154
70.5780,1.7254
70.5790,1.7187
70.5832,1.7266
70.5843,1.8347
70.5892,1.7519
70.6023,2.0279
70.6053,1.4215
70.6063,1.2445
70.6063,1.2445
70.6072,1.852
70.6082,2.0402
70.6082,2.2062
70.6092,2.332
70.6092,1.7834
70.6102,1.4024
70.6109,1.2443
70.6112,1.6596
70.6112,1.9133
70.6122,2.0566
70.6122,1.7513
70.6122,1.2465
70.6132,1.5861
70.6132,2.3148
70.6142,2.1563
70.6142,1.4633
70.6174,1.4854
70.6184,1.245
70.6184,1.2477
70.6184,1.2488
70.6247,1.2465
70.6257,1.321
70.6267,1.9
70.6267,2.0256
70.6277,1.548
70.6308,1.2443
70.6317,1.2452
70.6317,1.2452
70.6317,1.2585
70.6327,1.353
70.6376,1.7789
70.6376,1.3825
70.6387,1.2443
70.6387,1.2467
70.6450,1.4843
70.6457,2.0219
70.6467,2.488
70.6467,2.6626
70.6477,1.9551
70.6517,1.7033
70.6517,1.452
70.6528,1.258
70.6528,1.2644
70.6579,1.4275
70.6588,1.287
70.6588,1.6516
70.6598,1.7286
70.6598,1.6251
70.6645,1.3067
70.6656,1.4466
70.6656,1.8302
70.6666,1.6514
70.6718,1.3806
70.6727,2.1953
70.6727,2.1213
70.6738,1.8518
70.6738,1.7352
70.6781,1.4153
70.6790,1.2985
70.6790,1.7438
70.6790,1.888
70.6800,1.4955
70.6850,1.375
70.6860,1.7551
70.6860,1.2464
70.6860,1.2462
70.6953,1.2975
70.7092,1.2565
70.7122,1.3075
70.7132,1.2989
70.7142,1.2458
70.7142,1.7841
70.7142,1.9051
70.7152,1.5045
70.7152,1.6309
70.7162,1.2839
70.7162,1.2447
70.7172,1.2537
70.7172,1.8796
70.7182,1.7768
70.7182,1.3851
70.7192,1.2492
70.7192,1.2441
70.7192,1.2754
70.7202,1.371
70.7202,1.3845
70.7212,1.491
70.7212,1.3555
70.7222,1.5617
70.7257,1.771
70.7267,2.0434
70.7267,1.5569
70.7277,1.2855
70.7277,1.317
70.7327,1.3148
70.7327,1.2443
70.7337,1.2479
70.7337,1.2488
70.7399,1.3898
70.7399,1.6658
70.7408,2.1544
70.7418,2.4801
70.7431,2.3481
70.7461,1.8336
70.7468,1.6517
70.7468,1.5803
70.7478,1.5143
70.7528,1.2653
70.7539,1.2465
70.7547,1.2443
70.7547,1.2458
70.7557,1.245
70.7597,1.3677
70.7597,1.5621
70.7607,1.9733
70.7607,2.1711
70.7666,1.5304
70.7666,1.2445
70.7677,1.2728
70.7677,1.3007
70.7687,1.2447
70.7731,2.1473
70.7737,2.3641
70.7749,2.3311
70.7758,1.2527
70.7767,1.3249
70.7797,1.2542
70.7807,1.2441
70.7807,1.3911
70.7817,2.1364
70.7867,1.9274
70.7877,2.0324
70.7877,1.5417
70.7887,2.5135
70.7887,1.7836
70.7933,1.2465
70.7943,1.2445
70.7943,1.2441
70.7943,1.2464
70.8007,1.2449
70.8022,1.2447
70.8109,1.2452
70.8214,1.2441
70.8255,1.2441
70.8264,1.4534
70.8264,1.9011
70.8274,2.1829
70.8274,1.8481
70.8284,1.245
70.8284,1.2443
70.8284,1.2445
70.8294,1.2546
70.8294,1.2698
70.8304,1.4089
70.8304,1.5537
70.8314,1.9336
70.8314,1.5572
70.8324,1.273
70.8324,1.2492
70.8334,1.7935
70.8334,1.3705
70.8344,1.2606
70.8344,1.5389
70.8354,2.1678
70.8354,1.5272
70.8364,1.2464
70.8364,1.2445
70.8416,1.2475
70.8421,1.2488
70.8436,1.2514
70.8436,1.8327
70.8477,1.8051
70.8477,1.264
70.8490,1.2552
70.8490,1.2475
70.8498,1.3924
70.8548,1.7234
70.8548,1.489
70.8558,1.3485
70.8558,1.2488
70.8610,1.2473
70.8618,1.4059
70.8618,1.2782
70.8628,1.4811
70.8628,1.9819
70.8676,2.6316
70.8686,2.6356
70.8686,2.659
70.8686,2.2553
70.8696,1.2584
70.8746,1.2441
70.8756,1.2441
70.8756,1.2441
70.8756,1.2443
70.8819,2.3316
70.8819,2.5445
70.8829,2.0359
70.8829,1.2908
70.8829,1.2465
70.8878,1.2488
70.8888,1.5278
70.8888,1.8696
70.8898,1.4153
70.8951,1.2464
70.8951,1.2447
70.8963,1.2443
70.8972,1.2441
70.8972,1.2469
70.9014,1.4267
70.9022,1.7513
70.9022,1.7924
70.9032,1.9926
70.9084,1.9568
70.9084,1.4569
70.9093,1.2469
70.9093,1.2505
70.9103,1.245
70.9155,1.3079
70.9315,1.2876
70.9315,1.2595
70.9325,1.2848
70.9325,1.2839
70.9335,1.3632
70.9335,1.3067
70.9345,1.2477
70.9345,1.5576
70.9355,1.4663
70.9355,1.5737
70.9355,1.3185
70.9365,1.255
70.9365,1.308
70.9374,1.3384
70.9374,1.344
70.9384,1.3285
70.9384,1.4438
70.9417,1.449
70.9427,1.7372
70.9427,1.3339
70.9437,1.2548
70.9437,1.2758
70.9483,1.8771
70.9483,1.8366
70.9493,1.2486
70.9493,1.378
70.9556,1.5119
70.9565,1.5833
70.9565,1.7119
70.9565,1.2814
70.9576,1.3697
70.9619,1.2456
70.9619,1.2443
70.9629,1.251
70.9629,1.2467
70.9639,1.2445
70.9688,1.2846
70.9688,1.4196
70.9699,1.744
70.9699,1.6954
70.9759,1.7483
70.9768,1.4502
70.9768,1.249
70.9778,1.2621
70.9778,1.2642
70.9829,1.2825
70.9829,1.248
70.9839,1.2782
70.9839,1.4402
70.9893,1.2739
70.9901,1.2464
70.9901,1.3275
70.9911,1.6711
70.9911,1.7174
70.9957,1.7774
70.9967,1.9981
70.9967,1.7776
70.9977,1.5657
71.0028,1.8353
71.0028,2.0622
71.0038,1.8117
71.0038,1.5482
71.0048,1.2469
71.0090,1.2464
71.0098,1.2771
71.0098,1.3759
71.0108,1.5989
71.0108,1.3112
71.0159,1.2604
71.0168,1.3195
71.0168,1.3469
71.0178,1.8061
71.0238,2.3348
71.0378,1.366
71.0387,1.3583
71.0418,1.4365
71.0427,1.3259
71.0427,1.2929
71.0437,1.2889
71.0437,1.2458
71.0447,1.2859
71.0457,2.0481
71.0457,1.945
71.0457,1.5355
71.0467,1.39
71.0477,1.4813
71.0477,1.7211
71.0477,1.5014
71.0487,1.4374
71.0487,1.4153
71.0497,1.4712
71.0497,1.7168
71.0507,2.0134
71.0517,1.255
71.0527,1.2454
71.0559,1.2572
71.0570,1.4605
71.0570,1.3609
71.0580,1.5812
71.0589,1.6904
71.0630,1.9433
71.0640,1.9521
71.0640,1.4999
71.0650,1.2679
71.0703,1.2503
71.0703,1.3199
71.0714,1.4828
71.0714,1.6546
71.0724,1.5771
71.0770,1.2625
71.0770,1.2503
71.0780,1.2743
71.0780,1.2525
71.0837,1.3296
71.0845,1.4459
71.0845,1.6332
71.0855,1.7093
71.0855,1.491
71.0905,1.443
71.0915,1.3748
71.0915,1.6024
71.0925,1.5456
71.0969,1.6699
71.0975,1.5874
71.0975,1.4057
71.0985,1.5666
71.0985,1.936
71.1034,1.6452
71.1043,1.6491
71.1043,1.6784
71.1052,1.4329
71.1052,1.6322
71.1102,1.7447
71.1102,1.7012
71.1112,1.5051
71.1122,1.5649
71.1175,1.4425
71.1175,1.3572
71.1186,1.4755
71.1186,1.6079
71.1196,1.5494
71.1238,1.4352
71.1248,1.2589
71.1248,1.3397
71.1258,1.3523
71.1314,1.5762
71.1447,1.7483
71.1489,1.2805
71.1489,1.548
71.1497,1.8098
71.1497,1.7431
71.1507,1.4952
71.1507,1.4511
71.1517,1.4162
71.1517,1.2792
71.1527,1.3433
71.1527,1.2852
71.1537,1.3937
71.1537,1.4991
71.1537,1.363
71.1547,1.2542
71.1547,1.2524
71.1557,1.6576
71.1557,1.6512
71.1581,1.5794
71.1587,1.6469
71.1597,1.5252
71.1607,1.8136
71.1649,1.8788
71.1649,1.6649
71.1659,1.3647
71.1659,1.3992
71.1669,1.3521
71.1712,1.3909
71.1720,1.4286
71.1720,1.5542
71.1731,1.509
71.1782,1.4541
71.1787,1.3247
71.1787,1.2927
71.1797,1.32
71.1797,1.4397
71.1846,1.4374
71.1857,1.648
71.1857,1.6208
71.1867,1.3662
71.1911,1.3244
71.1921,1.5117
71.1921,1.7011
71.1931,1.6771
71.1931,1.5572
71.1982,1.4847
71.1992,1.6215
71.1992,1.5312
71.1992,1.4522
71.2002,1.3101
71.2052,1.3979
71.2052,1.3245
71.2062,1.3442
71.2062,1.2857
71.2123,1.2754
71.2123,1.4044
71.2133,1.4695
71.2133,1.4691
71.2143,1.2602
71.2184,1.251
71.2195,1.3045
71.2195,1.4914
71.2204,1.4232
71.2278,1.5464
71.2278,1.6546
71.2289,1.6049
71.2289,1.3799
71.2299,1.417
71.2338,1.4455
71.2338,1.6697
71.2388,1.8449
71.2529,1.6969
71.2557,1.5214
71.2557,1.5287
71.2567,1.5548
71.2567,1.4987
71.2581,1.3684
71.2587,1.3729
71.2587,1.507
71.2597,1.6551
71.2597,1.6956
71.2597,1.5192
71.2607,1.4766
71.2612,1.5203
71.2617,1.4822
71.2617,1.4901
71.2627,1.5962
71.2627,1.2657
71.2637,1.2955
71.2637,1.3949
71.2647,1.3512
71.2678,1.4912
71.2690,1.5137
71.2690,1.6388
71.2690,1.6386
71.2745,1.5415
71.2755,1.4766
71.2758,1.4678
71.2765,1.4269
71.2765,1.5794
71.2812,1.5945
71.2820,1.7151
71.2820,1.5505
71.2831,1.714
71.2885,1.6877
71.2885,1.7284
71.2895,1.6251
71.2895,1.6058
71.2907,1.5017
71.2946,1.5557
71.2957,1.5351
71.2957,1.5987
71.2967,1.608
71.2969,1.5194
71.3020,1.4644
71.3021,1.4757
71.3021,1.5216
71.3032,1.59
71.3091,1.5066
71.3091,1.5707
71.3101,1.5413
71.3101,1.4657
71.3111,1.5167
71.3154,1.639
71.3154,1.7836
71.3164,1.7479
71.3164,1.6043
71.3225,1.4691
71.3225,1.4594
71.3236,1.504
71.3236,1.572
71.3247,1.5443
71.3286,1.6197
71.3297,1.7532
71.3297,1.7813
71.3307,1.6748
71.3360,1.5109
71.3362,1.4974
71.3372,1.5535
71.3372,1.4166
71.3372,1.3628
71.3420,1.3701
71.3420,1.3999
71.3430,1.6065
71.3430,1.5008
71.3440,1.4597
71.3634,1.6103
71.3665,1.4363
71.3674,1.4342
71.3674,1.3932
71.3684,1.6632
71.3684,1.8047
71.3694,1.497
71.3697,1.4552
71.3697,1.5782
71.3707,1.5947
71.3707,1.5156
71.3717,1.5267
71.3717,1.429
71.3727,1.4586
71.3727,1.3345
71.3737,1.2799
71.3737,1.2906
71.3747,1.4297
71.3757,1.5996
71.3767,1.6598
71.3767,1.6844
71.3777,1.5533
71.3831,1.503
71.3831,1.3735
71.3841,1.6448
71.3841,1.6024
71.3851,1.4922
71.3894,1.491
71.3905,1.57
71.3905,1.611
71.3916,1.5143
71.3925,1.4937
71.3965,1.4084
71.3965,1.4603
71.3977,1.5021
71.3977,1.4729
71.4038,1.5
71.4038,1.53
71.4048,1.6613
71.4048,1.6364
71.4058,1.5929
71.4102,1.5248
71.4112,1.495
71.4112,1.4562
71.4112,1.5032
71.4173,1.6109
71.4173,1.6459
71.4184,1.5803
71.4184,1.5021
71.4194,1.4249
71.4238,1.3941
71.4238,1.444
71.4249,1.3763
71.4249,1.41
71.4307,1.3658
71.4314,1.3019
71.4314,1.3407
71.4324,1.5315
71.4324,1.4003
71.4369,1.3874
71.4369,1.3519
71.4379,1.2531
71.4379,1.5555
71.4391,1.4888
71.4439,1.6309
71.4439,1.7018
71.4449,1.5392
71.4449,1.4588
71.4513,1.3551
71.4513,1.326
71.4524,1.4663
71.4524,1.5299
71.4536,1.5452
71.4595,1.5557
71.4738,1.5962
71.4770,1.5732
71.4770,1.6576
71.4781,1.8301
71.4781,1.8599
71.4790,1.9086
71.4790,1.9394
71.4800,1.8477
71.4800,1.9621
71.4809,1.906
71.4809,1.9718
71.4809,1.8569
71.4819,1.7716
71.4819,1.7762
71.4832,1.5589
71.4832,1.4097
71.4842,1.4459
71.4842,1.4419
71.4852,1.6457
71.4852,1.612
71.4852,1.5349
71.4863,1.7082
71.4917,1.7192
71.4925,1.51
71.4934,1.4369
71.4934,1.4055
71.4990,1.4588
71.5000,1.6531
71.5000,1.4042
71.5010,1.4755
71.5010,1.5207
71.5055,1.5679
71.5055,1.4644
71.5065,1.5602
71.5065,1.5987
71.5125,1.6457
71.5125,1.4564
71.5136,1.5186
71.5136,1.5929
71.5145,1.5705
71.5187,1.4702
71.5197,1.3664
71.5197,1.5177
71.5197,1.5218
71.5257,1.5959
71.5257,1.5985
71.5268,1.4414
71.5268,1.4609
71.5278,1.5659
71.5322,1.515
71.5333,1.4595
71.5333,1.476
71.5343,1.4944
71.5345,1.4457
71.5385,1.3853
71.5397,1.3506
71.5397,1.4622
71.5408,1.4102
71.5465,1.4204
71.5516,1.5387
71.5516,1.5574
71.5526,1.3836
71.5526,1.4087
71.5536,1.5402
71.5536,1.7194
71.5546,1.7479
71.5546,1.4084
71.5597,1.3949
71.5597,1.2752
71.5608,1.2668
71.5617,1.3049
71.5617,1.4284
71.5697,1.6319
71.5839,1.7432
71.5867,1.617
71.5867,1.6583
71.5876,1.5681
71.5876,1.5722
71.5886,1.5274
71.5886,1.5464
71.5896,1.5994
71.5896,1.5439
71.5906,1.4747
71.5906,1.4858
71.5916,1.4787
71.5916,1.4764
71.5926,1.3785
71.5926,1.4642
71.5936,1.561
71.5936,1.4063
71.5946,1.4249
71.5946,1.5278
71.5956,1.6536
71.5956,1.5366
71.5966,1.5951
71.6001,1.6712
71.6011,1.6437
71.6011,1.5432
71.6021,1.4357
71.6072,1.4783
71.6081,1.5377
71.6097,1.4712
71.6102,1.4541
71.6102,1.5411
71.6132,1.4884
71.6151,1.4727
71.6161,1.5621
71.6161,1.6292
71.6205,1.5599
71.6205,1.5927
71.6214,1.5936
71.6214,1.6549
71.6224,1.8799
71.6266,1.7344
71.6276,1.4858
71.6276,1.3035
71.6276,1.255
71.6286,1.2606
71.6336,1.3403
71.6336,1.587
71.6346,1.6169
71.6346,1.5173
71.6409,1.5465
71.6409,1.5912
71.6419,1.5662
71.6419,1.525
71.6429,1.5122
71.6473,1.6296
71.6482,1.5387
71.6482,1.5233
71.6491,1.4897
71.6545,1.4888
71.6545,1.5293
71.6555,1.5312
71.6555,1.5147
71.6565,1.5516
71.6606,1.4937
71.6615,1.4695
71.6615,1.4766
71.6625,1.7761
71.6678,1.7697
71.6678,1.7104
71.6688,1.6709
71.6688,1.6005
71.6698,1.5929
71.6750,1.5914
71.6930,1.6142
71.6960,1.4929
71.6970,1.5087
71.6980,1.3767
71.6980,1.6392
71.6980,1.7297
71.6990,1.7502
71.6990,1.6658
71.7000,1.7369
71.7000,1.7022
71.7010,1.741
71.7010,1.6853
71.7019,1.7359
71.7019,1.7125
71.7019,1.7027
71.7029,1.6986
71.7029,1.639
71.7039,1.6952
71.7039,1.6484
71.7049,1.6471
71.7049,1.6176
71.7059,1.5934
71.7080,1.5938
71.7090,1.474
71.7090,1.5049
71.7100,1.4955
71.7151,1.5064
71.7151,1.5887
71.7161,1.7221
71.7161,1.6752
71.7171,1.596
71.7212,1.7099
71.7221,1.7828
71.7221,1.7847
71.7231,1.7089
71.7231,1.6238
71.7285,1.6232
71.7291,1.5554
71.7291,1.4871
71.7301,1.5574
71.7352,1.579
71.7363,1.6079
71.7375,1.6
71.7375,1.5998
71.7384,1.4959
71.7422,1.7082
71.7422,1.6193
71.7434,1.5599
71.7434,1.4903
71.7489,1.4387
71.7499,1.5679
71.7499,1.5554
71.7509,1.5383
71.7509,1.3889
71.7552,1.4537
71.7562,1.5644
71.7571,1.5975
71.7571,1.566
71.7625,1.4024
71.7636,1.306
71.7636,1.2944
71.7636,1.4376
71.7648,1.6756
71.7686,1.7131
71.7696,1.5585
71.7709,1.5464
71.7709,1.5231
71.7719,1.5059
71.7758,1.3829
71.7770,1.3437
71.7770,1.3954
71.7781,1.4929
71.7829,1.3971
71.7829,1.6701
71.7932,1.5705
71.8034,1.392
71.8086,1.2764
71.8086,1.3926
71.8096,1.4747
71.8096,1.6049
71.8107,1.5152
71.8109,1.3699
71.8109,1.542
71.8119,1.465
71.8119,1.5201
71.8129,1.6367
71.8129,1.5231
71.8139,1.5555
71.8139,1.473
71.8149,1.4402
71.8159,1.4243
71.8161,1.3508
71.8170,1.5357
71.8170,1.5355
71.8170,1.5353
71.8180,1.4357
71.8180,1.5494
71.8190,1.6752
71.8190,1.7586
71.8200,1.632
71.8232,1.6002
71.8232,1.4939
71.8243,1.4659
71.8253,1.4792
71.8308,1.5379
71.8308,1.5077
71.8318,1.5162
71.8318,1.4665
71.8329,1.4444
71.8367,1.5302
71.8377,1.4871
71.8377,1.4539
71.8387,1.4783
71.8442,1.482
71.8442,1.4867
71.8452,1.4239
71.8452,1.5132
71.8452,1.4678
71.8496,1.4301
71.8507,1.7581
71.8507,1.7526
71.8517,1.6621
71.8573,1.6103
71.8573,1.4198
71.8583,1.4069
71.8583,1.4402
71.8593,1.4817
71.8634,1.4219
71.8645,1.4685
71.8645,1.4813
71.8655,1.3662
71.8655,1.3904
71.8707,1.3519
71.8707,1.4474
71.8717,1.5156
71.8719,1.5664
71.8776,1.6388
71.8784,1.5829
71.8784,1.5167
71.8794,1.5852
71.8794,1.5769
71.8839,1.4841
71.8849,1.4954
71.8849,1.4286
71.8859,1.4067
71.8911,1.4087
71.8911,1.4804
71.8967,1.4393
71.9103,1.4115
71.9136,1.2945
71.9146,1.2964
71.9146,1.3821
71.9156,1.4217
71.9156,1.5315
71.9168,1.5945
71.9168,1.7213
71.9178,1.7284
71.9178,1.4312
71.9178,1.419
71.9189,1.4792
71.9189,1.5317
71.9198,1.5209
71.9198,1.5203
71.9208,1.5756
71.9208,1.6155
71.9220,1.6712
71.9220,1.6836
71.9231,1.5957
71.9249,1.612
71.9257,1.6144
71.9257,1.5467
71.9267,1.4841
71.9267,1.4618
71.9313,1.6652
71.9323,1.6099
71.9323,1.6381
71.9335,1.5885
71.9383,1.5321
71.9383,1.5246
71.9396,1.5351
71.9396,1.5638
71.9407,1.6037
71.9450,1.6032
71.9459,1.6017
71.9459,1.6921
71.9459,1.6664
71.9536,1.621
71.9536,1.5638
71.9546,1.6058
71.9546,1.5889
71.9559,1.5801
71.9598,1.4445
71.9608,1.4539
71.9608,1.4727
71.9618,1.429
71.9620,1.4494
71.9670,1.4408
71.9670,1.4909
71.9682,1.4532
71.9682,1.4907
71.9737,1.4346
71.9747,1.4037
71.9747,1.5299
71.9757,1.5985
71.9757,1.5863
71.9804,1.4612
71.9812,1.4682
71.9812,1.4706
71.9822,1.432
71.9876,1.4012
71.9876,1.4595
71.9887,1.4144
71.9887,1.5062
71.9897,1.4929
71.9939,1.5351
71.9950,1.5775
71.9950,1.4303
71.9960,1.3943
72.0010,1.4507
72.0182,1.4134
72.0215,1.3995
72.0221,1.486
72.0221,1.4442
72.0231,1.4545
72.0231,1.4269
72.0231,1.3804
72.0241,1.4781
72.0254,1.4654
72.0254,1.4633
72.0262,1.378
72.0262,1.3564
72.0272,1.6381
72.0278,1.6322
72.0282,1.5925
72.0282,1.566
72.0292,1.4355
72.0292,1.4903
72.0302,1.539
72.0302,1.4935
72.0302,1.4312
72.0313,1.4597
72.0352,1.5409
72.0352,1.4496
72.0362,1.6799
72.0362,1.5884
72.0374,1.4982
72.0411,1.4425
72.0425,1.4387
72.0431,1.5214
72.0431,1.5722
72.0484,1.4562
72.0492,1.4759
72.0501,1.4843
72.0511,1.4324
72.0511,1.4843
72.0545,1.4865
72.0556,1.4517
72.0556,1.4267
72.0556,1.4001
72.0566,1.4305
72.0618,1.47
72.0618,1.4819
72.0629,1.5329
72.0638,1.5323
72.0691,1.5831
72.0691,1.825
72.0704,1.8411
72.0704,1.9041
72.0714,1.8216
72.0756,1.8312
72.0756,1.9411
72.0767,1.9891
72.0767,1.8529
72.0826,1.6544
72.0826,1.645
72.0836,1.6718
72.0836,1.8021
72.0846,1.8434
72.0889,1.8676
72.0899,1.7117
72.0899,1.6472
72.0909,1.5895
72.0961,1.5524
72.0961,1.4607
72.0971,1.416
72.0971,1.5053
72.0981,1.5323
72.1024,1.4742
72.1035,1.5289
72.1035,1.4832
72.1035,1.5231
72.1047,1.4348
72.1138,1.516
72.1325,1.5653
72.1365,1.5651
72.1370,1.4635
72.1375,1.4065
72.1375,1.3928
72.1387,1.4487
72.1387,1.3937
72.1397,1.4787
72.1397,1.4492
72.1407,1.4301
72.1412,1.5413
72.1417,1.5977
72.1417,1.6313
72.1427,1.4736
72.1435,1.5469
72.1437,1.5179
72.1437,1.5235
72.1449,1.7376
72.1449,1.6675
72.1460,1.6437
72.1460,1.5623
72.1469,1.4399
72.1469,1.5027
72.1479,1.5259
72.1479,1.4792
72.1489,1.4655
72.1499,1.5021
72.1499,1.5377
72.1512,1.5439
72.1512,1.4888
72.1523,1.5025
72.1576,1.5192
72.1585,1.593
72.1595,1.5306
72.1595,1.5869
72.1641,1.5927
72.1641,1.5145
72.1652,1.5627
72.1652,1.5593
72.1662,1.5265
72.1704,1.4684
72.1716,1.4828
72.1716,1.4882
72.1725,1.4271
72.1775,1.4329
72.1775,1.4322
72.1786,1.3669
72.1786,1.3594
72.1798,1.3594
72.1838,1.3665
72.1850,1.4059
72.1851,1.5409
72.1851,1.75
72.1907,1.7116
72.1907,1.6039
72.1918,1.5492
72.1918,1.632
72.1928,1.6643
72.1972,1.5544
72.1980,1.4907
72.1980,1.4693
72.1990,1.4828
72.1990,1.5147
72.2043,1.6137
72.2043,1.6956
72.2053,1.7206
72.2053,1.5987
72.2118,1.5769
72.2118,1.467
72.2129,1.3956
72.2129,1.393
72.2139,1.4453
72.2183,1.45
72.2183,1.459
72.2193,1.5728
72.2263,1.6178
72.2375,1.5906
72.2415,1.5359
72.2415,1.4965
72.2425,1.5089
72.2425,1.5629
72.2435,1.5554
72.2435,1.5842
72.2445,1.5794
72.2445,1.5831
72.2445,1.5291
72.2455,1.5434
72.2455,1.5417
72.2467,1.4729
72.2467,1.4822
72.2467,1.485
72.2477,1.4991
72.2477,1.5415
72.2488,1.5291
72.2488,1.5554
72.2519,1.5805
72.2527,1.5801
72.2527,1.5872
72.2527,1.5775
72.2585,1.563
72.2594,1.4854
72.2594,1.4295
72.2604,1.5435
72.2604,1.6058
72.2653,1.5415
72.2661,1.4654
72.2671,1.4303
72.2671,1.4299
72.2725,1.4348
72.2736,1.5338
72.2736,1.5452
72.2747,1.6259
72.2757,1.6885
72.2791,1.6414
72.2796,1.6585
72.2796,1.6609
72.2806,1.6984
72.2860,1.7746
72.2860,1.7309
72.2870,1.816
72.2870,1.7701
72.2880,1.6452
72.2924,1.5203
72.2924,1.4755
72.2934,1.5885
72.2934,1.5917
72.2944,1.3984
72.2997,1.3122
72.2997,1.4622
72.3007,1.6015
72.3007,1.7481
72.3063,1.7356
72.3073,1.7307
72.3077,1.7412
72.3083,1.6716
72.3083,1.6956
72.3133,1.7447
72.3143,1.7026
72.3143,1.687
72.3153,1.5835
72.3195,1.5507
72.3205,1.4972
72.3215,1.5115
72.3215,1.4235
72.3225,1.3956
72.3267,1.5137
72.3267,1.6142
72.3277,1.7562
72.3277,1.6679
72.3339,1.6322
72.3567,1.6214
72.3617,1.5816
72.3627,1.5944
72.3636,1.5674
72.3646,1.5756
72.3656,1.5807
72.3656,1.5638
72.3666,1.5417
72.3676,1.4869
72.3686,1.4307
72.3696,1.542
72.3696,1.5844
72.3706,1.471
72.3716,1.6392
72.3716,1.5722
72.3726,1.4939
72.3736,1.5186
72.3746,1.56
72.3756,1.5702
72.3766,1.5557
72.3776,1.5681
72.3786,1.4449
72.3786,1.3892
72.3796,1.4157
72.3806,1.329
72.3816,1.4359
72.3826,1.507
72.3826,1.4682
72.3836,1.5295
72.3846,1.4249
72.3856,1.4736
72.3866,1.464
72.3866,1.5094
72.3876,1.4361
72.3886,1.4783
72.3896,1.3746
72.3906,1.3024
72.3916,1.3639
72.3916,1.4871
72.3936,1.5422
72.3936,1.5044
72.3946,1.428
72.3956,1.3454
72.3966,1.4903
72.3976,1.6412
72.4015,1.5482
72.4025,1.4436
72.4035,1.4841
72.4045,1.4678
72.4045,1.5128
72.4085,1.5527
72.4095,1.5482
72.4105,1.5375
72.4105,1.5338
72.4155,1.4153
72.4165,1.4245
72.4175,1.5135
72.4187,1.4633
72.4199,1.456
72.4221,1.4777
72.4225,1.5345
72.4235,1.5209
72.4245,1.5105
72.4285,1.4987
72.4295,1.5591
72.4305,1.5379
72.4305,1.4464
72.4315,1.4468
72.4345,1.5342
72.4355,1.5402
72.4365,1.5321
72.4365,1.5184
72.4425,1.5293
72.4674,1.5825
72.4724,1.5904
72.4734,1.6094
72.4743,1.5559
72.4753,1.4723
72.4767,1.4822
72.4784,1.456
72.4784,1.4685
72.4793,1.4524
72.4803,1.4309
72.4813,1.4374
72.4823,1.4558
72.4833,1.4882
72.4833,1.5027
72.4843,1.4684
72.4843,1.4841
72.4854,1.5261
72.4863,1.4144
72.4863,1.447
72.4873,1.4738
72.4873,1.5034
72.4883,1.4697
72.4883,1.3727
72.4893,1.3373
72.4893,1.2983
72.4903,1.3165
72.4915,1.5287
72.4915,1.6739
72.4923,1.6335
72.4933,1.6257
72.4933,1.5066
72.4943,1.5402
72.4943,1.5801
72.4943,1.5527
72.4953,1.5119
72.4953,1.5381
72.4963,1.4832
72.4973,1.5261
72.4973,1.5657
72.4973,1.5355
72.4973,1.4393
72.5034,1.3373
72.5034,1.3298
72.5034,1.3049
72.5044,1.3275
72.5095,1.4772
72.5105,1.6229
72.5105,1.6849
72.5105,1.5754
72.5115,1.6002
72.5165,1.6311
72.5165,1.5773
72.5175,1.4177
72.5175,1.3649
72.5236,1.5383
72.5236,1.5015
72.5248,1.5593
72.5248,1.6951
72.5256,1.7371
72.5297,1.6125
72.5297,1.5312
72.5307,1.5563
72.5307,1.5737
72.5307,1.5329
72.5367,1.5484
72.5377,1.5554
72.5377,1.5702
72.5377,1.5312
72.5447,1.5959
72.5447,1.6259
72.5447,1.6251
72.5457,1.6067
72.5457,1.6221
72.5548,1.605
72.5687,1.5835
72.5697,1.527
72.5697,1.4723
72.5707,1.4886
72.5707,1.4444
72.5717,1.4665
72.5717,1.4712
72.5727,1.4354
72.5727,1.5291
72.5727,1.5269
72.5727,1.5662
72.5737,1.587
72.5737,1.539
72.5749,1.6159
72.5757,1.5602
72.5757,1.3988
72.5767,1.3467
72.5778,1.3356
72.5778,1.3994
72.5787,1.4948
72.5787,1.5537
72.5797,1.569
72.5847,1.5632
72.5857,1.6491
72.5857,1.6225
72.5867,1.4929
72.5920,1.3999
72.5928,1.443
72.5928,1.4571
72.5938,1.4702
72.5938,1.5411
72.5988,1.6249
72.5988,1.5675
72.5988,1.5265
72.5998,1.542
72.6049,1.4682
72.6059,1.4528
72.6059,1.4777
72.6059,1.5089
72.6069,1.534
72.6120,1.4412
72.6130,1.402
72.6130,1.4515
72.6130,1.5004
72.6190,1.5537
72.6190,1.5149
72.6190,1.4453
72.6201,1.4297
72.6201,1.6281
72.6251,1.4277
72.6261,1.4346
72.6261,1.4537
72.6271,1.476
72.6271,1.4901
72.6321,1.471
72.6330,1.476
72.6330,1.5773
72.6340,1.6178
72.6390,1.5452
72.6400,1.5152
72.6410,1.4384
72.6411,1.4327
72.6420,1.4897
72.6460,1.5745
72.6460,1.5675
72.6470,1.5503
72.6470,1.5548
72.6530,1.4594
72.6530,1.4736
72.6540,1.4948
72.6540,1.485
72.6550,1.3352
72.6621,1.2989
72.6739,1.3658
72.6759,1.4595
72.6759,1.4132
72.6769,1.4637
72.6769,1.4852
72.6779,1.4123
72.6779,1.3574
72.6789,1.3217
72.6789,1.3572
72.6789,1.4483
72.6799,1.7029
72.6799,1.6742
72.6809,1.6341
72.6809,1.8121
72.6819,1.7663
72.6819,1.8036
72.6819,1.8267
72.6890,1.9339
72.6890,1.9058
72.6899,1.9232
72.6899,1.9519
72.6899,1.9876
72.6949,1.9412
72.6949,1.7762
72.6959,1.7127
72.6959,1.6332
72.7019,1.528
72.7019,1.41
72.7029,1.357
72.7029,1.3489
72.7029,1.3697
72.7088,1.4067
72.7088,1.4228
72.7098,1.4069
72.7098,1.4112
72.7158,1.5814
72.7158,1.4393
72.7158,1.5567
72.7168,1.5749
72.7168,1.4774
72.7218,1.4697
72.7218,1.551
72.7228,1.5462
72.7228,1.5083
72.7228,1.4753
72.7288,1.5529
72.7298,1.5004
72.7298,1.6118
72.7298,1.5625
72.7358,1.5259
72.7368,1.5332
72.7368,1.5411
72.7368,1.5542
72.7378,1.5432
72.7428,1.5477
72.7428,1.5555
72.7428,1.5612
72.7438,1.5719
72.7497,1.5068
72.7497,1.518
72.7497,1.546
72.7507,1.5617
72.7507,1.5992
72.7557,1.6157
72.7557,1.5651
72.7567,1.5953
72.7567,1.5449
72.7627,1.3917
72.7627,1.3005
72.7637,1.2959
72.7637,1.3499
72.7637,1.3604
72.7707,1.6094
72.7787,1.528
72.7807,1.4367
72.7807,1.4955
72.7807,1.5544
72.7816,1.5803
72.7816,1.5492
72.7816,1.6009
72.7816,1.6202
72.7837,1.6424
72.7837,1.6546
72.7837,1.7086
72.7846,1.6636
72.7846,1.6107
72.7896,1.6529
72.7906,1.6155
72.7910,1.6516
72.7916,1.6407
72.7968,1.6294
72.7977,1.6396
72.7977,1.582
72.7977,1.5647
72.7988,1.6197
72.8037,1.539
72.8039,1.5936
72.8039,1.6418
72.8039,1.629
72.8107,1.552
72.8108,1.6169
72.8108,1.5964
72.8108,1.3718
72.8108,1.2713
72.8168,1.2462
72.8168,1.2445
72.8178,1.4295
72.8178,1.6849
72.8188,1.786
72.8248,1.8805
72.8248,1.6441
72.8258,1.6326
72.8258,1.6999
72.8314,1.7854
72.8318,1.609
72.8318,1.5887
72.8328,1.6409
72.8328,1.596
72.8378,1.5872
72.8378,1.6264
72.8388,1.6219
72.8388,1.6437
72.8447,1.6572
72.8447,1.6864
72.8457,1.642
72.8457,1.6452
72.8467,1.6727
72.8507,1.6847
72.8517,1.6709
72.8517,1.6124
72.8527,1.614
72.8583,1.6242
72.8587,1.6118
72.8587,1.5974
72.8597,1.6114
72.8597,1.627
72.8647,1.5621
72.8647,1.5634
72.8647,1.5803
72.8657,1.603
72.8657,1.5989
72.8717,1.615
72.8717,1.6315
72.8717,1.6769
72.8727,1.6866
72.8807,1.6954
72.8856,1.6446
72.8876,1.5694
72.8876,1.5372
72.8876,1.5164
72.8876,1.6478
72.8886,1.5698
72.8886,1.5276
72.8886,1.6551
72.8916,1.8205
72.8926,1.885
72.8926,1.7894
72.8926,1.765
72.8936,1.6943
72.8986,1.795
72.8986,1.8074
72.8996,1.7957
72.8996,1.6814
72.9056,1.7412
72.9056,1.7661
72.9066,1.744
72.9066,1.7436
72.9066,1.7153
72.9116,1.7237
72.9126,1.7252
72.9126,1.7341
72.9126,1.7693
72.9126,1.6997
72.9195,1.5835
72.9195,1.4528
72.9195,1.3474
72.9195,1.3825
72.9265,1.4875
72.9265,1.6187
72.9265,1.8091
72.9275,1.5934
72.9275,1.6242
72.9325,1.7779
72.9325,1.9641
72.9335,1.9159
72.9335,1.8439
72.9401,1.7751
72.9405,1.687
72.9405,1.6926
72.9405,1.7211
72.9405,1.6956
72.9465,1.606
72.9465,1.6135
72.9465,1.6622
72.9475,1.6514
72.9535,1.6574
72.9535,1.6497
72.9535,1.7101
72.9545,1.6636
72.9545,1.6062
72.9594,1.6487
72.9594,1.5844
72.9604,1.5347
72.9604,1.5752
72.9604,1.5229
72.9664,1.492
72.9674,1.5449
72.9674,1.5139
72.9674,1.461
72.9744,1.4708
72.9744,1.3463
72.9744,1.4226
72.9754,1.4969
72.9754,1.5117
72.9804,1.6092
72.9804,1.5713
72.9804,1.3746
72.9814,1.3165
72.9876,1.3892
72.9904,1.4346
73.0063,1.5925
73.0083,1.6024
73.0083,1.7329
73.0083,1.6802
73.0093,1.6847
73.0093,1.627
73.0093,1.6157
73.0093,1.5844
73.0103,1.5606
73.0103,1.6606
73.0103,1.5915
73.0103,1.5325
73.0113,1.5651
73.0113,1.6032
73.0113,1.6212
73.0113,1.564
73.0123,1.5467
73.0143,1.6356
73.0143,1.629
73.0143,1.5809
73.0153,1.537
73.0213,1.5422
73.0213,1.5799
73.0223,1.5297
73.0223,1.4901
73.0223,1.5107
73.0278,1.405
73.0283,1.3247
73.0283,1.2749
73.0283,1.2989
73.0342,1.4282
73.0353,1.6307
73.0353,1.6292
73.0353,1.536
73.0362,1.5758
73.0412,1.5499
73.0416,1.6187
73.0422,1.6855
73.0422,1.6501
73.0482,1.6339
73.0482,1.5897
73.0482,1.5902
73.0492,1.6343
73.0492,1.7185
73.0542,1.7056
73.0552,1.605
73.0552,1.5398
73.0552,1.5443
73.0562,1.5434
73.0612,1.5525
73.0622,1.5224
73.0622,1.5833
73.0622,1.6129
73.0682,1.6277
73.0691,1.5353
73.0691,1.5591
73.0701,1.5497
73.0701,1.5754
73.0751,1.5945
73.0751,1.5552
73.0761,1.5979
73.0761,1.576
73.0821,1.5919
73.0821,1.5205
73.0831,1.5925
73.0831,1.5788
73.0831,1.5604
73.0881,1.5235
73.0891,1.363
73.0891,1.2567
73.0891,1.2447
73.0951,1.3313
73.0961,1.6214
73.0961,1.5816
73.0961,1.9291
73.0971,1.6756
73.1080,1.7151
73.1100,1.6472
73.1100,1.6484
73.1110,1.7877
73.1110,1.7119
73.1110,1.735
73.1110,1.7091
73.1120,1.7247
73.1120,1.714
73.1160,1.597
73.1160,1.5773
73.1171,1.5885
73.1171,1.567
73.1171,1.4712
73.1220,1.5177
73.1230,1.5529
73.1230,1.5379
73.1230,1.5514
73.1290,1.5938
73.1300,1.5912
73.1300,1.6045
73.1300,1.5705
73.1300,1.5282
73.1360,1.5728
73.1360,1.567
