58.1145,1.8443
58.1155,1.7566
58.1165,1.6472
58.1175,1.7551
58.1185,1.6887
58.1199,1.6405
58.1205,1.6454
58.1214,1.6002
58.1214,1.4252
58.1214,1.4669
58.1224,1.5535
58.1275,1.557
58.1275,1.6465
58.1286,1.792
58.1286,1.8115
58.1375,1.8518
58.1525,1.8362
58.1535,1.9206
58.1564,1.8844
58.1574,1.9529
58.1574,1.8807
58.1574,1.623
58.1584,1.5492
58.1584,1.4886
58.1594,1.6079
58.1594,1.687
58.1604,1.7556
58.1604,1.7646
58.1616,1.7736
58.1616,1.7502
58.1624,1.7633
58.1624,1.8364
58.1634,1.6795
58.1634,1.6454
58.1634,1.6521
58.1644,1.7742
58.1644,1.6951
58.1654,1.5722
58.1684,1.5209
58.1684,1.6549
58.1694,1.7629
58.1694,1.8241
58.1704,1.9257
58.1747,1.8816
58.1755,1.9448
58.1755,1.9178
58.1764,1.8184
58.1818,1.4564
58.1825,1.35
58.1825,1.2494
58.1834,1.3461
58.1844,1.6349
58.1881,1.693
58.1891,1.7528
58.1891,1.7211
58.1901,1.7037
58.1953,1.6035
58.1962,1.5173
58.1962,1.75
58.1972,1.7817
58.1972,1.7911
58.2011,1.837
58.2021,1.8139
58.2021,1.7296
58.2032,1.594
58.2032,1.371
58.2081,1.3977
58.2092,1.4637
58.2101,1.578
58.2101,1.633
58.2162,1.4895
58.2172,1.455
58.2172,1.456
58.2186,1.6782
58.2186,1.6847
58.2225,1.6476
58.2235,1.5229
58.2235,1.7596
58.2247,1.6328
58.2298,1.693
58.2300,1.6741
58.2308,1.6264
58.2308,1.6043
58.2318,1.6581
58.2358,1.6795
58.2368,1.7491
58.2368,1.7378
58.2378,1.6677
58.2430,1.5771
58.2430,1.4708
58.2439,1.4033
58.2439,1.4882
58.2450,1.5889
58.2611,1.617
58.2639,1.5649
58.2679,1.483
58.2689,1.521
58.2699,1.6182
58.2699,1.6656
58.2709,1.7333
58.2709,1.6742
58.2719,1.5494
58.2719,1.4963
58.2729,1.4222
58.2729,1.4567
58.2729,1.4444
58.2739,1.264
58.2739,1.3945
58.2749,1.5074
58.2749,1.4185
58.2759,1.5687
58.2770,1.8601
58.2781,1.8936
58.2781,2.0562
58.2789,1.7777
58.2789,1.6097
58.2844,1.5049
58.2853,1.51
58.2853,1.4151
58.2864,1.3459
58.2906,1.3975
58.2906,1.5664
58.2917,1.6403
58.2917,1.7369
58.2927,1.7639
58.2971,1.7845
58.2971,1.6309
58.2981,1.6161
58.2991,1.6409
58.2991,1.7102
58.3041,1.6787
58.3041,1.6311
58.3051,1.5034
58.3051,1.5051
58.3114,1.522
58.3123,1.5769
58.3123,1.5788
58.3133,1.5621
58.3133,1.5357
58.3183,1.5803
58.3183,1.5929
58.3193,1.5987
58.3204,1.6542
58.3244,1.5666
58.3253,1.5464
58.3263,1.452
58.3274,1.482
58.3274,1.5509
58.3313,1.7087
58.3313,1.8044
58.3323,1.7459
58.3324,1.5636
58.3398,1.6249
58.3398,1.7929
58.3408,1.8207
58.3408,1.5951
58.3418,1.5244
58.3462,1.458
58.3462,1.506
58.3472,1.516
58.3472,1.5276
58.3482,1.6495
58.3532,1.6896
58.3532,1.6461
58.3542,1.6669
58.3542,1.5614
58.3624,1.4856
58.3764,1.465
58.3773,1.5439
58.3807,1.6
58.3813,1.7382
58.3813,1.6887
58.3823,1.561
58.3823,1.5749
58.3833,1.5572
58.3839,1.6994
58.3843,1.8197
58.3853,1.7243
58.3853,1.6951
58.3863,1.6392
58.3863,1.516
58.3873,1.416
58.3873,1.4342
58.3885,1.4684
58.3885,1.4331
58.3893,1.4774
58.3893,1.4504
58.3903,1.6437
58.3903,1.7684
58.3937,1.9148
58.3947,1.8962
58.3947,1.8106
58.3957,1.6759
58.3957,1.6364
58.4017,1.4974
58.4017,1.5156
58.4027,1.5315
58.4027,1.5917
58.4081,1.5795
58.4090,1.5953
58.4090,1.5216
58.4100,1.5499
58.4100,1.5827
58.4142,1.6765
58.4150,1.6862
58.4160,1.6831
58.4161,1.6084
58.4211,1.612
58.4222,1.621
58.4222,1.6647
58.4230,1.5111
58.4230,1.5169
58.4279,1.5475
58.4289,1.5906
58.4289,1.5377
58.4289,1.4888
58.4344,1.4886
58.4354,1.5066
58.4354,1.5923
58.4364,1.6921
58.4364,1.8432
58.4412,1.717
58.4412,1.7357
58.4422,1.6658
58.4422,1.7468
58.4432,1.5724
58.4482,1.5595
58.4482,1.4907
58.4492,1.4342
58.4492,1.3999
58.4553,1.4646
58.4602,1.7455
58.4612,1.8842
58.4612,1.8259
58.4622,1.6967
58.4622,1.633
58.4622,1.4993
58.4632,1.578
58.4632,1.5278
58.4688,1.4736
58.4698,1.5702
58.4746,1.5237
58.4886,1.605
58.4915,1.741
58.4926,1.5957
58.4926,1.7127
58.4936,1.6868
58.4936,1.6416
58.4946,1.6769
58.4946,1.7131
58.4955,1.7056
58.4955,1.573
58.4966,1.6229
58.4966,1.6191
58.4966,1.5932
58.4976,1.6795
58.4976,1.8027
58.4986,1.9082
58.4986,1.9022
58.4996,1.861
58.4996,1.7811
58.5010,1.7149
58.5027,1.6861
58.5036,1.6238
58.5036,1.7252
58.5046,1.7871
58.5046,1.6135
58.5096,1.5621
58.5096,1.6763
58.5106,1.7571
58.5106,1.8379
58.5162,1.8286
58.5169,1.8151
58.5179,1.7187
58.5189,1.5722
58.5199,1.5719
58.5226,1.4745
58.5226,1.3845
58.5237,1.3995
58.5237,1.4723
58.5297,1.5261
58.5297,1.4567
58.5307,1.5398
58.5307,1.7416
58.5317,1.801
58.5358,1.6705
58.5367,1.6727
58.5367,1.593
58.5376,1.4363
58.5376,1.4434
58.5426,1.4644
58.5436,1.5692
58.5436,1.6544
58.5448,1.7331
58.5503,1.702
58.5509,1.6529
58.5521,1.7622
58.5529,1.7811
58.5529,1.7584
58.5561,1.6892
58.5572,1.7348
58.5572,1.8154
58.5582,1.7723
58.5636,1.6512
58.5644,1.4779
58.5644,1.3855
58.5653,1.3553
58.5658,1.4573
58.5699,1.4871
58.5708,1.5591
58.5708,1.5732
58.5708,1.6793
58.5769,1.8754
58.5777,1.8878
58.5777,1.96
58.5777,1.7807
58.5787,1.6536
58.5887,1.6606
58.5978,1.6281
58.6017,1.5966
58.6017,1.4955
58.6027,1.3799
58.6027,1.5051
58.6037,1.5869
58.6037,1.5917
58.6047,1.6941
58.6047,1.7417
58.6047,1.7093
58.6057,1.6921
58.6057,1.6643
58.6067,1.5525
58.6067,1.4273
58.6077,1.5057
58.6077,1.4783
58.6077,1.483
58.6110,1.5839
58.6116,1.6052
58.6116,1.5479
58.6127,1.5705
58.6127,1.5953
58.6168,1.6454
58.6178,1.6521
58.6188,1.6424
58.6198,1.5064
58.6246,1.4918
58.6246,1.5274
58.6256,1.5915
58.6256,1.7993
58.6266,1.9279
58.6307,1.9549
58.6321,2.1312
58.6326,2.2872
58.6326,2.4318
58.6337,2.4657
58.6378,2.1179
58.6378,2.1869
58.6388,2.2484
58.6388,2.1796
58.6451,2.1038
58.6451,1.9546
58.6461,1.8104
58.6461,1.6112
58.6471,1.5889
58.6514,1.7061
58.6521,1.7271
58.6521,1.756
58.6531,1.7327
58.6586,1.6911
58.6586,1.66
58.6596,1.4355
58.6596,1.6549
58.6608,1.5647
58.6648,1.6292
58.6648,1.6388
58.6660,1.6071
58.6660,1.6047
58.6713,1.6125
58.6723,1.7172
58.6734,1.6952
58.6743,1.7003
58.6743,1.6444
58.6785,1.6861
58.6785,1.7736
58.6795,1.7875
58.6795,1.6658
58.6805,1.6193
58.6857,1.6079
58.6867,1.533
58.6867,1.555
58.6877,1.6735
58.6964,1.6364
58.7097,1.72
58.7135,1.7929
58.7142,1.8372
58.7142,1.8522
58.7151,1.7485
58.7151,1.7078
58.7161,1.7059
58.7171,1.5844
58.7181,1.5908
58.7181,1.4804
58.7196,1.4044
58.7201,1.5857
58.7211,1.5803
58.7222,1.6139
58.7222,1.6628
58.7231,1.9609
58.7231,2.0037
58.7241,1.8012
58.7241,1.6073
58.7241,1.5252
58.7251,1.5415
58.7251,1.6855
58.7261,1.7361
58.7261,1.6804
58.7271,1.7078
58.7271,1.8962
58.7281,1.8203
58.7335,1.7326
58.7341,1.7761
58.7351,1.6834
58.7351,1.5951
58.7405,1.63
58.7405,1.7549
58.7415,1.6576
58.7415,1.6722
58.7425,1.6576
58.7475,1.6356
58.7475,1.5762
58.7485,1.5265
58.7485,1.6377
58.7537,1.6649
58.7545,1.6484
58.7545,1.6574
58.7555,1.7363
58.7555,1.6551
58.7596,1.6401
58.7606,1.6707
58.7616,1.7191
58.7616,1.7624
58.7669,1.6891
58.7679,1.7056
58.7689,1.7112
58.7699,1.5889
58.7709,1.7215
58.7738,1.8062
58.7738,1.8584
58.7748,1.846
58.7748,1.8389
58.7758,1.7897
58.7808,1.6924
58.7808,1.5385
58.7818,1.4697
58.7828,1.398
58.7881,1.4757
58.7881,1.5814
58.7891,1.7106
58.7891,1.8323
58.7901,1.8989
58.7944,1.8505
58.7955,1.9135
58.7955,1.9334
58.7955,1.8706
58.8017,1.8074
58.8144,1.7603
58.8174,1.7256
58.8184,1.8184
58.8184,1.744
58.8194,1.492
58.8194,1.6694
58.8204,1.7236
58.8204,1.8256
58.8214,1.8289
58.8214,1.6971
58.8214,1.6531
58.8224,1.7048
58.8224,1.6418
58.8234,1.7847
58.8234,1.7907
58.8244,1.7674
58.8244,1.5501
58.8254,1.5887
58.8283,1.7296
58.8283,1.7438
58.8295,1.8203
58.8304,1.8619
58.8356,1.9062
58.8365,1.8218
58.8365,1.8351
58.8365,1.7912
58.8375,1.7566
58.8417,1.7731
58.8428,1.7815
58.8428,1.7065
58.8438,1.6913
58.8487,1.7539
58.8498,1.7159
58.8498,1.8604
58.8512,1.924
58.8519,1.7821
58.8557,1.6562
58.8557,1.7507
58.8557,1.9013
58.8567,1.8668
58.8626,1.8754
58.8627,1.8953
58.8627,1.8752
58.8637,1.8745
58.8637,1.7987
58.8687,1.7164
58.8697,1.6746
58.8697,1.7453
58.8707,1.93
58.8707,1.9816
58.8757,1.8582
58.8768,1.7972
58.8768,1.8634
58.8777,1.7282
58.8839,1.7839
58.8839,1.7787
58.8849,1.7616
58.8849,1.7997
58.8849,1.8891
58.8891,1.7477
58.8902,1.825
58.8902,2.0359
58.8912,2.0721
58.8970,1.9067
58.8970,1.8267
58.8980,1.7335
58.8980,1.7222
58.8990,1.7766
58.9033,1.6712
58.9033,1.6621
58.9043,1.6684
58.9043,1.7226
58.9103,1.6125
58.9253,1.6456
58.9268,1.7162
58.9293,1.6825
58.9303,1.7785
58.9303,1.9227
58.9308,1.7554
58.9313,1.7447
58.9313,1.7841
58.9323,1.6549
58.9323,1.5814
58.9333,1.7277
58.9336,1.7063
58.9343,1.6255
58.9353,1.6804
58.9353,1.6229
58.9353,1.6555
58.9363,1.7282
58.9363,1.7399
58.9373,1.7787
58.9373,1.8147
58.9383,1.7725
58.9383,1.7652
58.9445,1.6332
58.9445,1.6154
58.9456,1.5797
58.9456,1.6176
58.9466,1.7222
58.9509,1.7813
58.9509,1.6752
58.9520,1.6641
58.9520,1.6797
58.9579,1.7217
58.9579,1.6988
58.9589,1.6707
58.9589,1.5602
58.9599,1.4873
58.9642,1.489
58.9642,1.6217
58.9652,1.5929
58.9652,1.7102
58.9662,1.7882
58.9712,1.9697
58.9712,1.8653
58.9722,1.7603
58.9722,1.7417
58.9785,1.7522
58.9785,1.7474
58.9795,1.6551
58.9795,1.629
58.9805,1.7363
58.9847,1.6836
58.9854,1.6844
58.9854,1.7119
58.9864,1.7213
58.9918,1.6806
58.9918,1.6746
58.9929,1.6902
58.9929,1.7232
58.9939,1.6793
58.9980,1.7027
58.9989,1.8606
58.9989,1.7927
59.0001,1.7425
59.0051,1.759
59.0051,1.6476
59.0061,1.585
59.0061,1.6862
59.0071,1.7234
59.0114,1.6716
59.0121,1.7125
59.0131,1.6844
59.0131,1.6724
59.0131,1.7252
59.0321,1.738
59.0342,1.6937
59.0372,1.6602
59.0380,1.642
59.0380,1.5557
59.0390,1.7837
59.0390,1.7311
59.0390,1.6609
59.0401,1.6354
59.0401,1.7699
59.0410,1.8899
59.0410,1.8212
59.0420,1.8692
59.0420,1.7862
59.0430,1.7618
59.0430,1.7314
59.0440,1.5248
59.0440,1.5488
59.0450,1.6654
59.0460,1.6982
59.0470,1.624
59.0470,1.6639
59.0525,1.6939
59.0525,1.7194
59.0535,1.8199
59.0535,1.8591
59.0545,1.8012
59.0588,1.7399
59.0596,1.7239
59.0596,1.6774
59.0607,1.714
59.0607,1.7605
59.0656,1.6729
59.0668,1.7192
59.0676,1.7727
59.0686,1.7102
59.0749,1.7348
59.0749,1.7714
59.0759,1.8542
59.0759,1.7867
59.0769,1.7948
59.0812,1.8282
59.0822,1.7421
59.0822,1.7414
59.0822,1.6782
59.0882,1.6007
59.0892,1.6418
59.0892,1.6446
59.0902,1.6688
59.0902,1.642
59.0945,1.7299
59.0955,1.7809
59.0965,1.8752
59.0965,1.8289
59.1018,1.8044
59.1018,1.7924
59.1028,1.6894
59.1028,1.6651
59.1038,1.7236
59.1080,1.7012
59.1080,1.7691
59.1091,1.7999
59.1091,1.8062
59.1102,1.864
59.1150,1.6189
59.1150,1.5604
59.1160,1.6262
59.1160,1.6292
59.1222,1.6035
59.1232,1.5857
59.1232,1.6047
59.1242,1.6531
59.1242,1.6386
59.1314,1.5745
59.1471,1.6133
59.1521,1.8098
59.1521,1.6994
59.1531,1.6859
59.1531,1.6986
59.1541,1.8147
59.1541,1.8128
59.1553,1.7862
59.1553,1.7267
59.1561,1.7132
59.1561,1.7446
59.1572,1.6825
59.1581,1.584
59.1591,1.6909
59.1602,1.738
59.1615,1.825
59.1627,1.6951
59.1631,1.7976
59.1641,1.8706
59.1657,1.9609
59.1661,1.8857
59.1674,1.8094
59.1691,1.7356
59.1701,1.6682
59.1701,1.7772
59.1715,1.6894
59.1721,1.6709
59.1731,1.8169
59.1731,1.8066
59.1741,1.7869
59.1741,1.7247
59.1761,1.6896
59.1761,1.6975
59.1773,1.8197
59.1773,1.8856
59.1833,1.8224
59.1836,1.7504
59.1850,1.7089
59.1856,1.7789
59.1866,1.9343
59.1898,1.8514
59.1898,1.7916
59.1898,1.6832
59.1909,1.8434
59.1970,1.7732
59.1970,1.7644
59.1980,1.8889
59.1980,1.8027
59.1990,1.7014
59.2032,1.6079
59.2032,1.5512
59.2042,1.5497
59.2042,1.4775
59.2052,1.5179
59.2095,1.6054
59.2105,1.6956
59.2105,1.7431
59.2115,1.8175
59.2168,1.9141
59.2178,1.9379
59.2188,1.8638
59.2191,1.6572
59.2191,1.5432
59.2244,1.6062
59.2244,1.6199
59.2255,1.6495
59.2255,1.5608
59.2310,1.5411
59.2310,1.6525
59.2320,1.7942
59.2320,1.8287
59.2330,1.8372
59.2424,1.8464
59.2514,1.7699
59.2547,1.7447
59.2547,1.7629
59.2557,1.7329
59.2557,1.5987
59.2567,1.441
59.2567,1.4772
59.2577,1.5355
59.2577,1.4989
59.2587,1.4987
59.2587,1.8139
59.2587,1.8021
59.2596,1.7284
59.2596,1.7138
59.2606,1.8126
59.2606,1.6973
59.2616,1.6992
59.2655,1.8445
59.2659,1.6958
59.2659,1.6386
59.2669,1.632
59.2680,1.5038
59.2711,1.7311
59.2719,1.7382
59.2719,1.7176
59.2729,1.711
59.2787,1.6894
59.2787,1.7198
59.2797,1.7575
59.2797,1.7408
59.2809,1.669
59.2844,1.5906
59.2853,1.5904
59.2853,1.7468
59.2863,1.7299
59.2916,1.6956
59.2916,1.5117
59.2927,1.4505
59.2927,1.6032
59.2937,1.5465
59.2981,1.6469
59.2981,1.8173
59.2991,1.8167
59.3001,1.7389
59.3001,1.8068
59.3053,1.7738
59.3053,1.8961
59.3064,1.9292
59.3064,1.9926
59.3125,2.1608
59.3125,2.296
59.3134,2.2759
59.3134,2.1627
59.3146,2.1535
59.3189,2.2077
59.3199,2.2129
59.3207,2.2296
59.3207,1.9349
59.3263,1.7106
59.3263,1.6523
59.3273,1.6651
59.3273,1.663
59.3283,1.7125
59.3323,1.7449
59.3334,1.7635
59.3334,1.7256
59.3344,1.7502
59.3398,1.7483
59.3398,1.8119
59.3408,1.7191
59.3408,1.6332
59.3421,1.6547
59.3503,1.5951
59.3666,1.6787
59.3696,1.6992
59.3706,1.684
59.3706,1.7177
59.3715,1.6508
59.3715,1.6718
59.3728,1.7286
59.3728,1.7515
59.3734,1.7517
59.3739,1.7018
59.3739,1.6951
59.3749,1.7918
59.3749,1.6915
59.3760,1.6786
59.3760,1.5439
59.3769,1.5707
59.3769,1.7142
59.3769,1.6099
59.3780,1.6463
59.3780,1.9232
59.3791,1.8467
59.3797,1.9694
59.3801,1.7986
59.3801,1.6581
59.3801,1.7581
59.3811,1.6624
59.3873,1.6362
59.3873,1.7873
59.3883,1.8565
59.3883,1.8184
59.3896,1.8184
59.3936,1.7507
59.3936,1.7965
59.3945,1.9336
59.3945,1.8297
59.3955,1.7789
59.4010,1.7948
59.4018,1.7886
59.4018,1.7504
59.4028,1.4955
59.4076,1.4764
59.4085,1.5593
59.4085,1.6341
59.4095,1.6094
59.4095,1.7221
59.4146,1.8706
59.4146,2.0342
59.4156,1.9547
59.4156,1.9328
59.4213,1.8269
59.4213,1.9435
59.4223,1.9617
59.4223,1.9726
59.4237,1.8404
59.4270,1.7078
59.4280,1.6047
59.4280,1.6786
59.4292,1.6242
59.4346,1.7762
59.4347,1.9244
59.4354,1.8467
59.4354,1.7811
59.4364,1.7916
59.4407,1.7776
59.4407,1.6806
59.4418,1.9081
59.4418,1.8272
59.4428,1.7837
59.4480,1.8021
59.4480,1.7376
59.4480,1.7836
59.4490,1.8745
59.4588,1.8739
59.4730,1.9015
59.4815,1.8773
59.4819,1.8781
59.4819,1.8016
59.4829,1.8338
59.4839,1.8012
59.4849,1.7027
59.4849,1.8368
59.4861,1.8201
59.4861,1.7597
59.4869,1.7301
59.4869,1.8473
59.4879,1.8002
59.4879,1.7149
59.4889,1.7069
59.4889,1.5887
59.4889,1.9141
59.4899,1.9015
59.4899,1.7654
59.4909,1.8983
59.4909,1.9351
59.4919,1.8584
59.4919,1.9898
59.4929,1.9604
59.4929,1.9502
59.4929,1.8325
59.4939,1.7341
59.4949,1.7927
59.4949,1.8524
59.4959,1.8351
59.4959,1.9711
59.5020,1.8884
59.5031,1.834
59.5031,1.7802
59.5031,1.7821
59.5041,1.7999
59.5092,1.8541
59.5092,1.8972
59.5102,1.9354
59.5102,2.0131
59.5158,2.0031
59.5168,2.0224
59.5175,2.0095
59.5175,2.083
59.5185,2.086
59.5225,1.8214
59.5225,1.8677
59.5235,1.8706
59.5235,1.8685
59.5294,1.9499
59.5294,1.9577
59.5304,2.0179
59.5304,2.044
59.5314,1.9386
59.5354,1.9223
59.5354,1.9049
59.5365,1.9073
59.5365,1.7991
59.5375,2.0132
59.5424,2.1576
59.5424,2.0459
59.5435,2.0847
59.5435,2.0674
59.5497,1.9767
59.5497,1.8254
59.5507,1.7506
59.5507,1.8902
59.5517,1.9977
59.5561,2.0944
59.5572,2.1209
59.5572,2.1601
59.5572,2.0766
59.5631,1.9829
59.5631,2.0277
59.5651,1.9844
59.5831,1.9754
59.5861,1.8799
59.5861,1.8406
59.5871,1.7371
59.5871,1.9332
59.5881,1.9476
59.5881,1.9626
59.5890,1.9547
59.5890,1.8944
59.5890,1.9011
59.5900,1.8267
59.5900,1.9118
59.5910,1.8287
59.5910,1.8346
59.5920,1.8152
59.5920,1.8349
59.5930,1.8586
59.5930,1.8404
59.5940,1.7972
59.5940,1.7759
59.5972,1.7897
59.5981,1.924
59.5981,2.0543
59.5991,1.8334
59.5991,1.7116
59.6032,1.6688
59.6043,1.6947
59.6043,1.8537
59.6053,1.8811
59.6105,1.801
59.6105,1.7528
59.6117,1.9277
59.6125,1.9576
59.6146,1.9718
59.6168,1.8891
59.6185,1.8979
59.6195,1.8737
59.6205,1.8621
59.6235,1.8422
59.6245,1.7438
59.6255,1.7584
59.6265,1.7243
59.6275,1.7989
59.6305,1.7346
59.6313,1.7213
59.6313,1.9002
59.6313,1.9512
59.6323,1.8747
59.6372,1.9326
59.6372,1.9519
59.6383,1.8826
59.6383,1.7571
59.6443,1.8666
59.6453,1.8994
59.6453,1.8002
59.6453,1.6919
59.6463,1.801
59.6510,1.8544
59.6520,1.7789
59.6520,1.8533
59.6520,1.8764
59.6581,1.831
59.6581,1.8571
59.6591,1.9508
59.6601,1.9921
59.6601,1.8175
59.6642,1.8631
59.6651,1.9111
59.6651,1.8953
59.6661,1.9146
59.6713,1.9699
59.6713,1.9596
59.6723,1.9195
59.6723,1.8188
59.6733,1.7389
59.6815,1.7314
59.7003,1.657
59.7042,1.9009
59.7053,1.8919
59.7062,1.8514
59.7072,1.8379
59.7072,1.9379
59.7082,1.9157
59.7082,2.0502
59.7092,1.9855
59.7092,1.8038
59.7102,1.8786
59.7102,1.9534
59.7102,1.8346
59.7112,1.762
59.7112,1.7511
59.7122,1.7717
59.7122,1.8721
59.7132,1.8886
59.7132,1.9624
59.7152,1.8979
59.7152,1.7834
59.7162,1.8396
59.7172,1.9377
59.7184,2.0281
59.7192,1.9981
59.7202,1.9628
59.7213,1.9624
59.7213,2.0616
59.7221,1.9934
59.7221,1.9079
59.7231,1.7991
59.7251,1.9037
59.7251,1.8612
59.7261,1.8706
59.7261,1.8751
59.7271,1.8301
59.7321,1.8921
59.7321,2.0089
59.7331,2.0596
59.7341,1.9294
59.7391,1.8728
59.7391,1.8647
59.7401,1.936
59.7401,1.8981
59.7411,1.9172
59.7451,1.9568
59.7461,1.8722
59.7461,1.8244
59.7471,1.7987
59.7527,1.9645
59.7537,1.936
59.7537,1.9836
59.7547,1.9692
59.7547,1.9467
59.7587,2.0014
59.7597,2.0378
59.7607,2.0419
59.7607,1.9637
59.7656,1.8366
59.7656,1.8766
59.7666,1.9146
59.7666,1.8992
59.7677,1.9469
59.7727,1.9682
59.7956,1.9444
59.7966,1.8436
59.8016,1.7852
59.8026,1.7744
59.8026,2.0174
59.8036,2.0176
59.8036,2.0485
59.8036,2.0847
59.8046,1.9988
59.8046,1.9889
59.8056,1.9579
59.8056,1.9096
59.8066,1.9206
59.8066,1.8242
59.8066,1.8985
59.8076,2.0078
59.8076,2.0733
59.8086,1.9864
59.8086,1.9643
59.8096,1.9562
59.8096,1.966
59.8106,1.9276
59.8106,1.9407
59.8116,2.101
59.8116,1.9844
59.8116,1.8745
59.8151,1.8321
59.8157,1.9457
59.8171,1.8179
59.8176,1.8893
59.8186,1.9122
59.8213,2.0976
59.8213,2.0209
59.8224,1.9369
59.8224,2.1207
59.8234,2.1471
59.8283,2.1228
59.8283,1.9853
59.8294,2.1987
59.8294,2.0489
59.8356,2.0689
59.8363,2.1799
59.8363,2.1426
59.8363,2.0427
59.8373,1.9568
59.8423,1.9362
59.8423,1.9502
59.8433,1.9782
59.8433,1.9465
59.8489,1.9502
59.8499,1.9587
59.8502,1.8782
59.8509,1.9532
59.8509,1.8424
59.8552,1.8826
59.8560,1.9945
59.8560,2.0297
59.8570,1.9442
59.8625,1.9699
59.8631,1.921
59.8631,1.9289
59.8641,1.8925
59.8641,1.9459
59.8685,1.9516
59.8695,1.9489
59.8695,1.9517
59.8705,1.9936
59.8705,2.11
59.8755,2.0549
59.8765,2.0592
59.8765,2.1303
59.8765,2.1681
59.8833,2.0142
59.8839,1.843
59.8839,1.8571
59.8848,1.8392
59.8848,1.9516
59.8892,1.9634
59.8901,1.9454
59.8901,1.9251
59.8911,1.9225
59.8980,1.9733
59.9100,1.8614
59.9130,1.99
59.9140,2.0159
59.9140,1.9216
59.9150,1.9842
59.9150,2.0594
59.9160,2.0134
59.9170,1.9658
59.9180,2.0052
59.9180,1.9613
59.9180,1.9474
59.9190,1.9399
59.9190,1.9864
59.9200,2.0187
59.9200,1.972
59.9210,2.0273
59.9210,1.9144
59.9220,1.969
59.9230,1.9964
59.9240,1.9026
59.9240,1.9099
59.9250,1.8518
59.9303,1.8276
59.9313,1.8856
59.9313,1.8556
59.9323,1.8949
59.9323,1.9471
59.9369,1.8777
59.9380,2.0215
59.9380,1.9829
59.9380,1.9658
59.9445,1.9189
59.9445,1.9369
59.9455,1.939
59.9455,1.9701
59.9465,1.951
59.9504,2.0761
59.9511,2.0189
59.9511,1.7149
59.9521,1.7982
59.9578,1.8332
59.9587,2.0187
59.9587,2.1126
59.9597,2.0768
59.9597,2.1321
59.9642,2.2555
59.9642,2.3328
59.9652,2.3271
59.9652,2.3367
59.9662,2.3056
59.9714,2.3671
59.9716,2.3746
59.9724,2.4244
59.9724,2.4929
59.9785,2.4989
59.9785,2.4336
59.9795,2.3729
59.9795,2.1213
59.9805,2.0918
59.9850,2.0312
59.9860,2.0039
59.9860,1.8621
59.9870,1.9302
59.9926,1.9502
59.9926,1.9546
59.9936,1.9881
59.9936,1.9744
59.9946,1.9354
59.9982,2.0787
59.9982,2.0399
59.9992,1.9157
59.9992,2.0224
60.0063,1.7434
60.0208,1.7543
60.0221,1.8509
60.0250,1.8629
60.0250,2.0485
60.0260,2.1153
60.0260,2.0718
60.0273,2.0354
60.0273,1.9776
60.0273,2.041
60.0283,2.1888
60.0283,1.9937
60.0293,1.9607
60.0293,1.9086
60.0303,1.9178
60.0303,1.8801
60.0313,1.9047
60.0313,1.9054
60.0313,2.047
60.0323,2.0853
60.0323,2.1169
60.0338,2.1404
60.0353,1.9913
60.0393,1.9804
60.0393,2.0142
60.0404,2.0185
60.0404,1.981
60.0414,1.9247
60.0460,1.9817
60.0470,2.0249
60.0470,2.0144
60.0470,2.0363
60.0532,2.0989
60.0532,2.2514
60.0542,2.1113
60.0542,2.1115
60.0552,2.0826
60.0595,2.1563
60.0649,2.0556
60.0649,1.9056
60.0658,1.9231
60.0663,2.0087
60.0668,2.1117
60.0678,2.0311
60.0678,1.9641
60.0688,2.0888
60.0734,2.2152
60.0734,2.1454
60.0745,2.1588
60.0745,2.131
60.0755,2.1038
60.0796,2.0716
60.0804,2.05
60.0804,2.0108
60.0814,1.9868
60.0870,2.0041
60.0870,1.9276
60.0880,1.8265
60.0880,1.9806
60.0890,2.0991
60.0932,2.1964
60.0940,2.206
60.0940,2.1453
60.0952,2.0494
60.1007,2.0571
60.1007,2.0515
60.1017,2.0487
60.1017,1.9298
60.1027,1.9403
60.1068,1.9527
60.1078,2.0232
60.1078,2.1539
60.1088,2.1732
60.1088,2.1593
60.1277,2.1584
60.1307,2.1297
60.1317,2.1715
60.1317,2.122
60.1328,2.0928
60.1338,2.1096
60.1338,2.0641
60.1348,2.0106
60.1348,1.924
60.1358,1.8407
60.1358,1.8874
60.1358,1.9111
60.1367,1.9469
60.1367,2.0703
60.1377,2.3502
60.1377,2.3794
60.1387,2.1841
60.1387,2.1544
60.1408,2.1256
60.1420,2.0616
60.1420,2.0228
60.1428,2.0461
60.1480,2.0609
60.1480,1.9362
60.1490,1.9527
60.1500,1.9386
60.1500,1.9253
60.1542,2.1499
60.1550,2.1145
60.1550,2.1355
60.1560,2.1462
60.1560,2.1019
60.1610,2.1023
60.1610,2.0956
60.1620,2.0896
60.1620,2.2193
60.1684,2.2379
60.1693,2.2283
60.1693,2.1713
60.1693,2.1016
60.1703,2.1916
60.1746,2.2293
60.1753,2.2148
60.1753,2.2765
60.1763,2.338
60.1819,2.323
60.1824,2.287
60.1835,2.317
60.1835,2.2131
60.1845,2.1222
60.1880,2.1766
60.1887,2.2083
60.1887,2.1927
60.1897,2.2534
60.1953,2.1764
60.1959,2.2094
60.1959,2.2587
60.1969,2.2493
60.1969,2.236
60.2013,2.158
60.2013,2.1394
60.2025,2.0843
60.2034,2.0551
60.2034,2.1745
60.2083,2.14
60.2093,2.1974
60.2093,2.1438
60.2093,2.0909
60.2158,2.2274
60.2165,2.1244
60.2165,2.1149
60.2227,2.1046
60.2357,2.0763
60.2387,2.1258
60.2397,2.1036
60.2397,2.0757
60.2397,1.9859
60.2407,1.9589
60.2407,2.0337
60.2417,2.116
60.2417,2.1561
60.2427,2.1222
60.2427,2.113
60.2437,2.1199
60.2437,2.1657
60.2437,2.1374
60.2447,2.2313
60.2447,2.2069
60.2457,2.1228
60.2457,2.1323
60.2467,2.1792
60.2493,2.2191
60.2497,2.0432
60.2507,2.1299
60.2507,2.1012
60.2517,2.0125
60.2556,2.0414
60.2566,2.0131
60.2566,2.0618
60.2566,2.0391
60.2629,2.0286
60.2639,2.047
60.2639,1.9429
60.2650,1.8863
60.2659,1.8604
60.2694,1.9075
60.2699,1.8897
60.2699,1.8929
60.2709,1.9499
60.2766,1.9924
60.2766,2.0356
60.2776,1.9894
60.2776,1.9619
60.2786,1.9587
60.2835,2.1689
60.2839,2.2098
60.2849,2.2454
60.2849,2.1261
60.2901,2.0279
60.2901,1.9056
60.2912,1.9673
60.2912,2.0864
60.2922,2.0648
60.2966,1.9937
60.2974,2.0408
60.2974,2.0534
60.2984,2.1513
60.2984,2.1334
60.3034,2.1468
60.3034,2.1591
60.3044,2.0648
60.3044,1.9739
60.3108,1.9446
60.3108,1.7959
60.3120,1.93
60.3129,1.9358
60.3129,1.9142
60.3168,1.8865
60.3181,1.8872
60.3181,1.9366
60.3181,1.8164
60.3238,2.0626
60.3238,2.0149
60.3249,2.0155
60.3249,2.014
60.3259,2.0149
60.3330,2.056
60.3463,2.227
60.3502,2.1786
60.3508,2.0924
60.3512,2.0988
60.3512,2.0684
60.3522,1.9754
60.3522,1.9722
60.3532,2.0928
60.3532,2.1576
60.3542,2.1449
60.3542,2.0869
60.3552,1.978
60.3552,1.8902
60.3552,2.0012
60.3564,1.993
60.3564,2.0191
60.3574,2.0423
60.3574,2.0905
60.3584,2.095
60.3584,2.1042
60.3594,2.0811
60.3596,2.0819
60.3645,2.0217
60.3655,1.9924
60.3655,2.0311
60.3665,1.9523
60.3713,1.9752
60.3721,2.0256
60.3721,2.0153
60.3734,1.9581
60.3734,1.9562
60.3777,1.8402
60.3787,1.5162
60.3787,1.8248
60.3798,1.8964
60.3840,2.0995
60.3850,2.3189
60.3860,2.2774
60.3860,2.1348
60.3860,2.1261
60.3915,2.1901
60.3915,2.0562
60.3925,2.0969
60.3925,2.0854
60.3935,2.1158
60.3978,2.0361
60.3988,2.0266
60.3988,2.0393
60.3997,2.0626
60.4053,2.0757
60.4063,2.0408
60.4075,2.0204
60.4075,1.9727
60.4084,1.9564
60.4119,1.9975
60.4119,1.9975
60.4129,2.1151
60.4129,2.1154
60.4188,2.0654
60.4198,1.8912
60.4198,1.8957
60.4198,1.8829
60.4208,1.8715
60.4253,1.9619
60.4263,1.9722
60.4263,1.9643
60.4263,1.9776
60.4325,1.912
60.4332,2.1171
60.4335,2.2714
60.4335,2.1494
60.4347,2.1678
60.4400,1.9737
60.4562,1.9988
60.4594,2.0125
60.4594,2.0136
60.4604,2.0618
60.4604,2.0506
60.4604,2.0991
60.4614,2.1306
60.4614,2.0596
60.4624,2.0082
60.4624,2.1426
60.4637,2.0988
60.4637,2.0809
60.4637,2.0442
60.4647,2.0613
60.4647,2.0404
60.4657,2.0269
60.4657,1.9287
60.4668,1.9671
60.4677,1.9411
60.4677,1.9384
60.4687,1.9774
60.4687,1.9879
60.4725,2.0056
60.4735,2.0838
60.4735,2.0086
60.4735,2.0232
60.4798,1.9384
60.4851,1.8295
60.4861,2.089
60.4861,2.0543
60.4871,2.0509
60.4871,2.0943
60.4881,2.0273
60.4881,2.2212
60.4891,2.2399
60.4891,2.1458
60.4931,2.1379
60.4931,2.1117
60.4931,2.1919
60.4941,2.2589
60.5004,2.2321
60.5005,2.1835
60.5014,2.1201
60.5014,2.0843
60.5024,2.0539
60.5065,2.0386
60.5075,2.0485
60.5075,2.0387
60.5075,2.0508
60.5137,2.0886
60.5137,2.1123
60.5147,2.1835
60.5147,2.0974
60.5158,2.0588
60.5201,1.9829
60.5201,1.8876
60.5211,1.7935
60.5211,1.8576
60.5287,1.9684
60.5293,1.831
60.5293,1.8406
60.5303,1.8925
60.5303,2.0988
60.5352,2.1016
60.5352,2.1906
60.5362,2.2278
60.5362,2.1458
60.5372,2.1201
60.5422,2.0307
60.5422,2.0791
60.5432,2.0963
60.5432,2.0067
60.5512,2.0487
60.5641,2.0132
60.5681,1.9917
60.5681,1.9954
60.5692,2.0224
60.5692,2.0633
60.5702,2.0361
60.5702,2.0759
60.5702,2.0151
60.5712,2.0063
60.5712,1.9204
60.5722,1.9396
60.5722,1.9937
60.5732,1.9907
60.5732,1.9696
60.5741,2.0024
60.5741,2.0569
60.5751,2.0236
60.5761,1.9377
60.5761,1.9591
60.5771,1.9133
60.5771,1.9112
60.5781,1.8621
60.5835,1.8552
60.5848,1.9064
60.5848,1.8012
60.5858,1.7502
60.5858,1.6996
60.5898,1.9677
60.5898,2.2313
60.5908,2.1633
60.5908,2.1648
60.5970,2.1597
60.5970,2.1972
60.5981,2.1498
60.5981,2.0654
60.5991,2.032
60.6033,2.0605
60.6043,2.0568
60.6043,2.0496
60.6043,1.9619
60.6099,1.8966
60.6107,1.9411
60.6117,1.8891
60.6117,1.9591
60.6117,1.9056
60.6168,1.9204
60.6178,1.8886
60.6178,1.8882
60.6188,1.9225
60.6240,1.9523
60.6240,1.9936
60.6252,1.9859
60.6260,1.9581
60.6260,1.9307
60.6305,1.9577
60.6305,2.044
60.6315,2.2167
60.6315,2.3215
60.6325,2.2521
60.6375,2.2171
60.6375,2.1807
60.6385,2.2264
60.6385,2.0292
60.6452,2.3721
60.6452,2.4378
60.6460,2.4965
60.6460,2.5201
60.6470,2.5904
60.6556,2.4379
60.6697,2.2915
60.6720,2.3258
60.6734,2.2536
60.6740,2.2109
60.6740,2.1619
60.6750,2.1511
60.6750,2.0626
60.6760,1.9855
60.6760,1.8364
60.6770,1.8149
60.6770,1.8452
60.6770,1.939
60.6780,1.9285
60.6780,1.9204
60.6793,1.9534
60.6793,2.0277
60.6793,2.0873
60.6803,2.0706
60.6803,2.1038
60.6813,1.9904
60.6823,1.9199
60.6834,1.8674
60.6852,1.876
60.6852,1.9034
60.6862,1.867
60.6872,1.9122
60.6916,1.9367
60.6926,1.9791
60.6926,1.9952
60.6936,1.9321
60.6936,1.954
60.6981,1.9699
60.6989,1.9152
60.6989,1.8844
60.6999,1.7419
60.7054,1.7464
60.7054,1.6521
60.7064,1.5848
60.7064,1.9028
60.7075,2.2309
60.7118,2.2201
60.7131,2.1033
60.7138,2.1325
60.7138,2.1661
60.7185,2.2308
60.7185,2.1891
60.7195,2.1246
60.7195,2.1366
60.7205,2.0939
60.7251,1.9939
60.7251,1.9802
60.7262,1.99
60.7262,1.9994
60.7271,1.9662
60.7324,1.9647
60.7324,1.984
60.7333,2.029
60.7333,1.9812
60.7398,1.9666
60.7398,1.9996
60.7409,1.9971
60.7409,1.948
60.7418,1.939
60.7459,1.9446
60.7459,1.9857
60.7469,1.972
60.7469,1.9952
60.7531,1.9823
60.7531,2.1413
60.7541,2.0763
60.7541,2.0181
60.7551,1.9675
60.7646,1.8874
60.7786,1.9135
60.7821,1.9296
60.7821,1.7102
60.7828,1.6812
60.7838,1.5795
60.7848,1.419
60.7848,1.6204
60.7860,2.0509
60.7867,2.2849
60.7871,2.2259
60.7871,2.1205
60.7871,2.1196
60.7881,2.0365
60.7881,2.0087
60.7891,2.2143
60.7891,2.2347
60.7901,2.1276
60.7910,1.9763
60.7910,1.9868
60.7920,2.0571
60.7923,2.0476
60.7929,1.9527
60.7933,1.9279
60.7933,2.0226
60.7942,2.1059
60.7942,2.1224
60.7998,2.1661
60.8008,2.0579
60.8018,2.0134
60.8018,1.963
60.8028,1.9388
60.8065,1.9988
60.8075,2.0798
60.8075,1.9712
60.8075,1.9712
60.8137,1.9311
60.8137,1.9469
60.8150,1.8471
60.8150,1.882
60.8150,1.9139
60.8203,1.921
60.8203,1.8829
60.8215,1.8902
60.8215,1.9296
60.8223,1.9754
60.8266,1.9036
60.8276,1.9682
60.8276,1.9281
60.8286,1.9184
60.8343,2.0656
60.8343,2.1426
60.8354,2.0224
60.8354,2.1042
60.8370,2.2195
60.8406,2.089
60.8416,2.0001
60.8416,2.0708
60.8416,2.0635
60.8481,2.1136
60.8481,2.0815
60.8491,2.0318
60.8491,2.0779
60.8501,2.0701
60.8541,2.0371
60.8541,2.0281
60.8551,2.0487
60.8551,2.1361
60.8614,2.0487
60.8614,1.9778
60.8624,1.9973
60.8624,1.9476
60.8634,1.8906
60.8678,1.9787
60.8751,1.9967
60.8868,2.0761
60.8893,2.1169
60.8902,2.1636
60.8902,2.1897
60.8912,2.0324
60.8912,1.9977
60.8922,2.1004
60.8922,2.0031
60.8922,2.0414
60.8935,2.0682
60.8935,2.002
60.8945,1.9313
60.8945,1.9842
60.8955,2.0813
60.8955,2.1462
60.8955,2.0551
60.8965,2.1693
60.8965,2.1402
60.8975,2.0594
60.8975,1.957
60.8986,1.9797
60.9019,1.8773
60.9028,1.7901
60.9028,2.0729
60.9040,2.0485
60.9090,1.9156
60.9093,1.8706
60.9103,1.9189
60.9103,1.9101
60.9113,1.9161
60.9148,2.0451
60.9159,1.9276
60.9159,2.0673
60.9168,1.9309
60.9178,1.9952
60.9220,1.9791
60.9230,1.9486
60.9230,1.9266
60.9230,1.7464
60.9299,1.8929
60.9299,1.7356
60.9309,1.7286
60.9309,1.7303
60.9322,1.9165
60.9360,1.9712
60.9371,1.8848
60.9371,1.993
60.9371,1.9246
60.9435,1.8722
60.9435,1.8886
60.9446,1.8878
60.9446,1.7074
60.9455,1.7007
60.9493,1.759
60.9493,1.927
60.9503,1.9615
60.9503,1.9463
60.9565,1.9394
60.9565,1.9234
60.9575,1.9414
60.9575,2.0509
60.9585,2.1019
60.9630,1.9276
60.9640,1.8561
60.9640,1.9144
60.9650,1.9118
60.9650,1.7789
60.9692,1.8278
60.9702,1.795
60.9702,1.8376
60.9712,1.9238
60.9778,2.011
60.9830,2.0616
60.9954,2.0086
60.9985,1.9103
60.9994,1.8158
60.9999,1.8023
61.0004,1.8109
61.0004,1.8349
61.0016,1.7005
61.0016,1.7228
61.0027,1.8181
61.0027,1.8216
61.0036,1.7916
61.0036,1.8719
61.0046,1.8917
61.0046,2.011
61.0046,1.9212
61.0056,1.8087
61.0056,1.7894
61.0068,1.6607
61.0068,1.7305
61.0068,1.8514
61.0079,1.957
61.0104,1.9011
61.0104,1.8846
61.0114,1.8267
61.0114,1.6637
61.0125,1.6999
61.0175,1.7978
61.0188,1.8436
61.0188,1.87
61.0198,1.9801
61.0246,2.0059
61.0254,1.9058
61.0254,1.8872
61.0264,1.8709
61.0264,1.9161
61.0312,1.8212
61.0322,1.8422
61.0322,1.9838
61.0332,1.9339
61.0383,1.8119
61.0393,2.0061
61.0394,1.9622
61.0403,1.9109
61.0403,1.6947
61.0447,1.6791
61.0447,1.7556
61.0457,1.9109
61.0457,1.7337
61.0521,1.7489
61.0522,1.8239
61.0532,1.714
61.0532,1.7267
61.0532,1.8726
61.0580,1.9043
61.0580,1.9463
61.0590,1.9844
61.0590,1.9313
61.0600,1.9381
61.0652,1.9114
61.0652,1.8565
61.0663,1.9411
61.0664,1.8574
61.0725,1.8466
61.0725,1.9156
61.0735,1.8711
61.0735,1.6919
61.0748,1.7072
61.0788,1.8422
61.0801,1.8466
61.0801,1.8992
61.0811,1.9287
61.0855,1.7956
61.0865,1.6958
61.1039,1.6544
61.1069,1.6476
61.1081,1.7892
61.1081,1.8751
61.1089,1.9129
61.1089,1.9658
61.1098,1.9439
61.1098,1.8325
61.1108,1.8683
61.1108,1.9133
61.1118,1.8625
61.1118,1.8346
61.1128,1.885
61.1128,1.8721
61.1128,1.8475
61.1141,1.678
61.1141,1.654
61.1151,1.6997
61.1151,1.762
61.1161,1.7509
61.1170,1.7367
61.1205,1.8792
61.1205,1.9272
61.1215,1.8467
61.1215,1.8312
61.1225,1.8122
61.1265,1.7438
61.1275,1.7905
61.1275,1.7661
61.1275,1.828
61.1334,1.8679
61.1344,1.8709
61.1344,1.8482
61.1356,1.8908
61.1365,1.8522
61.1406,1.8749
61.1409,1.8949
61.1409,1.9416
61.1420,1.8794
61.1473,1.7806
61.1473,1.8432
61.1483,1.7125
61.1483,1.6936
61.1493,1.7702
61.1534,1.7579
61.1534,1.8102
61.1544,1.8501
61.1544,1.7746
61.1554,1.7901
61.1607,1.7967
61.1607,1.8574
61.1607,1.9002
61.1617,1.792
61.1675,1.7813
61.1684,1.8025
61.1684,1.7616
61.1694,1.7564
61.1696,1.8057
61.1749,1.8589
61.1749,1.8904
61.1760,1.7521
61.1760,1.8252
61.1813,1.9615
61.1813,1.7774
61.1823,1.8025
61.1830,1.8374
61.1832,1.7954
61.1877,1.6641
61.1877,1.7155
61.1888,1.8584
61.1888,1.8083
61.1948,1.7489
61.1948,1.8492
61.2050,1.9885
61.2142,1.8736
61.2175,1.8143
61.2185,1.8616
61.2185,1.9666
61.2195,1.9195
61.2195,1.7479
61.2205,1.8625
61.2205,1.8846
61.2205,1.8938
61.2217,1.8449
61.2217,1.8259
61.2228,1.786
61.2228,1.7344
61.2237,1.8844
61.2237,1.6941
61.2237,1.7779
61.2247,1.8366
61.2247,1.9084
61.2257,1.9004
61.2257,1.8267
61.2292,1.8529
61.2292,1.7099
61.2302,1.6814
61.2302,1.7322
61.2312,1.7811
61.2354,1.708
61.2364,1.7438
61.2364,1.8203
61.2364,1.8816
61.2422,1.9343
61.2422,1.8406
61.2432,1.8177
61.2432,1.8882
61.2445,1.8627
61.2488,1.7879
61.2498,1.7605
61.2510,1.8194
61.2510,1.7496
61.2518,1.7314
61.2560,1.792
61.2560,1.7847
61.2570,1.7826
61.2570,1.7931
61.2651,1.7562
61.2651,1.7048
61.2666,1.7102
61.2666,1.8136
61.2677,1.7821
61.2715,1.7716
61.2715,1.7029
61.2728,1.8657
61.2728,1.9157
61.2783,1.8518
61.2783,1.7202
61.2793,1.7335
61.2793,1.7536
61.2803,1.6984
61.2848,1.7431
61.2848,1.7322
61.2858,1.6988
61.2858,1.7044
61.2920,1.6892
61.2920,1.6667
61.2930,1.7494
61.2930,1.7221
61.2940,1.8254
61.2984,1.8966
61.2984,1.846
61.2997,1.7656
61.3004,1.6812
61.3004,1.6525
61.3221,1.6403
61.3251,1.63
61.3251,1.7119
61.3261,1.7243
61.3261,1.6274
61.3271,1.5906
61.3271,1.5893
61.3280,1.6804
61.3280,1.7387
61.3293,1.7967
61.3293,1.6879
61.3293,1.6566
61.3304,1.9139
61.3304,1.6881
61.3314,1.507
61.3314,1.5715
61.3324,1.6011
61.3324,1.6829
61.3333,1.7611
61.3333,1.7691
61.3343,1.7905
61.3343,1.8601
61.3395,1.945
61.3395,1.8436
61.3405,1.8077
61.3405,1.7738
61.3418,1.8882
61.3458,2.0986
61.3468,2.218
61.3468,2.3901
61.3478,2.314
61.3481,2.3022
61.3531,2.3935
61.3531,2.404
61.3541,2.2493
61.3543,2.2324
61.3599,1.9892
61.3599,1.9019
61.3609,1.7652
61.3609,1.6969
61.3619,1.7926
61.3664,1.7798
61.3673,1.7817
61.3673,1.632
61.3683,1.7311
61.3734,1.7483
61.3734,1.7129
61.3745,1.7041
61.3745,1.7127
61.3755,1.8839
61.3797,1.9201
61.3808,1.8376
61.3808,1.7537
61.3818,1.6587
61.3871,1.7254
61.3871,1.6236
61.3881,1.6553
61.3881,1.6894
61.3893,1.6371
61.3934,1.6347
61.3934,1.7155
61.3948,1.6339
61.3948,1.6411
61.3958,1.753
61.3997,1.7237
61.4010,1.6217
61.4010,1.6092
61.4010,1.6125
61.4075,1.7378
61.4075,1.7245
61.4085,1.6542
61.4085,1.6656
61.4095,1.744
61.4185,1.7086
61.4315,1.7847
61.4355,1.6666
61.4355,1.8713
61.4365,1.7667
61.4365,1.7663
61.4365,1.7125
61.4375,1.6441
61.4375,1.7459
61.4385,1.7652
61.4385,1.7237
61.4397,1.6311
61.4397,1.6757
61.4407,1.7346
61.4407,1.7969
61.4407,1.8556
61.4417,1.9017
61.4417,1.8102
61.4427,1.7626
61.4427,1.7695
61.4437,1.7657
61.4437,1.759
61.4447,1.7341
61.4479,1.6422
61.4479,1.7318
61.4479,1.7177
61.4489,1.7314
61.4551,1.735
61.4551,1.7206
61.4561,1.7569
61.4561,1.795
61.4571,1.8151
61.4614,1.8501
61.4624,1.7671
61.4624,1.6793
61.4624,1.5955
61.4684,1.6114
61.4684,1.5252
61.4694,1.5608
61.4694,1.6407
61.4704,1.7717
61.4747,1.711
61.4759,1.7652
61.4767,1.7438
61.4767,1.7348
61.4816,1.7271
61.4816,1.8216
61.4826,1.7731
61.4831,1.6917
61.4836,1.7393
61.4882,1.7526
61.4935,1.6801
61.4935,1.7387
61.4945,1.7614
61.4945,1.759
61.4955,1.882
61.4955,1.9062
61.4955,1.8906
61.4965,1.8983
61.5024,1.8366
61.5024,1.7204
61.5034,1.705
61.5034,1.6
61.5047,1.6137
61.5090,1.7174
61.5090,1.7239
61.5102,1.708
61.5102,1.6969
61.5157,1.7131
61.5157,1.7436
61.5167,1.7496
61.5167,1.7854
61.5177,1.7867
61.5243,1.7483
61.5405,1.6577
61.5437,1.5906
61.5437,1.6472
61.5445,1.5974
61.5445,1.7796
61.5454,1.8887
61.5454,1.8199
61.5464,1.8147
61.5464,1.9397
61.5474,1.8651
61.5474,1.7466
61.5474,1.7357
61.5484,1.7991
61.5484,1.7974
61.5499,1.6431
61.5507,1.7097
61.5507,1.6654
61.5507,1.6902
61.5517,1.7588
61.5517,1.6964
61.5529,1.6921
61.5529,1.7633
61.5561,1.8891
61.5571,1.7942
61.5571,1.6442
61.5581,1.8415
61.5633,1.7824
61.5633,1.645
61.5643,1.8186
61.5643,1.8608
61.5653,1.8891
61.5694,1.9403
61.5703,1.9414
61.5703,1.8728
61.5703,1.888
61.5762,1.933
61.5782,1.9246
61.5792,1.8912
61.5808,1.8154
61.5821,1.8916
61.5832,1.8621
61.5842,1.7736
61.5852,1.7817
61.5862,1.7616
61.5882,1.7485
61.5902,1.7125
61.5912,1.7886
61.5932,1.7166
61.5942,1.8574
61.5972,1.8259
61.5982,1.7974
61.5992,1.9152
61.6002,1.8749
61.6012,1.8846
61.6032,1.7419
61.6042,1.7084
61.6052,1.7867
61.6063,1.7382
61.6105,1.7723
61.6111,1.6996
61.6111,1.7039
61.6121,1.8038
61.6131,1.8177
61.6171,1.8205
61.6181,1.8196
61.6181,1.7121
61.6191,1.6718
61.6231,1.6921
61.6241,1.6904
61.6251,1.7117
61.6251,1.6849
61.6261,1.6546
61.6301,1.6474
61.6311,1.6967
61.6311,1.576
61.6322,1.6005
61.6322,1.5634
61.6375,1.6332
61.6381,1.7562
61.6391,1.6851
61.6401,1.7884
61.6443,1.7213
61.6453,1.6774
61.6453,1.6092
61.6463,1.5518
61.6463,1.5137
61.6575,1.551
61.6654,1.6332
61.6684,1.8377
61.6694,1.8107
61.6694,1.6692
61.6707,1.6879
61.6707,1.7084
61.6717,1.6737
61.6717,1.7648
61.6717,1.7772
61.6727,1.7022
61.6727,1.6472
61.6737,1.6369
61.6737,1.6238
61.6747,1.6531
61.6747,1.6954
61.6758,1.7545
61.6759,1.7614
61.6782,1.774
61.6789,1.6864
61.6799,1.5944
61.6799,1.5614
61.6809,1.5619
61.6851,1.5636
61.6851,1.5557
61.6862,1.486
61.6862,1.458
61.6918,1.3435
61.6931,1.3575
61.6941,1.7239
61.6941,1.9172
61.6951,1.7564
61.6983,1.8059
61.6993,1.8376
61.7003,1.6857
61.7013,1.6697
61.7056,1.5218
61.7065,1.5102
61.7075,1.6919
61.7075,1.7789
61.7075,1.8846
61.7119,1.8349
61.7129,1.6559
61.7129,1.6662
61.7139,1.7566
61.7194,1.6741
61.7194,1.6658
61.7204,1.6508
61.7204,1.6576
61.7214,1.63
61.7259,1.5726
61.7259,1.6375
61.7271,1.5709
61.7271,1.5518
61.7282,1.5285
61.7330,1.6335
61.7334,1.6769
61.7345,1.6583
61.7345,1.7267
61.7401,1.6962
61.7409,1.617
61.7409,1.4204
61.7420,1.2992
61.7420,1.2786
61.7464,1.2664
61.7464,1.4918
61.7474,1.8754
61.7474,1.9551
61.7538,1.7312
61.7539,1.6778
61.7539,1.7717
61.7550,1.7571
61.7550,1.8509
61.7597,1.8042
61.7607,1.6836
61.7607,1.605
61.7607,1.7041
61.7671,1.6546
61.7671,1.6834
61.7682,1.5584
61.7682,1.611
61.7692,1.6274
61.7777,1.6531
61.7909,1.6774
61.7939,1.6932
61.7939,1.624
61.7948,1.6705
61.7948,1.6519
61.7958,1.584
61.7958,1.4579
61.7968,1.5145
61.7968,1.4819
61.7978,1.5707
61.7978,1.6801
61.7978,1.6469
61.7988,1.8606
61.7988,1.9264
61.8001,1.7727
61.8010,1.6234
61.8010,1.6859
61.8010,1.7041
61.8021,1.488
61.8021,1.4661
61.8032,1.4987
61.8032,1.5615
61.8076,1.5737
61.8076,1.5962
61.8086,1.6765
61.8086,1.7453
61.8149,1.6649
61.8149,1.6626
61.8162,1.6954
61.8163,1.6606
61.8172,1.6313
61.8211,1.6208
61.8211,1.66
61.8224,1.666
61.8224,1.6647
61.8224,1.6082
61.8276,1.5242
61.8287,1.605
61.8287,1.5357
61.8287,1.5375
61.8353,1.5385
61.8362,1.4691
61.8362,1.5469
61.8362,1.4715
61.8372,1.6606
61.8419,1.6731
61.8429,1.7286
61.8429,1.6844
61.8429,1.6335
61.8494,1.7219
61.8496,1.7153
61.8507,1.6082
61.8508,1.606
61.8516,1.6469
61.8551,1.7009
61.8551,1.6936
61.8561,1.6324
61.8561,1.6191
61.8623,1.5904
61.8623,1.6088
61.8633,1.5728
61.8633,1.5915
61.8643,1.5803
61.8688,1.5899
61.8688,1.6439
61.8699,1.6671
61.8699,1.6206
61.8708,1.6298
61.8752,1.63
61.8762,1.5458
61.8762,1.4755
61.8771,1.5227
61.8860,1.521
61.9000,1.4755
61.9035,1.3673
61.9039,1.3005
61.9039,1.3315
61.9050,1.5745
61.9050,1.5657
61.9050,1.7496
61.9060,1.8269
61.9060,1.8595
61.9072,1.8859
61.9072,1.7879
61.9072,1.7129
61.9082,1.6862
61.9082,1.6319
61.9092,1.5801
61.9092,1.5912
61.9102,1.6384
61.9102,1.6328
61.9112,1.5964
61.9112,1.626
61.9112,1.6516
61.9125,1.6185
61.9163,1.6349
61.9174,1.5674
61.9188,1.5863
61.9188,1.6197
61.9198,1.6677
61.9228,1.6649
61.9238,1.6577
61.9238,1.5595
61.9250,1.5711
61.9305,1.5617
61.9305,1.5957
61.9316,1.6148
61.9316,1.6304
61.9326,1.6302
61.9370,1.6367
61.9379,1.5629
61.9389,1.2852
61.9389,1.35
61.9440,1.3416
61.9440,1.3566
61.9450,1.5814
61.9450,1.813
61.9460,1.768
61.9503,1.7791
61.9508,1.8428
61.9508,1.8227
61.9518,1.8387
61.9577,1.8944
61.9583,1.7987
61.9583,1.7331
61.9594,1.7991
61.9594,1.6658
61.9643,1.6122
61.9643,1.645
61.9654,1.6645
61.9654,1.6099
61.9663,1.5987
61.9713,1.5994
61.9713,1.6311
61.9724,1.629
61.9724,1.6416
61.9780,1.6711
61.9780,1.6951
61.9791,1.7052
61.9791,1.6317
61.9801,1.5531
61.9846,1.635
61.9856,1.6155
61.9856,1.5722
61.9856,1.416
61.9935,1.3174
61.9935,1.266
61.9946,1.3701
61.9946,1.527
61.9956,1.4747
61.9997,1.5413
62.0004,1.7716
62.0004,1.8038
62.0014,1.7866
62.0066,1.6504
62.0240,1.6787
62.0272,1.6527
62.0272,1.6079
62.0282,1.6542
62.0282,1.6463
62.0292,1.6604
62.0292,1.7314
62.0292,1.7882
62.0302,1.7142
62.0302,1.7074
62.0312,1.6576
62.0312,1.3302
62.0324,1.3371
62.0324,1.4768
62.0334,1.477
62.0334,1.534
62.0344,1.6142
62.0344,1.6099
62.0354,1.5525
62.0354,1.527
62.0354,1.5057
62.0364,1.5503
62.0409,1.5081
62.0409,1.354
62.0419,1.273
62.0419,1.2486
62.0429,1.2512
62.0472,1.5576
62.0482,1.6606
62.0482,1.6838
62.0482,1.8552
62.0544,1.9075
62.0544,1.9163
62.0554,1.8194
62.0554,1.7427
62.0565,1.6559
62.0606,1.5368
62.0606,1.546
62.0619,1.5578
62.0619,1.5689
62.0630,1.5985
62.0675,1.6328
62.0682,1.5687
62.0682,1.5017
62.0692,1.5077
62.0750,1.4624
62.0750,1.4762
62.0760,1.4837
62.0760,1.513
62.0770,1.554
62.0813,1.5383
62.0823,1.5235
62.0829,1.5051
62.0833,1.5398
62.0884,1.5792
62.0884,1.5304
62.0894,1.7237
62.0894,1.6789
62.0907,1.7573
62.0946,1.8505
62.0956,1.9229
62.0956,1.9853
62.0956,1.9137
62.1019,1.8278
62.1023,2.0528
62.1023,2.0971
62.1033,2.2197
62.1033,2.1424
62.1078,2.0363
62.1078,1.8653
62.1089,1.8953
62.1089,1.8452
62.1098,1.8396
62.1322,1.7543
62.1356,1.6924
62.1358,1.6759
62.1367,1.6816
62.1367,1.639
62.1377,1.5237
62.1377,1.5164
62.1377,1.5486
62.1387,1.5797
62.1387,1.5015
62.1397,1.47
62.1397,1.413
62.1407,1.3487
62.1407,1.587
62.1417,1.5889
62.1419,1.6819
62.1419,1.5987
62.1429,1.4474
62.1429,1.5195
62.1439,1.5685
62.1439,1.4496
62.1449,1.3124
62.1491,1.3384
62.1501,1.3877
62.1511,1.5405
62.1511,1.585
62.1521,1.7682
62.1555,1.8501
62.1555,1.6928
62.1565,1.7483
62.1565,1.8454
62.1575,1.8261
62.1628,1.6789
62.1628,1.5522
62.1628,1.4916
62.1639,1.5143
62.1697,1.4924
62.1697,1.555
62.1707,1.6339
62.1707,1.6094
62.1717,1.6831
62.1764,1.7279
62.1772,1.7136
62.1772,1.6892
62.1782,1.6392
62.1829,1.636
62.1839,1.5867
62.1839,1.5454
62.1849,1.4543
62.1849,1.4732
62.1897,1.5554
62.1907,1.5674
62.1907,1.6193
62.1907,1.6058
62.1971,1.5732
62.1973,1.5578
62.1973,1.6622
62.1984,1.5855
62.1984,1.597
62.2028,1.6
62.2038,1.5285
62.2038,1.5042
62.2038,1.6879
62.2048,1.6982
62.2100,1.6471
62.2100,1.5497
62.2110,1.6345
62.2110,1.6868
62.2176,1.6159
62.2176,1.5797
62.2186,1.6009
62.2186,1.606
62.2198,1.5966
62.2287,1.6071
62.2421,1.5642
62.2448,1.5944
62.2458,1.4796
62.2458,1.5471
62.2468,1.5539
62.2468,1.4804
62.2478,1.4768
62.2478,1.4942
62.2490,1.5139
62.2497,1.5126
62.2500,1.7817
62.2500,1.6682
62.2510,1.7459
62.2510,1.6808
62.2520,1.6088
62.2520,1.5158
62.2530,1.57
62.2530,1.6656
62.2540,1.6482
62.2540,1.6836
62.2540,1.6765
62.2553,1.5657
62.2573,1.4856
62.2583,1.3977
62.2583,1.6084
62.2593,1.7957
62.2652,1.7177
62.2662,1.669
62.2662,1.6416
62.2670,1.6401
62.2680,1.5479
62.2715,1.6615
62.2725,1.6193
62.2725,1.6654
62.2725,1.7286
62.2785,1.6649
62.2785,1.5495
62.2795,1.6343
62.2795,1.596
62.2805,1.6705
62.2847,1.5777
62.2856,1.5349
62.2856,1.558
62.2867,1.6131
62.2923,1.4031
62.2923,1.4714
62.2933,1.6491
62.2933,1.6829
62.2943,1.7687
62.2986,1.7346
62.2998,1.6774
62.2998,1.831
62.3009,1.7151
62.3009,1.6917
62.3050,1.6688
62.3050,1.6118
62.3061,1.5932
62.3061,1.5994
62.3128,1.7241
62.3128,1.8117
62.3138,1.7117
62.3138,1.7191
62.3148,1.8745
62.3190,1.8752
62.3200,1.7941
62.3200,1.8182
62.3210,1.7348
62.3262,1.681
62.3262,1.7247
62.3272,1.6707
62.3272,1.657
62.3285,1.7425
62.3329,1.7702
62.3429,1.7494
62.3544,1.6637
62.3544,1.6459
62.3554,1.5818
62.3554,1.618
62.3566,1.6073
62.3566,1.6212
62.3577,1.5689
62.3577,1.5473
62.3577,1.6446
62.3587,1.5784
62.3587,1.6834
62.3597,1.8196
62.3597,1.9577
62.3607,1.8766
62.3607,1.7884
62.3617,1.8263
62.3619,1.8844
62.3619,1.8766
62.3629,1.738
62.3629,1.681
62.3639,1.6457
62.3667,1.6319
62.3667,1.5456
62.3680,1.5501
62.3688,1.5957
62.3735,1.6022
62.3735,1.6122
62.3746,1.705
62.3746,1.6667
62.3756,1.708
62.3796,1.632
62.3806,1.593
62.3806,1.5608
62.3806,1.5617
62.3870,1.6007
62.3870,1.5522
62.3880,1.4759
62.3880,1.3686
62.3890,1.5501
62.3931,1.5484
62.3941,1.6722
62.3941,1.6553
62.3953,1.5694
62.3953,1.6
62.4003,1.5111
62.4003,1.3082
62.4015,1.2529
62.4015,1.2467
62.4070,1.3435
62.4070,1.6197
62.4081,1.6324
62.4081,1.6932
62.4091,1.7356
62.4136,1.7474
62.4145,1.7056
62.4145,1.7243
62.4155,1.7513
62.4203,1.5944
62.4213,1.7194
62.4213,1.7569
62.4223,1.717
62.4223,1.6666
62.4272,1.6212
62.4272,1.5955
62.4282,1.4183
62.4282,1.3915
62.4341,1.5115
62.4402,1.57
62.4524,1.6184
62.4554,1.6155
62.4564,1.6439
62.4564,1.6099
62.4576,1.6279
62.4576,1.6148
62.4587,1.6195
62.4587,1.5385
62.4587,1.5334
62.4597,1.4903
62.4597,1.4052
62.4607,1.4783
62.4607,1.5591
62.4617,1.5237
62.4617,1.5764
62.4627,1.5351
62.4628,1.558
62.4628,1.4297
62.4639,1.3928
62.4639,1.3178
62.4649,1.3103
62.4682,1.3182
62.4682,1.4123
62.4693,1.6264
62.4693,1.6945
62.4693,1.6592
62.4744,1.6907
62.4744,1.5921
62.4754,1.5364
62.4754,1.6088
62.4814,1.8177
62.4814,1.7091
62.4825,1.7706
62.4834,1.702
62.4846,1.569
62.4879,1.488
62.4879,1.4925
62.4890,1.5051
62.4890,1.5887
62.4902,1.6472
62.4942,1.6328
62.4995,1.6435
62.5005,1.654
62.5005,1.5698
62.5019,1.6116
62.5024,1.6857
62.5024,1.4974
62.5034,1.5019
62.5034,1.5154
62.5084,1.5711
62.5095,1.5704
62.5095,1.5632
62.5104,1.618
62.5155,1.7001
62.5165,1.602
62.5165,1.6005
62.5165,1.5542
62.5175,1.5407
62.5217,1.5154
62.5225,1.4933
62.5225,1.5248
62.5235,1.3769
62.5285,1.2608
62.5288,1.266
62.5288,1.26
62.5298,1.2501
62.5298,1.3296
62.5350,1.5068
62.5361,1.5312
62.5361,2.077
62.5361,2.0117
62.5371,1.8766
62.5420,1.8914
62.5420,1.7378
62.5432,1.6662
62.5529,1.7461
62.5620,1.6832
62.5650,1.5374
62.5650,1.6285
62.5660,1.6502
62.5660,1.5514
62.5671,1.5409
62.5671,1.6043
62.5680,1.6517
62.5680,1.6562
62.5690,1.6624
62.5690,1.5771
62.5700,1.5261
62.5700,1.4899
62.5710,1.4909
62.5710,1.5203
62.5720,1.5495
62.5720,1.5389
62.5730,1.4987
62.5761,1.5996
62.5761,1.5889
62.5770,1.4834
62.5770,1.453
62.5780,1.4959
62.5829,1.4048
62.5833,1.35
62.5846,1.4121
62.5853,1.7791
62.5853,1.7125
62.5892,1.6585
62.5892,1.5799
62.5902,1.5604
62.5902,1.6812
62.5965,1.6801
62.5965,1.6675
62.5975,1.6414
62.5975,1.6247
62.5985,1.5398
62.6028,1.5867
62.6036,1.5182
62.6036,1.5276
62.6046,1.5627
62.6100,1.5702
62.6100,1.5177
62.6108,1.6484
62.6108,1.6531
62.6118,1.642
62.6162,1.6624
62.6172,1.6154
62.6172,1.6105
62.6182,1.564
62.6235,1.4924
62.6236,1.5377
62.6246,1.4918
62.6246,1.4307
62.6246,1.491
62.6299,1.3962
62.6309,1.2885
62.6309,1.29
62.6309,1.6677
62.6319,1.6324
62.6369,1.7249
62.6369,1.7286
62.6380,1.6643
62.6380,1.585
62.6443,1.6328
62.6443,1.7402
62.6453,1.5426
62.6453,1.6193
62.6466,1.5981
62.6505,1.6041
62.6514,1.6846
62.6514,1.6686
62.6524,1.5771
62.6576,1.5745
62.6709,1.5126
62.6739,1.5775
62.6749,1.7417
62.6749,1.6092
62.6760,1.5439
62.6761,1.5857
62.6761,1.6032
62.6771,1.4374
62.6771,1.4976
62.6782,1.5857
62.6782,1.602
62.6792,1.7056
62.6792,1.6549
62.6792,1.6437
62.6802,1.6444
62.6802,1.681
62.6813,1.672
62.6813,1.8391
62.6844,1.6658
62.6854,1.6135
62.6854,1.6836
62.6863,1.7042
62.6915,1.6367
62.6915,1.5934
62.6925,1.6326
62.6925,1.5604
62.6938,1.5518
62.6978,1.5632
62.6987,1.5632
62.6998,1.6034
62.7010,1.6148
62.7047,1.6067
62.7047,1.5047
62.7059,1.5128
62.7069,1.503
62.7069,1.6026
62.7109,1.5015
62.7109,1.5625
62.7121,1.5407
62.7121,1.5492
62.7181,1.5889
62.7181,1.7631
62.7192,1.7753
62.7192,1.7258
62.7202,1.7091
62.7263,1.5915
62.7263,1.5306
62.7273,1.4717
62.7273,1.576
62.7286,1.6049
62.7337,1.6907
62.7348,1.6789
62.7356,1.6341
62.7356,1.5855
62.7404,1.5897
62.7404,1.627
62.7414,1.5435
62.7414,1.3622
62.7424,1.3577
62.7468,1.48
62.7477,1.4699
62.7477,1.605
62.7477,1.6615
62.7540,1.5188
62.7540,1.6184
62.7550,1.6227
62.7550,1.6223
62.7562,1.5739
62.7602,1.5424
62.7624,1.5368
62.7797,1.6137
62.7832,1.5285
62.7836,1.4404
62.7836,1.4584
62.7849,1.4792
62.7849,1.5274
62.7859,1.6452
62.7859,1.6294
62.7869,1.5679
62.7869,1.5801
62.7869,1.5439
62.7879,1.4603
62.7879,1.5321
62.7889,1.593
62.7889,1.5319
62.7899,1.6337
62.7899,1.623
62.7909,1.6103
62.7911,1.5574
62.7911,1.4834
62.7921,1.521
62.7943,1.5786
62.7952,1.5072
62.7952,1.4382
62.7952,1.4369
62.8017,1.4513
62.8017,1.3705
62.8028,1.4745
62.8028,1.399
62.8028,1.375
62.8075,1.6039
62.8075,1.6056
62.8085,1.6411
62.8085,1.6906
62.8148,1.6975
62.8148,1.8074
62.8162,1.9911
62.8162,2.0976
62.8168,2.1475
62.8211,2.0431
62.8211,1.9804
62.8221,1.9829
62.8221,2.0151
62.8231,2.0761
62.8274,1.9919
62.8284,1.9367
62.8284,1.7277
62.8296,1.6379
62.8351,1.5915
62.8351,1.6431
62.8361,1.599
62.8361,1.4704
62.8371,1.4627
62.8417,1.5762
62.8428,1.5023
62.8428,1.5164
62.8428,1.5514
62.8490,1.4455
62.8500,1.4573
62.8500,1.5008
62.8500,1.4916
62.8510,1.4046
62.8551,1.425
62.8551,1.5364
62.8561,1.6701
62.8561,1.7123
62.8625,1.6411
62.8625,1.5443
62.8635,1.4344
62.8635,1.4727
62.8648,1.5102
62.8684,1.4607
62.8723,1.5259
62.8868,1.4839
62.8900,1.4852
62.8900,1.645
62.8910,1.6457
62.8910,1.7001
62.8920,1.8224
62.8920,1.6596
62.8930,1.5788
62.8932,1.5557
62.8932,1.5597
62.8942,1.5315
62.8942,1.5835
62.8942,1.6251
62.8952,1.5754
62.8952,1.5578
62.8962,1.5482
62.8962,1.492
62.8972,1.6259
62.8972,1.6103
62.8982,1.6037
62.8984,1.7206
62.9029,1.6206
62.9029,1.5809
62.9041,1.4854
62.9041,1.434
62.9095,1.5749
62.9095,1.5777
62.9106,1.5942
62.9106,1.5149
62.9116,1.5758
62.9161,1.6049
62.9176,1.5531
62.9180,1.5503
62.9180,1.5812
62.9190,1.6427
62.9233,1.672
62.9233,1.6193
62.9243,1.6
62.9243,1.602
62.9306,1.5968
62.9318,1.6214
62.9318,1.6227
62.9330,1.6613
62.9330,1.7588
62.9370,1.702
62.9383,1.7239
62.9383,1.7781
62.9383,1.5203
62.9439,1.5537
62.9439,1.5002
62.9450,1.5675
62.9450,1.6521
62.9460,1.6666
62.9503,1.5949
62.9513,1.6945
62.9513,1.5945
62.9513,1.474
62.9576,1.5389
62.9576,1.7012
62.9586,1.7277
62.9586,1.7054
62.9596,1.6058
62.9640,1.536
62.9640,1.5186
62.9650,1.4969
62.9650,1.4457
62.9663,1.5006
62.9709,1.5874
62.9709,1.7466
62.9720,1.6787
62.9722,1.6409
62.9805,1.6435
62.9967,1.7288
62.9978,1.8122
63.0006,1.6937
63.0016,1.6726
63.0019,1.6482
63.0019,1.5535
63.0029,1.6817
63.0029,1.6561
63.0039,1.6358
63.0039,1.6362
63.0049,1.5784
63.0049,1.6065
63.0059,1.6232
63.0059,1.6797
63.0059,1.7022
63.0069,1.6229
63.0069,1.6452
63.0081,1.6877
63.0081,1.6279
63.0091,1.5162
63.0091,1.6195
63.0101,1.6922
63.0113,1.6324
63.0121,1.624
63.0121,1.6842
63.0131,1.7357
63.0131,1.6821
63.0184,1.8803
63.0194,1.8385
63.0196,1.7836
63.0196,1.7847
63.0259,1.5959
63.0259,1.6324
63.0269,1.6298
63.0269,1.5308
63.0279,1.4912
63.0328,1.5263
63.0333,1.7065
63.0333,1.8792
63.0346,1.9302
63.0392,1.8773
63.0402,1.8844
63.0404,1.8231
63.0412,1.7537
63.0412,1.6364
63.0456,1.723
63.0456,1.7179
63.0466,1.8364
63.0466,1.7395
63.0529,1.6332
63.0532,1.8257
63.0532,1.8983
63.0543,1.8899
63.0543,1.7611
63.0588,1.7736
63.0588,1.7446
63.0598,1.7986
63.0608,1.8385
63.0608,1.8276
63.0661,1.7976
63.0661,1.6868
63.0670,1.6047
63.0670,1.5235
63.0734,1.5604
63.0734,1.6148
63.0744,1.7824
63.0744,1.7652
63.0754,1.6581
63.0795,1.6853
63.0805,1.7374
63.0805,1.7301
63.0805,1.7299
63.0866,1.6789
63.1036,1.6427
63.1066,1.6546
63.1076,1.6643
63.1086,1.555
63.1086,1.5869
63.1096,1.5702
63.1096,1.5923
63.1096,1.666
63.1108,1.5908
63.1108,1.6309
63.1118,1.7477
63.1118,1.5758
63.1128,1.558
63.1128,1.5402
63.1138,1.4924
63.1138,1.4282
63.1148,1.5402
63.1148,1.651
63.1158,1.5711
63.1158,1.6317
63.1172,1.6065
63.1178,1.5902
63.1208,1.5944
63.1208,1.5854
63.1218,1.585
63.1218,1.6441
63.1230,1.5869
63.1269,1.4892
63.1279,1.4571
63.1279,1.4749
63.1292,1.4522
63.1339,1.4475
63.1348,1.4661
63.1356,1.5113
63.1356,1.5477
63.1356,1.6619
63.1404,1.6097
63.1404,1.5272
63.1414,1.5409
63.1414,1.5505
63.1471,1.5636
63.1480,1.4466
63.1480,1.5233
63.1489,1.5666
63.1499,1.4978
63.1538,1.4751
63.1538,1.6015
63.1548,1.6851
63.1548,1.729
63.1558,1.6396
63.1601,1.6298
63.1611,1.4984
63.1611,1.3804
63.1623,1.4642
63.1677,1.4807
63.1677,1.5032
63.1688,1.5094
63.1688,1.4757
63.1698,1.4862
63.1743,1.6516
63.1753,1.7397
63.1753,1.6253
63.1762,1.6266
63.1815,1.6424
63.1815,1.6943
63.1828,1.678
63.1828,1.6589
63.1835,1.6088
63.1879,1.4828
63.1879,1.3707
63.1889,1.4916
63.1889,1.5252
63.1944,1.6384
63.2014,1.6305
63.2138,1.5679
63.2168,1.5672
63.2172,1.5816
63.2178,1.618
63.2178,1.6465
63.2188,1.576
63.2188,1.5047
63.2198,1.383
63.2198,1.3829
63.2208,1.2752
63.2208,1.2651
63.2208,1.3547
63.2218,1.4487
63.2218,1.7072
63.2230,1.7136
63.2230,1.7067
63.2230,1.7821
63.2240,1.6694
63.2240,1.5921
63.2250,1.5278
63.2250,1.4659
63.2286,1.5527
63.2286,1.5769
63.2296,1.4264
63.2296,1.5953
63.2306,1.7986
63.2349,1.8625
63.2349,1.7905
63.2359,1.7337
63.2359,1.7071
63.2424,1.8179
63.2424,1.7341
63.2433,1.582
63.2433,1.6643
63.2443,1.516
63.2486,1.5996
63.2496,1.6238
63.2496,1.5274
63.2506,1.4768
63.2506,1.5396
63.2549,1.6206
63.2560,1.6857
63.2560,1.6334
63.2571,1.6866
63.2627,1.6712
63.2627,1.7067
63.2637,1.7391
63.2637,1.5195
63.2647,1.3731
63.2692,1.4762
63.2702,1.539
63.2702,1.4873
63.2702,1.4714
63.2758,1.5782
63.2767,1.6202
63.2767,1.4749
63.2777,1.3817
63.2777,1.4138
63.2827,1.617
63.2835,1.6268
63.2835,1.6414
63.2847,1.6823
63.2896,1.558
63.2896,1.5239
63.2909,1.5651
63.2909,1.7228
63.2920,1.6709
63.2962,1.5614
63.2962,1.572
63.2972,1.6088
63.2972,1.6701
63.2982,1.6236
63.3027,1.4685
63.3034,1.3669
63.3034,1.438
63.3044,1.5205
63.3102,1.5951
63.3102,1.5792
63.3112,1.6491
63.3112,1.6493
63.3122,1.6298
63.3168,1.6641
63.3168,1.648
63.3191,1.5767
63.3363,1.6512
63.3393,1.5893
63.3403,1.5604
63.3403,1.5276
63.3413,1.533
63.3413,1.4187
63.3426,1.4352
63.3430,1.434
63.3436,1.4144
63.3436,1.6259
63.3436,1.6478
63.3446,1.7187
63.3446,1.6767
63.3456,1.5111
63.3456,1.6178
63.3466,1.6577
63.3466,1.5773
63.3466,1.6103
63.3478,1.6112
63.3478,1.575
63.3498,1.5679
63.3508,1.5501
63.3508,1.5915
63.3518,1.684
63.3573,1.5392
63.3583,1.5846
63.3585,1.6932
63.3585,1.7179
63.3595,1.6652
63.3640,1.6559
63.3640,1.5741
63.3651,1.4404
63.3651,1.4858
63.3708,1.4603
63.3708,1.5546
63.3718,1.6407
63.3718,1.6527
63.3728,1.6902
63.3773,1.6377
63.3773,1.6682
63.3783,1.5962
63.3783,1.4982
63.3844,1.5492
63.3844,1.609
63.3854,1.6469
63.3854,1.6789
63.3867,1.6024
63.3906,1.6122
63.3906,1.612
63.3916,1.5771
63.3916,1.6396
63.3929,1.6281
63.3969,1.5426
63.3981,1.6
63.3981,1.5599
63.3991,1.6167
63.4049,1.5818
63.4049,1.6212
63.4059,1.669
63.4059,1.7185
63.4069,1.6872
63.4113,1.6212
63.4123,1.5422
63.4123,1.4757
63.4123,1.5546
63.4184,1.6936
63.4184,1.6553
63.4194,1.7102
63.4194,1.7027
63.4207,1.6774
63.4241,1.6187
63.4252,1.5756
63.4252,1.4888
63.4262,1.4393
63.4427,1.4663
63.4447,1.4395
63.4477,1.4929
63.4477,1.6289
63.4477,1.6054
63.4490,1.5244
63.4495,1.5119
63.4500,1.7204
63.4510,1.7672
63.4510,1.711
63.4510,1.6407
63.4520,1.4393
63.4520,1.4325
63.4530,1.4089
63.4542,1.4644
63.4542,1.4582
63.4542,1.4453
63.4552,1.5512
63.4552,1.5267
63.4604,1.4438
63.4613,1.5201
63.4613,1.6731
63.4613,1.7059
63.4671,1.8209
63.4680,1.5315
63.4680,1.5077
63.4690,1.4993
63.4690,1.5422
63.4735,1.6058
63.4744,1.6067
63.4744,1.6626
63.4754,1.648
63.4809,1.6075
63.4818,1.5115
63.4821,1.4807
63.4831,1.3054
63.4831,1.3249
63.4875,1.441
63.4875,1.4288
63.4885,1.4674
63.4885,1.5507
63.4895,1.5972
63.4937,1.6377
63.4947,1.561
63.4947,1.7164
63.4957,1.6146
63.5015,1.6317
63.5068,1.5188
63.5068,1.6107
63.5077,1.6229
63.5077,1.5325
63.5087,1.437
63.5087,1.41
63.5097,1.3823
63.5097,1.3755
63.5149,1.4226
63.5158,1.4824
63.5158,1.4999
63.5168,1.5413
63.5168,1.4749
63.5212,1.5666
63.5212,1.6112
63.5223,1.6437
63.5223,1.6326
63.5281,1.6652
63.5288,1.7213
63.5295,1.7974
63.5298,1.7933
63.5298,1.8477
63.5366,2.095
63.5527,2.0121
63.5567,2.0099
63.5567,2.0569
63.5578,2.146
63.5587,2.1033
63.5587,2.0916
63.5597,2.0012
63.5597,1.6155
63.5607,1.5619
63.5607,1.593
63.5607,1.6135
63.5617,1.6737
63.5617,1.6606
63.5627,1.5634
63.5627,1.5109
63.5637,1.4335
63.5637,1.4243
63.5647,1.3956
63.5647,1.4738
63.5647,1.4856
63.5657,1.4569
63.5668,1.5499
63.5687,1.4907
63.5687,1.5405
63.5697,1.6174
63.5697,1.5225
63.5758,1.4702
63.5758,1.4584
63.5768,1.5263
63.5768,1.5764
63.5778,1.7174
63.5827,1.7269
63.5832,1.6561
63.5844,1.5186
63.5852,1.4365
63.5852,1.518
63.5891,1.5685
63.5891,1.4974
63.5903,1.3789
63.5904,1.2983
63.5959,1.3664
63.5969,1.6692
63.5969,1.6559
63.5981,1.7243
63.5981,1.7279
63.6027,1.5546
63.6037,1.6095
63.6037,1.6118
63.6047,1.5559
63.6099,1.5739
63.6099,1.5325
63.6109,1.5426
63.6109,1.5038
63.6121,1.5634
63.6161,1.4772
63.6169,1.5227
63.6169,1.6769
63.6181,1.6982
63.6233,1.6896
63.6234,1.7123
63.6244,1.6527
63.6244,1.5659
63.6254,1.4565
63.6296,1.5636
63.6296,1.6099
63.6306,1.5569
63.6306,1.6491
63.6316,1.7063
63.6364,1.6431
63.6370,1.6748
63.6370,1.617
63.6380,1.5531
63.6440,1.4252
63.6619,1.3937
63.6649,1.417
63.6654,1.5428
63.6658,1.5608
63.6668,1.5599
63.6668,1.4944
63.6678,1.3386
63.6678,1.4817
63.6688,1.5297
63.6691,1.6688
63.6691,1.7607
63.6704,1.7393
63.6704,1.6675
63.6712,1.5614
63.6712,1.507
63.6722,1.6088
63.6722,1.6752
63.6722,1.6041
63.6732,1.5458
63.6732,1.5434
63.6743,1.6403
63.6743,1.7035
63.6765,1.6472
63.6773,1.6275
63.6773,1.6028
63.6783,1.5426
63.6783,1.5199
63.6845,1.5458
63.6849,1.5687
63.6855,1.6054
63.6855,1.5272
63.6911,1.5205
63.6921,1.5117
63.6931,1.6315
63.6931,1.6352
63.6941,1.5379
63.6978,1.6043
63.6978,1.6746
63.6988,1.6437
63.6993,1.6789
63.7043,1.6846
63.7051,1.5835
63.7051,1.5475
63.7061,1.573
63.7061,1.5214
63.7104,1.5216
63.7114,1.5265
63.7124,1.581
63.7124,1.6628
63.7176,1.777
63.7176,1.8771
63.7186,1.7987
63.7186,1.6322
63.7196,1.6437
63.7243,1.629
63.7243,1.5619
63.7252,1.6922
63.7252,1.7016
63.7265,1.5629
63.7315,1.6077
63.7317,1.6155
63.7317,1.554
63.7327,1.6052
63.7383,1.6394
63.7392,1.6309
63.7392,1.7266
63.7402,1.7337
63.7402,1.6846
63.7449,1.6163
63.7459,1.6127
63.7459,1.6399
63.7459,1.7701
63.7518,1.7468
63.7518,1.6844
63.7528,1.7704
63.7528,1.7644
63.7581,1.7832
63.7725,1.7147
63.7755,1.7102
63.7755,1.7474
63.7765,1.7267
63.7765,1.789
63.7777,1.7969
63.7777,1.7147
63.7787,1.618
63.7787,1.5872
63.7797,1.5115
63.7797,1.5518
63.7797,1.5945
63.7807,1.7363
63.7807,1.8514
63.7817,1.7764
63.7817,1.7209
63.7827,1.8364
63.7837,1.8852
63.7861,1.7209
63.7861,1.7101
63.7871,1.6322
63.7871,1.6452
63.7881,1.6847
63.7924,1.7267
63.7934,1.7528
63.7934,1.8179
63.7944,1.7421
63.7999,1.4777
63.7999,1.3935
63.8009,1.3757
63.8019,1.5899
63.8019,1.4779
63.8056,1.4385
63.8066,1.6075
63.8066,1.7629
63.8066,1.723
63.8131,1.6637
63.8131,1.6581
63.8141,1.5835
63.8141,1.5527
63.8151,1.4807
63.8194,1.4972
63.8194,1.6107
63.8204,1.7474
63.8204,1.7547
63.8217,1.603
63.8257,1.608
63.8269,1.6005
63.8269,1.5471
63.8279,1.5263
63.8337,1.4562
63.8337,1.5488
63.8347,1.5559
63.8347,1.5734
63.8357,1.5775
63.8401,1.6317
63.8411,1.6026
63.8411,1.6699
63.8411,1.6937
63.8474,1.5685
63.8474,1.4609
63.8486,1.5707
63.8486,1.6594
63.8497,1.6251
63.8539,1.4772
63.8539,1.4037
63.8549,1.3628
63.8549,1.4211
63.8606,1.6441
63.8606,1.5775
63.8617,1.6077
63.8617,1.5615
63.8627,1.4095
63.8721,1.4284
63.8825,1.3913
63.8855,1.4404
63.8855,1.4984
63.8865,1.3926
63.8865,1.4292
63.8865,1.524
63.8877,1.5167
63.8877,1.6022
63.8887,1.7194
63.8887,1.8362
63.8897,1.6637
63.8897,1.4924
63.8907,1.5546
63.8907,1.504
63.8917,1.5045
63.8917,1.438
63.8917,1.5272
63.8947,1.5134
63.8947,1.5165
63.8957,1.7185
63.8957,1.53
63.8967,1.5792
63.9013,1.6365
63.9013,1.5799
63.9024,1.4987
63.9024,1.6527
63.9083,1.7372
63.9083,1.6701
63.9093,1.3844
63.9093,1.4076
63.9103,1.5002
63.9146,1.54
63.9146,1.4734
63.9160,1.6118
63.9166,1.6039
63.9176,1.5674
63.9209,1.5966
63.9219,1.5152
63.9219,1.5374
63.9229,1.5047
63.9289,1.5707
63.9289,1.5694
63.9299,1.5284
63.9299,1.521
63.9311,1.6
63.9352,1.5936
63.9362,1.5259
63.9364,1.5392
63.9364,1.5239
63.9421,1.4159
63.9421,1.5782
63.9431,1.5349
63.9431,1.4337
63.9441,1.5199
63.9486,1.5409
63.9494,1.4955
63.9494,1.618
63.9505,1.6457
63.9559,1.6491
63.9559,1.6292
63.9569,1.6073
63.9569,1.4695
63.9579,1.4839
63.9620,1.5944
63.9632,1.6786
63.9680,1.6219
63.9820,1.5659
63.9847,1.6249
63.9857,1.6435
63.9857,1.6041
63.9870,1.5252
63.9870,1.5835
63.9870,1.6553
63.9880,1.5809
63.9880,1.4957
63.9890,1.5722
63.9890,1.5803
63.9900,1.5443
63.9900,1.3902
63.9900,1.4215
63.9910,1.5732
63.9910,1.5085
63.9922,1.5239
63.9922,1.4494
63.9932,1.4342
63.9932,1.5614
63.9963,1.7318
63.9963,1.7256
63.9976,1.6487
63.9982,1.5992
64.0031,1.6846
64.0031,1.5081
64.0042,1.5419
64.0042,1.4429
64.0051,1.4884
64.0097,1.5315
64.0107,1.5175
64.0116,1.4502
64.0116,1.5074
64.0116,1.4862
64.0168,1.4879
64.0178,1.5411
64.0178,1.6407
64.0188,1.6994
64.0240,1.6307
64.0251,1.5764
64.0251,1.5269
64.0260,1.5338
64.0260,1.5374
64.0302,1.5137
64.0302,1.3724
64.0312,1.4498
64.0312,1.3272
64.0372,1.5509
64.0372,1.6182
64.0382,1.5222
64.0382,1.5735
64.0393,1.5514
64.0434,1.5762
64.0443,1.5846
64.0443,1.6086
64.0454,1.5015
64.0507,1.5276
64.0516,1.5994
64.0526,1.4892
64.0526,1.4575
64.0536,1.5366
64.0567,1.7061
64.0577,1.7042
64.0577,1.687
64.0577,1.6879
64.0587,1.5829
64.0639,1.539
64.0649,1.6109
64.0649,1.6191
64.0649,1.633
64.0717,1.5276
64.0781,1.5462
64.0943,1.5259
64.0962,1.5681
64.0962,1.6697
64.0974,1.7213
64.0974,1.7168
64.0979,1.51
64.0984,1.5792
64.0984,1.4747
64.0984,1.4365
64.0994,1.4329
64.0994,1.4301
64.1004,1.399
64.1004,1.4569
64.1004,1.5293
64.1014,1.6538
64.1014,1.5895
64.1014,1.6819
64.1014,1.7153
64.1025,1.6624
64.1025,1.7016
64.1025,1.7226
64.1042,1.5942
64.1045,1.524
64.1045,1.5572
64.1045,1.6095
64.1055,1.4897
64.1106,1.467
64.1116,1.396
64.1116,1.396
64.1116,1.435
64.1187,1.5008
64.1187,1.5833
64.1187,1.7404
64.1197,1.8837
64.1197,1.7513
64.1249,1.6259
64.1249,1.6532
64.1259,1.5432
64.1259,1.5692
64.1324,1.6435
64.1326,1.7237
64.1326,1.5293
64.1334,1.4963
64.1334,1.5218
64.1384,1.6718
64.1384,1.5788
64.1384,1.6139
64.1394,1.5576
64.1456,1.7215
64.1456,1.7537
64.1456,1.5224
64.1466,1.5608
64.1466,1.4924
64.1518,1.5029
64.1518,1.4631
64.1518,1.4573
64.1528,1.4142
64.1528,1.4672
64.1581,1.5865
64.1591,1.5627
64.1591,1.6118
64.1591,1.6313
64.1656,1.5936
64.1656,1.456
64.1666,1.4974
64.1666,1.563
64.1675,1.6189
64.1725,1.4912
64.1725,1.5267
64.1735,1.4449
64.1735,1.4832
64.1829,1.5248
64.1973,1.5764
64.1996,1.6099
64.2003,1.6313
64.2003,1.5732
64.2013,1.4813
64.2013,1.5375
64.2023,1.4014
64.2023,1.504
64.2033,1.5141
64.2033,1.4571
64.2043,1.3943
64.2043,1.4389
64.2043,1.4727
64.2055,1.5951
64.2065,1.6407
64.2065,1.609
64.2065,1.5169
64.2075,1.5216
64.2075,1.5049
64.2085,1.5651
64.2085,1.5385
64.2095,1.4961
64.2159,1.5237
64.2169,1.6499
64.2180,1.7935
64.2180,1.672
64.2190,1.6317
64.2222,1.6161
64.2222,1.6
64.2232,1.5809
64.2232,1.504
64.2287,1.4393
64.2287,1.416
64.2297,1.3763
64.2297,1.4307
64.2307,1.4622
64.2349,1.4633
64.2349,1.5162
64.2360,1.3305
64.2370,1.3069
64.2422,1.2912
64.2422,1.3163
64.2432,1.5374
64.2432,1.6065
64.2443,1.5677
64.2484,1.7554
64.2493,1.7556
64.2493,1.8482
64.2506,1.8912
64.2506,1.8734
64.2556,1.9692
64.2556,2.0048
64.2566,2.0243
64.2568,2.0136
64.2628,2.0129
64.2628,2.0729
64.2638,2.0733
64.2638,1.9052
64.2648,1.8387
64.2691,1.8256
64.2701,1.6816
64.2701,1.6202
64.2701,1.5734
64.2763,1.6422
64.2763,1.6606
64.2773,1.6952
64.2773,1.5854
64.2783,1.5636
64.2824,1.5533
64.2834,1.4869
64.2834,1.5199
64.2844,1.4757
64.2916,1.441
64.3058,1.4316
64.3079,1.441
64.3089,1.4395
64.3089,1.6386
64.3101,1.6941
64.3101,1.6645
64.3109,1.6356
64.3109,1.5302
64.3119,1.5662
64.3119,1.5704
64.3129,1.5317
64.3129,1.5304
64.3141,1.4985
64.3141,1.567
64.3141,1.5452
64.3152,1.5379
64.3162,1.587
64.3162,1.6921
64.3171,1.6202
64.3171,1.5752
64.3181,1.5912
64.3181,1.6095
64.3239,1.624
64.3239,1.6527
64.3249,1.5632
64.3249,1.5724
64.3262,1.3892
64.3302,1.3964
64.3312,1.3962
64.3312,1.6163
64.3312,1.6275
64.3372,1.587
64.3375,1.5113
64.3387,1.5242
64.3387,1.564
64.3397,1.6379
64.3441,1.5964
64.3441,1.588
64.3451,1.5732
64.3451,1.4865
64.3461,1.4732
64.3504,1.4597
64.3511,1.4316
64.3511,1.4787
64.3521,1.6649
64.3580,1.6675
64.3580,1.7282
64.3590,1.6442
64.3590,1.5484
64.3600,1.615
64.3642,1.6401
64.3653,1.5929
64.3654,1.4005
64.3665,1.3412
64.3718,1.4183
64.3718,1.612
64.3729,1.7288
64.3729,1.7241
64.3729,1.7689
64.3776,1.5747
64.3776,1.5338
64.3786,1.5162
64.3786,1.5134
64.3849,1.6471
64.3849,1.7089
64.3859,1.6039
64.3859,1.558
64.3869,1.5559
64.3913,1.5531
64.3913,1.5139
64.3923,1.6426
64.3923,1.6247
64.3936,1.6109
64.3986,1.6242
64.3986,1.7042
64.3986,1.6472
64.3998,1.6709
64.4052,1.614
64.4063,1.5623
64.4063,1.423
64.4072,1.453
64.4072,1.5171
64.4114,1.4942
64.4318,1.5741
64.4350,1.5544
64.4360,1.6154
64.4370,1.6249
64.4370,1.7273
64.4379,1.6915
64.4379,1.6979
64.4389,1.6337
64.4389,1.5722
64.4399,1.5062
64.4399,1.4622
64.4399,1.4603
64.4411,1.5501
64.4422,1.6272
64.4422,1.5944
64.4431,1.5895
64.4431,1.5854
64.4441,1.6397
64.4441,1.7333
64.4451,1.6829
64.4451,1.6864
64.4458,1.7273
64.4461,1.6283
64.4461,1.6285
64.4473,1.6536
64.4473,1.7044
64.4530,1.581
64.4535,1.4605
64.4535,1.456
64.4545,1.3905
64.4545,1.5205
64.4591,1.5317
64.4600,1.7204
64.4610,1.7466
64.4610,1.6208
64.4665,1.6144
64.4677,1.6744
64.4679,1.7063
64.4679,1.6806
64.4692,1.6964
64.4729,1.6941
64.4729,1.6652
64.4740,1.741
64.4740,1.7665
64.4803,1.7309
64.4804,1.7048
64.4815,1.7967
64.4815,1.6594
64.4825,1.6531
64.4859,1.5584
64.4869,1.4706
64.4869,1.5222
64.4879,1.5032
64.4879,1.6808
64.4932,1.7987
64.4932,1.7618
64.4942,1.7927
64.4942,1.8462
64.5005,1.8666
64.5015,1.7952
64.5018,1.7552
64.5018,1.8166
64.5028,1.7125
64.5071,1.7164
64.5121,1.6881
64.5131,1.7648
64.5134,1.8856
64.5144,1.7646
64.5144,1.6617
64.5144,1.5392
64.5154,1.6493
64.5154,1.6208
64.5201,1.6656
64.5211,1.699
64.5211,1.6392
64.5211,1.5679
64.5273,1.5149
64.5411,1.5158
64.5440,1.527
64.5440,1.5366
64.5450,1.51
64.5450,1.5604
64.5460,1.6877
64.5460,1.6229
64.5470,1.6195
64.5470,1.4935
64.5470,1.5664
64.5480,1.6105
64.5480,1.6062
64.5490,1.501
64.5500,1.4612
64.5500,1.4318
64.5500,1.5218
64.5511,1.5711
64.5511,1.5587
64.5543,1.6681
64.5550,1.542
64.5550,1.5539
64.5560,1.5467
64.5613,1.5207
64.5624,1.56
64.5624,1.5561
64.5624,1.5124
64.5637,1.3442
64.5672,1.4393
64.5680,1.4807
64.5680,1.4781
64.5693,1.4612
64.5746,1.7344
64.5748,1.7671
64.5758,1.6754
64.5758,1.6339
64.5758,1.6892
64.5811,1.6892
64.5811,1.4712
64.5826,1.4247
64.5831,1.3611
64.5831,1.3962
64.5883,1.4252
64.5883,1.57
64.5893,1.4811
64.5893,1.5366
64.5954,1.617
64.5954,1.6182
64.5964,1.6609
64.5964,1.6521
64.5976,1.6587
64.6016,1.6184
64.6026,1.5743
64.6026,1.494
64.6026,1.3172
64.6091,1.4618
64.6091,1.437
64.6101,1.5077
64.6101,1.5705
64.6111,1.5317
64.6145,1.4037
64.6158,1.468
64.6165,1.5623
64.6165,1.6461
64.6221,1.6322
64.6221,1.5554
64.6232,1.5578
64.6232,1.6017
64.6242,1.5606
64.6285,1.5645
64.6285,1.4781
64.6295,1.5992
64.6295,1.6956
64.6308,1.708
64.6353,1.3907
64.6358,1.3823
64.6358,1.3697
64.6370,1.4282
64.6426,1.6045
64.6426,1.6435
64.6436,1.6808
64.6436,1.5794
64.6446,1.4811
64.6640,1.5507
64.6670,1.5516
64.6670,1.617
64.6680,1.6065
64.6680,1.6019
64.6694,1.6427
64.6694,1.6324
64.6703,1.5734
64.6703,1.54
64.6703,1.5075
64.6713,1.4894
64.6713,1.5593
64.6723,1.4901
64.6723,1.5344
64.6733,1.542
64.6733,1.5675
64.6733,1.5284
64.6743,1.57
64.6757,1.5419
64.6757,1.4603
64.6767,1.5411
64.6767,1.546
64.6777,1.5152
64.6833,1.5606
64.6839,1.7151
64.6849,1.5437
64.6849,1.4909
64.6900,1.6114
64.6910,1.6155
64.6910,1.4912
64.6910,1.377
64.6920,1.3879
64.6963,1.548
64.6963,1.7076
64.6973,1.7447
64.6973,1.6221
64.7036,1.44
64.7039,1.3802
64.7046,1.5278
64.7046,1.6461
64.7056,1.5589
64.7095,1.4629
64.7095,1.4667
64.7106,1.4723
64.7115,1.4764
64.7158,1.4845
64.7168,1.6298
64.7178,1.5734
64.7178,1.6712
64.7188,1.6056
64.7230,1.7099
64.7230,1.6636
64.7240,1.5859
64.7240,1.5419
64.7250,1.6152
64.7302,1.591
64.7302,1.4297
64.7312,1.4954
64.7312,1.5503
64.7374,1.5563
64.7374,1.5079
64.7384,1.7084
64.7384,1.6817
64.7394,1.5917
64.7437,1.6671
64.7447,1.6094
64.7447,1.6045
64.7447,1.4269
64.7507,1.4629
64.7511,1.4667
64.7511,1.6219
64.7524,1.6906
64.7524,1.7007
64.7587,1.6701
64.7772,1.6317
64.7784,1.4792
64.7814,1.4614
64.7814,1.5222
64.7827,1.563
64.7834,1.561
64.7834,1.4946
64.7834,1.5539
64.7848,1.4444
64.7848,1.4946
64.7853,1.6244
64.7853,1.5685
64.7866,1.5285
64.7866,1.5464
64.7876,1.5512
64.7876,1.53
64.7886,1.5647
64.7886,1.5351
64.7896,1.6506
64.7896,1.5165
64.7906,1.4115
64.7906,1.5128
64.7906,1.6112
64.7916,1.4961
64.7916,1.5209
64.7928,1.6187
64.7983,1.6382
64.7983,1.6849
64.7993,1.6433
64.8002,1.6354
64.8003,1.6782
64.8047,1.4102
64.8047,1.3422
64.8057,1.4235
64.8057,1.4003
64.8120,1.4792
64.8120,1.4999
64.8130,1.5614
64.8130,1.6034
64.8140,1.7052
64.8180,1.7515
64.8192,1.6628
64.8192,1.6047
64.8200,1.471
64.8200,1.5685
64.8252,1.5518
64.8252,1.522
64.8264,1.5642
64.8264,1.5398
64.8324,1.648
64.8334,1.6215
64.8334,1.6133
64.8354,1.6259
64.8354,1.7014
64.8391,1.7147
64.8401,1.7389
64.8401,1.6917
64.8401,1.6088
64.8462,1.6242
64.8462,1.6879
64.8473,1.6838
64.8473,1.6124
64.8483,1.5559
64.8525,1.578
64.8525,1.6124
64.8535,1.6275
64.8535,1.6559
64.8594,1.6304
64.8600,1.7102
64.8600,1.8046
64.8611,1.7466
64.8611,1.7479
64.8698,1.6583
64.8835,1.678
64.8864,1.648
64.8873,1.5124
64.8883,1.3525
64.8883,1.3491
64.8895,1.3671
64.8895,1.5435
64.8905,1.5599
64.8905,1.4997
64.8915,1.4764
64.8915,1.62
64.8925,1.5795
64.8925,1.6883
64.8935,1.6562
64.8945,1.4657
64.8945,1.5417
64.8956,1.6354
64.8958,1.5066
64.8968,1.4687
64.8968,1.4074
64.8978,1.5259
64.8978,1.5437
64.8997,1.6178
64.8997,1.6172
64.9010,1.5248
64.9010,1.4708
64.9065,1.5177
64.9075,1.4384
64.9075,1.4729
64.9075,1.5518
64.9085,1.6831
64.9149,1.6279
64.9159,1.5359
64.9159,1.6769
64.9171,1.6356
64.9180,1.6514
64.9212,1.5248
64.9222,1.4295
64.9222,1.4091
64.9234,1.53
64.9289,1.5679
64.9289,1.6088
64.9299,1.4961
64.9299,1.5537
64.9309,1.5711
64.9353,1.5235
64.9363,1.5229
64.9363,1.5734
64.9363,1.5981
64.9425,1.5747
64.9425,1.6047
64.9435,1.5704
64.9435,1.5915
64.9445,1.6071
64.9492,1.398
64.9500,1.4179
64.9500,1.4811
64.9511,1.392
64.9563,1.5447
64.9564,1.4954
64.9575,1.5269
64.9575,1.555
64.9584,1.5327
64.9622,1.408
64.9622,1.4969
64.9632,1.44
64.9632,1.416
64.9642,1.524
64.9695,1.4901
64.9695,1.3862
64.9705,1.4082
64.9705,1.3997
64.9766,1.3649
64.9766,1.4149
64.9776,1.3424
64.9776,1.3832
64.9789,1.5765
64.9825,1.6641
64.9835,1.6996
64.9835,1.7029
64.9846,1.5945
64.9903,1.6215
65.0084,1.8136
65.0114,1.9011
65.0114,1.9757
65.0124,1.9186
65.0124,2.1126
65.0124,2.1173
65.0137,1.8372
65.0137,1.7695
65.0147,1.9416
65.0147,2.0768
65.0156,1.9996
65.0156,1.8301
65.0167,1.6142
65.0177,1.5975
65.0177,1.5019
65.0177,1.4972
65.0189,1.48
65.0189,1.468
65.0189,1.5278
65.0199,1.4455
65.0199,1.465
65.0209,1.5083
65.0243,1.4622
65.0243,1.5482
65.0253,1.614
65.0253,1.4438
65.0263,1.4631
65.0302,1.512
65.0312,1.5059
65.0312,1.5625
65.0312,1.5865
65.0374,1.6446
65.0374,1.7447
65.0384,1.6904
65.0384,1.6236
65.0394,1.6424
65.0439,1.4247
65.0449,1.4513
65.0449,1.3491
65.0449,1.4571
65.0509,1.4307
65.0509,1.4993
65.0520,1.602
65.0520,1.3605
65.0531,1.5255
65.0573,1.711
65.0584,1.7168
65.0584,1.4449
65.0595,1.4845
65.0595,1.47
65.0636,1.5282
65.0647,1.3247
65.0647,1.4612
65.0658,1.2874
65.0716,1.315
65.0716,1.3898
65.0726,1.4219
65.0726,1.6808
65.0736,1.4984
65.0780,1.3484
65.0791,1.4061
65.0791,1.611
65.0791,1.6184
65.0853,1.639
65.0856,1.6225
65.0866,1.7627
65.0866,1.5126
65.0866,1.4811
65.0912,1.6116
65.0912,1.7183
65.0922,1.3979
65.0922,1.4822
65.0980,1.7307
65.1075,1.5143
65.1165,1.4472
65.1204,1.4299
65.1204,1.4798
65.1214,1.4209
65.1214,1.543
65.1224,1.7798
65.1224,1.5756
65.1224,1.6073
65.1234,1.5972
65.1234,1.6782
65.1246,1.6694
65.1252,1.4204
65.1257,1.4177
65.1257,1.531
65.1267,1.5855
65.1267,1.6765
65.1277,1.8921
65.1277,1.8912
65.1277,1.4744
65.1287,1.3249
65.1287,1.3335
65.1329,1.4093
65.1335,1.4374
65.1335,1.5235
65.1345,1.4736
65.1345,1.6549
65.1391,1.6576
65.1401,1.6808
65.1401,1.612
65.1401,1.5505
65.1461,1.441
65.1468,1.3905
65.1468,1.3369
65.1478,1.2533
65.1478,1.4067
65.1525,1.476
65.1531,1.4774
65.1531,1.5934
65.1541,1.5666
65.1541,1.5389
65.1594,1.8188
65.1594,1.7284
65.1604,1.669
65.1604,1.7262
65.1666,1.6294
65.1666,1.5679
65.1676,1.5057
65.1676,1.4475
65.1686,1.456
65.1732,1.3611
65.1742,1.3742
65.1742,1.4612
65.1742,1.7031
65.1807,1.7862
65.1809,1.9097
65.1809,1.6506
65.1819,1.6634
65.1824,1.7449
65.1864,1.8218
65.1864,1.4042
65.1874,1.3853
65.1874,1.374
65.1937,1.5379
65.1937,1.4775
65.1948,1.5516
65.1948,1.7136
65.1957,1.939
65.2000,1.7327
65.2000,1.6787
65.2011,1.4841
65.2011,1.729
65.2020,1.8571
65.2064,1.7131
65.2115,1.5735
65.2257,1.3866
65.2279,1.5075
65.2289,1.5762
65.2289,1.5321
65.2299,1.6317
65.2299,1.6739
65.2309,1.7742
65.2309,1.9062
65.2319,1.4967
65.2319,1.5917
65.2334,1.6105
65.2339,1.6744
65.2339,1.363
65.2349,1.452
65.2349,1.8151
65.2359,2.1153
65.2359,2.2163
65.2369,2.2092
65.2369,1.6784
65.2369,1.8134
65.2401,1.5717
65.2411,1.3857
65.2411,1.437
65.2421,1.8582
65.2421,1.7768
65.2473,1.5267
65.2473,1.3941
65.2483,1.6058
65.2483,1.3667
65.2493,1.6232
65.2543,1.6285
65.2543,1.6418
65.2553,1.4472
65.2553,1.2857
65.2615,1.2649
65.2615,1.5653
65.2627,1.5314
65.2637,1.7206
65.2637,1.9069
65.2677,1.7648
65.2677,1.8511
65.2689,1.8897
65.2697,1.8469
65.2749,1.6204
65.2759,1.4149
65.2759,1.3575
65.2769,1.6682
65.2769,1.7421
65.2811,1.446
65.2811,1.5975
65.2824,1.4502
65.2824,1.339
65.2874,1.3767
65.2883,1.4046
65.2893,1.5859
65.2893,1.5379
65.2903,1.8121
65.2945,1.6285
65.2945,1.5435
65.2955,1.6135
65.2955,1.8891
65.2965,1.9015
65.3017,1.7342
65.3017,1.9414
65.3027,1.8863
65.3027,1.2449
65.3090,1.2473
65.3091,1.2475
65.3101,1.2765
65.3101,1.5619
65.3111,1.6174
65.3161,1.7663
65.3335,1.7425
65.3364,1.8608
65.3370,1.7333
65.3370,1.6969
65.3381,1.6056
65.3381,1.4601
65.3390,1.5756
65.3390,1.5743
65.3401,1.4519
65.3401,1.7414
65.3410,1.6045
65.3410,1.566
65.3410,1.4639
65.3422,1.3784
65.3422,1.6859
65.3433,1.3375
65.3433,1.4768
65.3443,1.4222
65.3443,1.3836
65.3443,1.5494
65.3453,1.4642
65.3453,1.5525
65.3485,1.5555
65.3494,1.5989
65.3504,1.4123
65.3504,1.3322
65.3563,1.2769
65.3563,1.5874
65.3573,1.7386
65.3573,1.6827
65.3586,1.684
65.3629,1.9984
65.3629,1.8074
65.3639,1.8492
65.3641,1.4442
65.3700,1.579
65.3700,1.8796
65.3700,2.0824
65.3710,2.0185
65.3710,1.3502
65.3755,1.2486
65.3765,1.2494
65.3765,1.2462
65.3765,1.6052
65.3828,1.8533
65.3834,1.8882
65.3834,1.7661
65.3844,1.6986
65.3844,1.6215
65.3894,1.7099
65.3894,1.6037
65.3904,1.6561
65.3904,1.3155
65.3914,1.408
65.3957,1.5535
65.3967,1.3853
65.3967,1.477
65.3979,1.5194
65.4035,1.6392
65.4035,1.7014
65.4045,1.6109
65.4045,1.528
65.4055,1.4162
65.4100,1.4067
65.4100,1.4854
65.4110,1.7987
65.4110,1.6652
65.4172,1.5572
65.4172,1.4192
65.4182,1.9924
65.4182,1.7761
65.4192,1.8604
65.4237,1.9424
65.4286,1.6932
65.4431,1.5557
65.4458,1.339
65.4463,1.2625
65.4463,1.3112
65.4463,1.3729
65.4473,1.7507
65.4473,2.1453
65.4483,1.4399
65.4492,1.2467
65.4493,1.2527
65.4506,1.6324
65.4506,1.6864
65.4514,1.5085
65.4514,1.4573
65.4524,1.7093
65.4524,1.6928
65.4524,1.4997
65.4534,1.3236
65.4534,1.4489
65.4544,1.4044
65.4544,1.7927
65.4574,1.6756
65.4584,1.6752
65.4584,1.6144
65.4584,1.6864
65.4646,1.4787
65.4646,1.4187
65.4658,1.3815
65.4658,1.4061
65.4666,2.0466
65.4710,2.0973
65.4710,1.5737
65.4720,1.6752
65.4720,1.2471
65.4783,1.2522
65.4786,1.2535
65.4786,1.3281
65.4797,1.7575
65.4797,1.8775
65.4847,1.6527
65.4855,1.5143
65.4855,1.4247
65.4864,1.5434
65.4864,1.6499
65.4916,1.7717
65.4916,1.7644
65.4916,1.6219
65.4926,1.7432
65.4991,1.5525
65.4999,1.3313
65.4999,1.288
65.5009,1.2655
65.5009,1.354
65.5052,1.6169
65.5062,1.5051
65.5062,1.6047
65.5062,1.6249
65.5124,1.4447
65.5177,1.4099
65.5182,1.6365
65.5187,1.6939
65.5187,1.6313
65.5187,1.6302
65.5197,1.7582
65.5197,1.4042
65.5207,1.2655
65.5255,1.3731
65.5255,1.582
65.5265,1.363
65.5265,1.47
65.5275,1.4217
65.5324,1.3469
65.5508,1.3941
65.5540,1.3574
65.5550,1.8211
65.5550,1.8709
65.5550,1.9561
65.5560,1.9508
65.5560,1.6547
65.5572,1.873
65.5572,1.7821
65.5572,1.4588
65.5583,1.3686
65.5583,1.3193
65.5592,1.2818
65.5592,1.5224
65.5603,1.5945
65.5603,1.6521
65.5603,1.6032
65.5613,1.569
65.5613,1.5902
65.5624,1.5501
65.5624,1.7612
65.5624,1.6007
65.5664,1.549
65.5666,1.5975
65.5674,1.7222
65.5674,1.6127
65.5726,1.5173
65.5738,1.3905
65.5738,1.5044
65.5748,1.3926
65.5748,1.3506
65.5794,1.4219
65.5801,1.3898
65.5801,1.3457
65.5811,1.2764
65.5811,1.5765
65.5863,1.6536
65.5871,1.5394
65.5871,1.3369
65.5881,1.476
65.5938,1.4522
65.5948,1.6298
65.5950,1.5668
65.5958,1.9276
65.5960,1.8709
65.5999,1.7026
65.6009,1.4117
65.6009,1.512
65.6019,1.4256
65.6075,1.6067
65.6075,1.6964
65.6086,1.4402
65.6086,1.4556
65.6095,1.6763
65.6134,1.6999
65.6134,1.5066
65.6144,1.6797
65.6144,1.7442
65.6209,1.7243
65.6209,1.5132
65.6219,1.2539
65.6219,1.287
65.6229,1.4867
65.6269,1.3965
65.6280,1.4085
65.6280,1.3521
65.6280,1.6217
65.6290,1.4856
65.6342,1.6416
65.6342,1.7108
65.6342,1.9514
65.6354,1.8771
65.6408,1.5833
65.6418,1.2651
65.6418,1.3544
65.6429,1.3431
65.6615,1.4112
65.6647,1.666
65.6650,1.6501
65.6657,1.3609
65.6667,1.5604
65.6667,1.7742
65.6667,1.492
65.6677,1.4794
65.6677,1.4835
65.6687,1.3371
65.6687,1.3819
65.6698,1.2445
65.6698,1.4125
65.6707,1.528
65.6707,1.2992
65.6717,1.5389
65.6717,1.5692
65.6727,1.6221
65.6727,1.3517
65.6760,1.2655
65.6760,1.2936
65.6771,1.4905
65.6771,1.5966
65.6781,1.7054
65.6833,1.6514
65.6843,1.3362
65.6843,1.4742
65.6853,1.5263
65.6906,1.4541
65.6906,1.3982
65.6919,1.294
65.6919,1.3139
65.6929,1.3339
65.6973,1.2674
65.6973,1.8469
65.6983,1.7654
65.6983,1.2501
65.7038,1.3919
65.7038,1.458
65.7048,1.3506
65.7048,1.2467
65.7058,1.5501
65.7102,1.4753
65.7112,1.4807
65.7112,1.4824
65.7112,1.5364
65.7167,1.6844
65.7175,1.8458
65.7185,1.8205
65.7187,1.6544
65.7187,1.693
65.7239,1.6647
65.7247,2.0901
65.7247,1.9866
65.7257,2.0423
65.7257,2.3148
65.7310,1.7266
65.7310,1.6099
65.7319,1.7138
65.7332,1.897
65.7375,1.4871
65.7383,1.2705
65.7393,1.255
65.7393,1.2486
65.7403,1.6472
65.7443,1.8242
65.7453,1.7042
65.7453,1.4766
65.7463,1.2803
65.7510,1.2434
65.7520,1.336
65.7520,1.8974
65.7520,1.471
65.7583,1.3049
65.7728,1.2435
65.7760,1.5353
65.7770,1.503
65.7777,1.5135
65.7780,1.5199
65.7780,1.7057
65.7789,1.4504
65.7789,1.2996
65.7799,1.243
65.7799,1.243
65.7809,1.3257
65.7809,1.3637
65.7819,1.2747
65.7826,1.3545
65.7833,1.2546
65.7833,1.2657
65.7843,1.3094
65.7853,1.8518
65.7863,1.6853
65.7863,1.4781
65.7863,1.5758
65.7875,1.3821
65.7875,1.5278
65.7915,1.6622
65.7925,1.5784
65.7925,1.5535
65.7925,1.5683
65.7983,1.5057
65.7992,1.3125
65.8012,1.5276
65.8012,1.6148
65.8022,1.4234
65.8046,1.5567
65.8046,1.2737
65.8056,1.266
65.8056,1.2715
65.8120,1.5167
65.8120,1.6317
65.8130,1.4421
65.8130,1.3662
65.8140,1.5293
65.8185,1.4262
65.8185,1.6285
65.8195,1.4301
65.8195,1.5503
65.8205,1.4723
65.8249,1.3075
65.8249,1.3564
65.8260,1.3167
65.8260,1.3379
65.8321,1.5569
65.8332,1.5535
65.8332,1.3431
65.8332,1.4952
65.8342,1.6722
65.8385,1.6874
65.8395,1.264
65.8395,1.2479
65.8405,1.2441
65.8452,1.4273
65.8462,1.5537
65.8462,1.5917
65.8472,1.4954
65.8472,1.3285
65.8522,1.4031
65.8532,1.3292
65.8532,1.2792
65.8532,1.3142
65.8591,1.2533
65.8598,1.2974
65.8598,1.4798
65.8609,1.3082
65.8609,1.2929
65.8661,1.5002
65.8793,1.7357
65.8826,1.6124
65.8826,1.3579
65.8835,1.4558
65.8835,1.3065
65.8845,1.2644
65.8845,1.3825
65.8855,1.365
65.8856,1.4183
65.8856,1.5079
65.8867,1.6538
65.8867,1.5353
65.8878,1.7067
65.8878,1.5825
65.8888,1.5164
65.8888,1.3973
65.8888,1.38
65.8934,1.323
65.8934,1.5351
65.8942,1.6193
65.8942,1.2479
65.8952,1.2437
65.8997,1.2743
65.9005,1.3855
65.9007,1.5432
65.9017,1.4115
65.9064,1.5865
65.9064,1.5615
65.9074,1.369
65.9074,1.3315
65.9087,1.4352
65.9126,1.354
65.9126,1.3937
65.9137,1.5242
65.9137,1.554
65.9150,1.7929
65.9190,1.7183
65.9202,1.6418
65.9202,1.3155
65.9212,1.2439
65.9270,1.2677
65.9270,1.2572
65.9279,1.2685
65.9279,1.6182
65.9289,1.5822
65.9332,1.6154
65.9342,1.756
65.9342,1.9414
65.9342,1.9144
65.9402,1.7459
65.9410,1.7466
65.9410,1.2625
65.9422,1.3084
65.9422,1.3133
65.9464,1.8353
65.9476,1.6658
65.9476,1.4369
65.9486,1.399
65.9537,1.5572
65.9537,1.3022
65.9547,1.5539
65.9547,1.5829
65.9557,1.2921
65.9602,1.4427
65.9602,1.4084
65.9612,1.6947
65.9612,1.7687
65.9622,1.4226
65.9665,1.3952
65.9675,1.5107
65.9675,1.3122
65.9685,1.3337
65.9748,1.2831
65.9902,1.2458
65.9917,1.2694
65.9923,1.6097
65.9923,1.6986
65.9923,1.4597
65.9938,1.5175
65.9938,1.6879
65.9945,1.8239
65.9945,1.3847
65.9955,1.4031
65.9955,1.5668
65.9965,1.6337
65.9965,1.6486
65.9965,1.5002
65.9975,1.2632
65.9975,1.249
65.9987,1.2548
66.0011,1.2533
66.0016,1.4014
66.0016,1.6465
66.0026,1.3941
66.0026,1.2749
66.0074,1.4824
66.0074,1.2831
66.0084,1.4245
66.0084,1.5233
66.0094,1.3545
66.0147,1.4384
66.0147,1.5915
66.0158,1.3765
66.0158,1.6148
66.0216,1.8711
66.0216,1.5554
66.0226,1.455
66.0226,1.3855
66.0236,1.2509
66.0282,1.2977
66.0292,1.3842
66.0292,1.3624
66.0292,1.3489
66.0353,1.2501
66.0353,1.3285
66.0362,1.7892
66.0362,1.9817
66.0372,1.6101
66.0414,1.3099
66.0414,1.2441
66.0425,1.2486
66.0425,1.3538
66.0484,1.3461
66.0490,1.2992
66.0494,1.2771
66.0494,1.3435
66.0506,1.4592
66.0548,1.4562
66.0560,1.5548
66.0560,1.2527
66.0570,1.2428
66.0570,1.2456
66.0612,1.3007
66.0623,1.2473
66.0623,1.3514
66.0632,1.4076
66.0693,1.4074
66.0693,1.2959
66.0703,1.243
66.0703,1.2447
66.0713,1.2561
66.0754,1.4627
66.0764,1.9399
66.0764,1.9429
66.0764,1.7172
66.0834,1.4215
66.0957,1.6467
66.0991,1.5717
66.0999,1.2895
66.0999,1.2584
66.1010,1.3649
66.1010,1.2561
66.1010,1.4781
66.1019,1.3424
66.1019,1.2627
66.1031,1.2439
66.1031,1.5919
66.1031,1.5921
66.1042,1.474
66.1042,1.2756
66.1052,1.3409
66.1052,1.4264
66.1062,1.389
66.1062,1.4597
66.1094,1.3095
66.1094,1.4074
66.1094,1.2469
66.1104,1.3047
66.1166,1.6004
66.1176,1.4402
66.1176,1.6791
66.1187,1.5019
66.1187,1.2889
66.1230,1.2432
66.1240,1.2497
66.1240,1.5614
66.1253,1.4798
66.1297,1.41
66.1303,1.2861
66.1303,1.243
66.1315,1.2439
66.1323,1.4573
66.1368,1.4601
66.1375,1.6952
66.1375,1.4245
66.1375,1.2432
66.1434,1.2724
66.1434,1.6499
66.1444,1.2479
66.1444,1.3167
66.1454,1.5437
66.1493,1.243
66.1500,1.2469
66.1500,1.3369
66.1510,1.4256
66.1510,1.7851
66.1562,1.7297
66.1572,1.3969
66.1572,1.2728
66.1572,1.4849
66.1639,1.3549
66.1639,1.2449
66.1649,1.2552
66.1649,1.2786
66.1659,1.4194
66.1701,1.5664
66.1710,1.3527
66.1710,1.2445
66.1710,1.2428
66.1773,1.2447
66.1773,1.3418
66.1783,1.4288
66.1783,1.7082
66.1793,1.6456
66.1884,1.6124
66.2007,1.5304
66.2039,1.6103
66.2049,1.5591
66.2049,1.4423
66.2059,1.4695
66.2059,1.311
66.2059,1.2921
66.2069,1.2555
66.2069,1.2809
66.2079,1.405
66.2079,1.309
66.2090,1.3911
66.2091,1.2683
66.2091,1.2482
66.2101,1.2542
66.2101,1.285
66.2111,1.3354
66.2111,1.2953
66.2121,1.2762
66.2121,1.4526
66.2121,1.2702
66.2131,1.5087
66.2171,1.4886
66.2181,1.4342
66.2181,1.2561
66.2181,1.369
66.2244,1.3028
66.2244,1.3994
66.2255,1.6
66.2255,1.687
66.2266,1.4515
66.2299,1.2936
66.2310,1.243
66.2310,1.2597
66.2321,1.4661
66.2376,1.3476
66.2386,1.5765
66.2388,1.4869
66.2388,1.3759
66.2399,1.3626
66.2442,1.4659
66.2442,1.4027
66.2453,1.2591
66.2462,1.2927
66.2462,1.4076
66.2513,1.5059
66.2513,1.3718
66.2522,1.2734
66.2522,1.2462
66.2582,1.3032
66.2582,1.3722
66.2589,1.5218
66.2589,1.7161
66.2599,1.5002
66.2644,1.4522
66.2654,1.3699
66.2656,1.5685
66.2664,1.2908
66.2715,1.2767
66.2715,1.243
66.2725,1.2452
66.2725,1.4815
66.2738,1.3654
66.2778,1.2906
66.2778,1.258
66.2788,1.2434
66.2788,1.2484
66.2846,1.2752
66.2854,1.4616
66.2854,1.2979
66.2865,1.3191
66.2865,1.5634
66.2910,1.3379
66.2910,1.3377
66.2920,1.323
66.2920,1.2535
66.2940,1.2578
66.3104,1.4054
66.3137,1.4102
66.3146,1.2597
66.3146,1.2574
66.3158,1.2668
66.3158,1.3525
66.3166,1.3782
66.3166,1.449
66.3176,1.6979
66.3186,1.4929
66.3187,1.2846
66.3187,1.2852
66.3196,1.4639
66.3196,1.6823
66.3206,1.645
66.3206,1.5325
66.3216,1.3422
66.3216,1.2441
66.3251,1.246
66.3251,1.2572
66.3261,1.2619
66.3261,1.3028
66.3318,1.39
66.3323,1.3995
66.3328,1.5792
66.3338,1.4704
66.3341,1.2985
66.3382,1.368
66.3391,1.4509
66.3400,1.2728
66.3400,1.3313
66.3412,1.425
66.3452,1.3868
66.3452,1.2803
66.3463,1.5844
66.3464,1.3817
66.3523,1.3707
66.3523,1.3909
66.3533,1.407
66.3533,1.3244
66.3543,1.2435
66.3588,1.4093
66.3598,1.2908
66.3598,1.2441
66.3598,1.2428
66.3656,1.2544
66.3666,1.3313
66.3666,1.3827
66.3666,1.2614
66.3676,1.2456
66.3743,1.2464
66.3743,1.2434
66.3753,1.245
66.3753,1.2932
66.3808,1.5884
66.3808,1.7811
66.3822,1.6412
66.3822,1.9064
66.3828,1.7438
66.3871,1.7926
66.3878,1.9204
66.3878,1.9401
66.3888,2.2392
66.3888,2.0093
66.3940,1.3165
66.3940,1.2484
66.3951,1.3058
66.3951,1.9122
66.4045,1.3232
66.4185,1.3097
66.4215,1.3099
66.4215,1.4027
66.4225,1.5452
66.4225,1.569
66.4234,1.6562
66.4234,1.6598
66.4247,1.311
66.4247,1.2482
66.4257,1.2647
66.4257,1.4577
66.4257,1.3958
66.4267,1.248
66.4267,1.2443
66.4277,1.2505
66.4277,1.2494
66.4287,1.2462
66.4287,1.284
66.4297,1.6024
66.4297,1.7481
66.4297,1.4699
66.4309,1.4719
66.4340,1.2514
66.4349,1.303
66.4349,1.3418
66.4360,1.4159
66.4361,1.6259
66.4413,1.8083
66.4413,1.8422
66.4424,1.6457
66.4424,1.246
66.4491,1.2441
66.4491,1.243
66.4502,1.2432
66.4511,1.3094
66.4511,1.6952
66.4552,1.8323
66.4562,1.4378
66.4562,1.3444
66.4562,1.245
66.4618,1.3094
66.4626,1.4033
66.4626,1.366
66.4639,1.2525
66.4639,1.4307
66.4689,1.5137
66.4692,1.3613
66.4699,1.3767
66.4699,1.3035
66.4757,1.2465
66.4757,1.4209
66.4767,1.6219
66.4767,1.651
66.4777,1.588
66.4820,1.4179
66.4830,1.3347
66.4830,1.5792
66.4830,1.6313
66.4840,2.0678
66.4883,1.6373
66.4893,1.2473
66.4893,1.2435
66.4904,1.2465
66.4961,1.2754
66.4968,1.3444
66.4968,1.4513
66.4978,1.5205
66.4978,1.5923
66.5025,1.9066
66.5035,1.8188
66.5035,1.7575
66.5035,1.6429
66.5092,1.4288
66.5102,1.2655
66.5148,1.2437
66.5289,1.2512
66.5379,1.6881
66.5384,1.5529
66.5389,1.5435
66.5389,1.4839
66.5399,1.8083
66.5399,1.6667
66.5410,1.7386
66.5410,1.6598
66.5419,1.3403
66.5419,1.2454
66.5429,1.2432
66.5429,1.3362
66.5429,1.3759
66.5439,1.5469
66.5449,1.5745
66.5449,1.4275
66.5449,1.5739
66.5459,1.4929
66.5459,1.4115
66.5469,1.6161
66.5469,1.3215
66.5479,1.4987
66.5479,1.6587
66.5479,1.5604
66.5498,1.2582
66.5508,1.4562
66.5508,1.5704
66.5508,1.6017
66.5563,1.3013
66.5572,1.7423
66.5572,1.8897
66.5582,1.3795
66.5582,1.2741
66.5632,1.3637
66.5632,1.7697
66.5642,1.7046
66.5642,1.4957
66.5701,1.2917
66.5709,1.6769
66.5716,1.4393
66.5716,1.4775
66.5726,1.6315
66.5764,1.9174
66.5764,1.8998
66.5774,1.7556
66.5774,1.8451
66.5784,1.5464
66.5836,1.4858
66.5836,1.4095
66.5846,1.3667
66.5846,1.6266
66.5909,1.6939
66.5909,1.8276
66.5919,1.6182
66.5919,1.5852
66.5929,1.5347
66.5972,1.6497
66.5982,1.93
66.5982,1.407
66.5992,1.3482
66.6038,1.402
66.6038,1.245
66.6048,1.5799
66.6048,1.6921
66.6061,1.6441
66.6103,1.7627
66.6114,1.8261
66.6114,1.7727
66.6125,1.8475
66.6175,1.9585
66.6175,2.0755
66.6363,1.7656
66.6392,2.2101
66.6392,2.3978
66.6402,2.0048
66.6402,1.6324
66.6412,1.5739
66.6415,1.3883
66.6415,1.588
66.6425,1.456
66.6425,1.5443
66.6435,1.4807
66.6435,1.4725
66.6445,1.6876
66.6445,1.8293
66.6445,1.747
66.6455,1.6609
66.6455,2.1081
66.6467,2.2246
66.6467,1.969
66.6467,1.5572
66.6477,1.3416
66.6516,1.4558
66.6516,1.2501
66.6529,1.6245
66.6529,1.8407
66.6539,1.7183
66.6583,1.7654
66.6583,1.5649
66.6594,1.8194
66.6594,1.6862
66.6645,1.6849
66.6665,1.4909
66.6675,1.5047
66.6675,1.4727
66.6685,1.4271
66.6713,1.7172
66.6713,1.7189
66.6723,1.7106
66.6723,2.0884
66.6733,1.4879
66.6787,1.2567
66.6787,1.2432
66.6797,1.7976
66.6797,1.777
66.6859,1.5224
66.6859,1.3909
66.6869,1.4676
66.6869,1.573
66.6882,1.6776
66.6918,1.5758
66.6928,1.5929
66.6928,2.005
66.6940,2.1186
66.6983,1.572
66.6996,1.258
66.6996,1.4421
66.7006,1.7112
66.7006,1.3478
66.7051,1.5452
66.7051,1.4627
66.7061,1.2955
66.7061,1.4618
66.7126,1.5992
66.7136,1.7721
66.7146,1.7018
66.7146,1.9253
66.7158,2.1291
66.7189,2.0232
66.7189,1.7736
66.7199,1.2475
66.7199,1.3645
66.7211,1.6604
66.7251,1.4224
66.7263,1.2642
66.7263,1.2537
66.7263,1.3197
66.7326,1.4391
66.7510,1.6401
66.7547,1.7809
66.7553,1.6317
66.7553,1.6667
66.7563,1.9174
66.7563,1.7164
66.7575,2.0539
66.7575,1.6697
66.7585,1.5735
66.7585,1.3322
66.7595,1.2612
66.7595,1.9626
66.7605,1.8942
66.7605,1.7982
66.7605,1.4886
66.7615,1.5621
66.7615,1.4605
66.7625,1.4997
66.7625,1.3384
66.7637,1.8175
66.7637,1.6671
66.7647,1.5531
66.7664,1.7596
66.7664,1.2713
66.7677,1.3039
66.7684,1.4659
66.7684,1.5846
66.7726,1.4944
66.7736,1.363
66.7736,1.3161
66.7747,1.563
66.7798,1.8612
66.7810,1.9079
66.7810,1.8627
66.7822,1.7579
66.7830,1.7331
66.7865,1.4393
66.7875,1.5182
66.7875,1.7789
66.7875,1.8859
66.7938,1.6217
66.7938,1.4781
66.7948,1.6795
66.7948,1.3026
66.7958,1.6028
66.7998,1.6549
66.7998,1.6999
66.8008,1.7215
66.8008,1.7657
66.8071,1.735
66.8071,1.7449
66.8081,1.6652
66.8081,1.4504
66.8094,1.4826
66.8132,1.8816
66.8132,1.8381
66.8142,1.6005
66.8142,1.984
66.8155,1.9842
66.8205,1.9786
66.8207,1.5529
66.8207,1.3313
66.8218,1.4687
66.8273,1.5743
66.8283,1.3504
66.8283,1.5612
66.8292,1.8586
66.8292,1.885
66.8340,1.6109
66.8351,1.6992
66.8351,1.3071
66.8351,1.3041
66.8412,1.6979
66.8412,1.5975
66.8422,1.5023
66.8422,1.6185
66.8436,1.8229
66.8591,1.5642
66.8617,1.6487
66.8647,1.6365
66.8658,1.6431
66.8658,1.4841
66.8668,1.2514
66.8675,1.4584
66.8679,1.9776
66.8679,2.0078
66.8689,1.7099
66.8689,1.7892
66.8699,1.9062
66.8699,1.8454
66.8709,1.3819
66.8709,1.329
66.8709,1.6654
66.8720,1.62
66.8720,1.617
66.8750,1.7194
66.8750,1.6752
66.8760,1.6967
66.8760,1.5351
66.8760,1.6739
66.8813,2.0431
66.8823,2.0258
66.8823,2.0628
66.8833,2.2039
66.8883,1.7776
66.8883,1.6802
66.8894,1.8231
66.8894,1.3504
66.8905,1.6064
66.8945,1.7041
66.8956,1.5998
66.8958,1.5488
66.8958,1.7219
66.9015,1.9204
66.9015,1.9096
66.9025,1.5593
66.9025,1.4685
66.9035,1.2876
66.9081,1.2675
66.9081,1.7461
66.9091,1.5274
66.9091,1.7061
66.9101,1.7307
66.9148,1.597
66.9153,1.7948
66.9153,1.8227
66.9164,1.6999
66.9222,1.7592
66.9222,1.8758
66.9232,1.9358
66.9232,1.4069
66.9244,1.2659
66.9284,1.2467
66.9297,1.2484
66.9297,1.9609
66.9307,1.6997
66.9351,1.8218
66.9361,1.8053
66.9361,1.8128
66.9371,1.7897
66.9371,1.9067
66.9416,1.6097
66.9426,1.4693
66.9426,1.7596
66.9436,1.7232
66.9488,1.9009
66.9498,1.8004
66.9498,1.8662
66.9498,1.7489
66.9508,1.6525
66.9582,1.5657
66.9714,1.6842
66.9744,1.9197
66.9756,2.1409
66.9756,1.6984
66.9766,1.5977
66.9766,1.9309
66.9766,1.4339
66.9776,1.4055
66.9776,1.2989
66.9786,1.3744
66.9786,1.281
66.9796,1.4899
66.9796,1.5884
66.9806,1.6821
66.9806,1.4897
66.9806,1.2887
66.9817,1.6756
66.9826,1.7526
66.9828,1.4667
66.9828,1.3662
66.9837,1.4419
66.9837,1.6161
66.9891,1.7258
66.9901,1.7841
66.9901,1.7537
66.9901,1.7532
66.9963,1.6774
66.9963,1.6227
66.9973,1.7378
66.9973,1.5409
66.9985,1.5492
67.0024,1.4937
67.0034,1.2803
67.0034,1.7624
67.0044,1.639
67.0047,1.7644
67.0098,1.6624
67.0099,2.0091
67.0099,2.0986
67.0109,2.278
67.0167,2.2999
67.0167,2.0078
67.0177,1.99
67.0177,1.9026
67.0187,2.0468
67.0231,2.3346
67.0241,2.3414
67.0241,2.1578
67.0241,1.8316
67.0303,1.6249
67.0303,1.7086
67.0313,1.9127
67.0321,1.885
67.0324,1.6125
67.0369,1.4513
67.0369,1.7419
67.0379,1.6067
67.0382,1.6506
67.0437,1.7147
67.0438,1.7937
67.0448,1.5499
67.0448,1.8601
67.0458,1.6645
67.0498,1.882
67.0508,1.6125
67.0508,1.5274
67.0508,1.417
67.0518,1.555
67.0570,1.4084
67.0570,1.255
67.0570,1.2953
67.0580,1.8751
67.0667,1.7759
67.0790,1.7202
67.0835,1.714
67.0835,1.6986
67.0844,1.8824
67.0844,1.9742
67.0854,1.8169
67.0854,1.9566
67.0864,1.8629
67.0864,1.572
67.0864,1.3292
67.0874,1.6682
67.0874,1.2885
67.0886,1.2629
67.0886,1.4601
67.0886,1.9624
67.0897,2.0018
67.0897,2.2124
67.0906,1.7982
67.0906,1.6394
67.0917,1.8392
67.0917,1.8587
67.0917,1.4766
67.0972,1.8379
67.0972,1.7873
67.0983,1.6632
67.0995,1.8619
67.1005,1.7624
67.1058,1.6832
67.1058,1.5089
67.1068,1.7671
67.1068,1.7956
67.1132,2.1753
67.1132,1.7766
67.1142,1.5426
67.1142,1.6555
67.1152,1.7417
67.1194,1.9452
67.1204,1.6682
67.1204,1.3268
67.1204,1.6639
67.1266,1.8227
67.1266,1.8891
67.1276,1.8752
67.1276,1.8342
67.1289,1.7011
67.1332,1.5531
67.1332,1.8023
67.1342,1.7969
67.1344,1.8019
67.1398,2.0363
67.1399,1.9617
67.1409,1.924
67.1409,1.4942
67.1419,1.6142
67.1463,1.8878
67.1463,1.5779
67.1473,1.2822
67.1473,1.5994
67.1483,1.6384
67.1536,1.6797
67.1536,2.0089
67.1536,1.7712
67.1546,1.9967
67.1607,2.0412
67.1607,1.6752
67.1617,1.3247
67.1617,1.2734
67.1630,1.4421
67.1669,1.6
67.1679,1.9459
67.1679,2.3097
67.1692,1.8081
67.1757,1.6937
67.1911,1.3277
67.1911,1.3596
67.1942,1.6602
67.1951,1.7952
67.1951,1.6714
67.1961,1.8192
67.1961,1.969
67.1973,2.1265
67.1973,1.9761
67.1983,1.9532
67.1990,2.1486
67.1994,2.0573
67.1994,1.7991
67.2004,1.6452
67.2004,1.9075
67.2014,1.9441
67.2014,1.6469
67.2024,1.9478
67.2026,1.8437
67.2026,1.8541
67.2036,1.9964
67.2036,1.8432
67.2081,1.8672
67.2081,2.0207
67.2092,2.0556
67.2092,2.0033
67.2102,1.9077
67.2143,1.8209
67.2154,1.8861
67.2154,2.0041
67.2167,1.614
67.2213,1.7097
67.2213,1.9919
67.2223,1.7571
67.2223,1.2765
67.2233,1.5795
67.2278,1.8694
67.2278,1.9656
67.2288,2.1775
67.2288,1.9566
67.2348,1.9951
67.2348,2.2611
67.2359,2.0547
67.2359,2.071
67.2371,2.1424
67.2411,1.6724
67.2424,1.4759
67.2424,1.7755
67.2434,1.8931
67.2434,1.9227
67.2476,2.0674
67.2487,1.8968
67.2487,1.7935
67.2500,1.9939
67.2557,1.9904
67.2557,1.7522
67.2567,2.4049
67.2567,2.0536
67.2577,1.6744
67.2619,1.888
67.2629,2.056
67.2629,2.2034
67.2629,1.4667
67.2692,1.9047
67.2692,1.7616
67.2702,1.9409
67.2702,1.9592
67.2715,2.0961
67.2751,2.1393
67.2762,2.1726
67.2762,2.0659
67.2762,1.8349
67.2843,1.7048
67.2979,1.4946
67.2993,1.6872
67.3022,1.7269
67.3022,1.4504
67.3032,1.9231
67.3032,2.0273
67.3041,1.8154
67.3041,1.813
67.3054,1.9037
67.3054,1.8469
67.3064,1.7526
67.3064,1.8649
67.3074,1.8379
67.3074,1.9126
67.3084,2.1389
67.3084,2.1323
67.3094,1.9043
67.3094,1.8278
67.3094,1.9366
67.3104,1.8597
67.3104,1.7438
67.3116,1.6551
67.3165,1.7511
67.3176,1.516
67.3177,1.4372
67.3177,1.6172
67.3187,1.7099
67.3231,1.675
67.3231,2.203
67.3241,2.2531
67.3241,2.0234
67.3301,2.0177
67.3301,1.8462
67.3311,1.3866
67.3311,1.6519
67.3321,2.0376
67.3363,1.9666
67.3363,1.9527
67.3374,1.6994
67.3374,1.5497
67.3384,1.7476
67.3436,1.6877
67.3436,1.6883
67.3446,1.8904
67.3446,2.1376
67.3509,2.0204
67.3511,1.8366
67.3511,1.6538
67.3522,1.2636
67.3522,1.419
67.3566,1.777
67.3576,1.7352
67.3576,1.8516
67.3576,1.7978
67.3640,1.5437
67.3640,1.6266
67.3654,1.9789
67.3654,2.0828
67.3660,1.5252
67.3703,1.6834
67.3703,1.6645
67.3713,2.0599
67.3713,1.8949
67.3774,1.8552
67.3774,1.7174
67.3785,1.8556
67.3785,1.8439
67.3794,1.9433
67.3837,1.8029
67.3837,1.8762
67.3847,1.6984
67.3847,1.8087
67.3857,2.0421
67.4071,1.9559
67.4103,2.0213
67.4113,2.0191
67.4113,1.9309
67.4123,1.5439
67.4123,1.5955
67.4133,1.5612
67.4133,1.3999
67.4133,1.8617
67.4143,2.0466
67.4143,2.0211
67.4153,1.6298
67.4165,1.6814
67.4165,1.9739
67.4176,2.3479
67.4176,2.3403
67.4183,2.0387
67.4183,2.0592
67.4193,2.0097
67.4193,1.4747
67.4203,1.4155
67.4203,1.5959
67.4250,1.6771
67.4250,1.8136
67.4260,1.852
67.4260,2.2913
67.4270,2.098
67.4314,1.6737
67.4324,1.5899
67.4324,1.8353
67.4335,2.0995
67.4338,2.2019
67.4382,1.9017
67.4388,1.7532
67.4388,1.5833
67.4400,1.7031
67.4455,1.6431
67.4455,1.7134
67.4465,1.9201
67.4465,1.681
67.4475,1.435
67.4522,1.9667
67.4530,2.0673
67.4530,1.9307
67.4530,1.6275
67.4592,1.8432
67.4592,2.0755
67.4602,1.9326
67.4602,2.0809
67.4612,2.0444
67.4652,1.7607
67.4663,1.2784
67.4663,1.3701
67.4673,2.0907
67.4725,2.3474
67.4725,1.9024
67.4736,1.2469
67.4736,1.3155
67.4747,1.7982
67.4788,2.2924
67.4798,2.0811
67.4801,1.9454
67.4801,1.9487
67.4812,2.3048
67.4858,1.6641
67.4864,1.525
67.4864,1.8196
67.4874,1.8179
67.4933,1.8314
67.4933,2.0894
67.4943,2.0847
67.4943,2.0099
67.4953,1.9298
67.5036,1.867
67.5171,1.7374
67.5194,1.8872
67.5204,1.6032
67.5204,1.7453
67.5214,2.0316
67.5214,2.1368
67.5224,1.9384
67.5224,1.7371
67.5234,1.9107
67.5234,1.8081
67.5244,1.7937
67.5244,1.6756
67.5254,1.8212
67.5257,1.7496
67.5263,2.0386
67.5267,2.0196
67.5267,1.8992
67.5277,1.6583
67.5277,1.5394
67.5287,1.6804
67.5287,1.9309
67.5287,1.9094
67.5330,1.7592
67.5391,1.8662
67.5391,1.7057
67.5391,1.966
67.5406,1.9097
67.5406,1.8059
67.5416,1.7873
67.5416,1.9487
67.5426,1.9637
67.5466,1.6444
67.5476,1.4339
67.5487,1.5822
67.5487,1.6664
67.5543,1.2752
67.5543,1.5544
67.5553,1.7867
67.5553,1.5812
67.5562,1.4168
67.5605,1.7751
67.5615,1.9032
67.5615,1.6185
67.5625,1.7924
67.5678,1.9167
67.5678,2.1406
67.5688,1.4202
67.5688,1.5825
67.5698,1.4147
67.5740,2.0603
67.5748,2.0714
67.5748,1.7129
67.5759,1.4665
67.5759,1.7262
67.5808,1.7716
67.5808,1.7777
67.5820,1.7491
67.5828,1.63
67.5885,1.6062
67.5885,1.7952
67.5895,1.7641
67.5895,1.4348
67.5905,1.2608
67.5946,1.6405
67.5956,2.2178
67.5956,2.1972
67.5966,2.1081
67.6020,1.9547
67.6020,1.6799
67.6030,1.5218
67.6030,1.5634
67.6040,1.8008
67.6142,1.9039
67.6281,1.588
67.6311,1.3733
67.6323,1.3146
67.6331,1.5743
67.6331,1.7699
67.6331,1.8649
67.6342,1.6159
67.6352,1.8636
67.6352,1.7873
67.6358,1.59
67.6361,1.9951
67.6361,1.9664
67.6371,1.8921
67.6371,2.1059
67.6381,1.8996
67.6381,2.191
67.6391,2.0033
67.6391,2.164
67.6391,2.2358
67.6401,2.3834
67.6411,2.2939
67.6421,2.3558
67.6431,2.1968
67.6441,2.2834
67.6451,2.2114
67.6461,1.4449
67.6491,1.2983
67.6501,1.6071
67.6511,1.8391
67.6521,2.1509
67.6521,2.056
67.6560,1.9508
67.6560,1.6472
67.6570,1.5717
67.6570,1.5923
67.6631,1.7749
67.6631,1.7888
67.6641,1.7331
67.6641,1.7774
67.6651,1.5878
67.6691,1.6073
67.6701,1.5312
67.6701,1.4929
67.6711,1.7254
67.6711,1.7177
67.6761,1.5332
67.6771,1.6478
67.6771,1.3095
67.6771,1.3814
67.6835,1.7481
67.6840,2.1192
67.6840,2.1492
67.6850,2.0736
67.6850,2.0952
67.6900,2.0037
67.6910,1.4597
67.6910,1.2608
67.6920,1.5235
67.6970,2.0974
67.6970,1.8059
67.6980,1.7056
67.6986,1.6369
67.6990,1.4417
67.7030,1.8111
67.7040,1.7749
67.7060,1.8299
67.7070,1.5218
67.7100,1.6167
67.7110,2.0851
67.7110,2.155
67.7120,1.8784
67.7130,1.7249
67.7170,1.3459
67.7170,1.2844
67.7170,1.8319
67.7180,2.0916
67.7180,2.1708
67.7419,1.7363
67.7469,1.8556
67.7469,1.7897
67.7479,1.5576
67.7489,1.4331
67.7499,1.564
67.7510,1.7305
67.7519,2.4468
67.7519,2.3965
67.7529,1.5263
67.7539,1.5614
67.7549,1.4389
67.7567,1.3515
67.7579,1.2456
67.7579,1.3322
67.7588,2.3643
67.7598,2.3215
67.7608,2.3909
67.7618,1.8096
67.7638,1.3635
67.7648,1.4873
67.7658,1.3701
67.7665,1.524
67.7668,2.1074
67.7678,2.0858
67.7678,1.5051
67.7688,1.8004
67.7688,1.8479
67.7688,1.7348
67.7698,1.7922
67.7698,1.8059
67.7709,1.7119
67.7709,1.6335
67.7709,1.6465
67.7719,1.7335
67.7719,1.9731
67.7786,1.9958
67.7786,1.9502
67.7786,1.7395
67.7786,1.5081
67.7796,1.6784
67.7849,1.6562
67.7849,1.6639
67.7849,1.9992
67.7858,1.7777
67.7920,1.3062
67.7920,1.6043
67.7920,1.8848
67.7920,1.7916
67.7932,1.2655
67.7989,1.6789
67.7989,2.2163
67.7989,1.9626
67.7996,1.8996
67.8056,1.9349
67.8056,1.8428
67.8056,1.3577
67.8056,1.7534
67.8066,1.7464
67.8118,1.78
67.8118,1.9101
67.8118,1.6921
67.8128,1.6028
67.8128,2.0241
67.8189,1.5085
67.8189,1.6838
67.8189,1.5904
67.8189,1.7479
67.8256,1.8848
67.8267,1.9641
67.8267,2.0282
67.8276,2.437
67.8276,2.3215
67.8390,2.3459
67.8409,2.1029
67.8409,1.2833
67.8409,1.3487
67.8419,1.9431
67.8419,2.0192
67.8419,1.9525
67.8419,1.6324
67.8429,1.5917
67.8476,1.6523
67.8476,1.5486
67.8476,1.8473
67.8487,2.2236
67.8550,1.7221
67.8550,1.5902
67.8550,1.744
67.8550,2.0234
67.8560,1.9866
67.8611,1.7211
67.8611,1.5904
67.8611,1.759
67.8611,2.1226
67.8621,1.7612
67.8681,1.7564
67.8681,1.6652
67.8681,1.5765
67.8681,1.6516
67.8758,1.7768
67.8758,2.1522
67.8769,1.948
67.8769,1.8709
67.8769,2.1104
67.8821,2.1541
67.8821,2.1674
67.8831,2.1477
67.8831,1.7897
67.8890,1.5932
67.8890,1.5887
67.8900,1.5833
67.8900,1.6011
67.8910,1.6649
67.8955,1.6471
67.8955,2.2122
67.8965,2.2654
67.8965,2.0102
67.9022,1.582
67.9022,1.7892
67.9032,1.8816
67.9032,1.9808
67.9043,2.1501
67.9083,1.8087
67.9094,1.6729
67.9094,1.9619
67.9105,1.2475
67.9107,1.2737
67.9159,1.2897
67.9159,1.5921
67.9167,1.654
67.9167,1.6917
67.9226,1.7147
67.9234,1.6157
67.9234,1.9412
67.9244,2.0286
67.9244,2.1168
67.9292,1.9609
67.9302,1.2902
67.9302,1.243
67.9302,1.2428
67.9364,1.2441
67.9364,2.0416
67.9374,2.0061
67.9374,1.7462
67.9389,1.8571
67.9480,2.0271
67.9564,1.9262
67.9594,2.1012
67.9604,1.6043
67.9604,1.7596
67.9617,1.2627
67.9617,1.2932
67.9617,1.5732
67.9627,1.6174
67.9627,1.7027
67.9637,1.5254
67.9637,1.7376
67.9647,1.4046
67.9647,1.2439
67.9657,1.8032
67.9662,1.5878
67.9667,1.6921
67.9667,1.8057
67.9704,1.8297
67.9704,1.7492
67.9714,1.8385
67.9714,1.759
67.9724,1.3941
67.9768,1.3377
67.9778,1.6922
67.9778,1.7753
67.9778,1.8113
67.9833,2.1012
67.9842,1.7228
67.9851,1.609
67.9851,1.6887
67.9863,1.4153
67.9902,1.3767
67.9913,1.4492
67.9913,1.4798
67.9913,1.4065
67.9972,1.9921
67.9978,2.2909
67.9988,2.0703
67.9988,1.7556
67.9998,1.3502
68.0033,1.4684
68.0033,1.6504
68.0043,1.8964
68.0043,1.7941
68.0053,1.7663
68.0105,2.2038
68.0105,1.9231
68.0116,1.4847
68.0116,1.3191
68.0179,1.2854
68.0189,1.7091
68.0189,1.7777
68.0201,1.6761
68.0201,1.9291
68.0242,1.6718
68.0254,1.6889
68.0254,1.5094
68.0265,1.2479
68.0304,1.3857
68.0319,1.6778
68.0327,1.6682
68.0327,1.9041
68.0337,1.5724
68.0374,1.2647
68.0374,1.4483
68.0384,1.3817
68.0384,1.9591
68.0448,1.8895
68.0457,1.6921
68.0624,1.4877
68.0656,1.2846
68.0666,1.2627
68.0666,1.5539
68.0676,2.2527
68.0676,1.7924
68.0686,1.858
68.0686,1.6546
68.0697,1.6744
68.0698,1.7271
68.0698,1.7014
68.0709,1.7314
68.0709,1.8265
68.0719,1.4907
68.0719,1.4873
68.0729,1.2775
68.0729,1.4391
68.0739,1.5188
68.0739,2.0414
68.0739,1.7282
68.0751,1.5925
68.0790,1.3639
68.0790,1.7157
68.0800,1.9384
68.0800,1.8837
68.0813,1.7967
68.0851,1.8726
68.0851,1.4354
68.0861,1.6472
68.0861,1.9307
68.0926,1.9019
68.0927,1.3255
68.0938,1.2846
68.0938,1.4594
68.0948,1.8286
68.0984,1.9557
68.0994,2.0026
68.1004,1.8496
68.1004,2.0498
68.1014,1.9388
68.1056,2.071
68.1056,1.8462
68.1066,1.7048
68.1066,1.8749
68.1130,1.6396
68.1130,1.4772
68.1142,1.5608
68.1142,1.7357
68.1152,1.774
68.1196,1.6002
68.1196,1.7187
68.1206,1.9189
68.1206,1.8394
68.1264,2.0129
68.1264,1.8842
68.1274,1.6294
68.1274,1.5111
68.1284,1.533
68.1324,1.6889
68.1324,1.488
68.1334,1.3365
68.1334,1.2434
68.1398,1.3849
68.1398,1.5966
68.1411,1.7586
68.1411,1.9581
68.1422,1.8436
68.1464,1.9322
68.1464,1.5068
68.1474,1.3797
68.1474,1.6125
68.1484,1.8006
68.1526,2.1117
68.1536,1.7446
68.1536,1.606
68.1536,1.3249
68.1598,1.2469
68.1740,1.4775
68.1770,1.6101
68.1770,1.8822
68.1780,1.6289
68.1780,1.8293
68.1790,1.9324
68.1790,1.6249
68.1800,1.5126
68.1800,1.8691
68.1813,1.7837
68.1813,1.7627
68.1823,1.5066
68.1823,1.3947
68.1833,1.6551
68.1833,1.2467
68.1843,1.2593
68.1843,1.3425
68.1870,1.3609
68.1870,1.8745
68.1880,1.9264
68.1880,1.9733
68.1890,1.9697
68.1933,2.0361
68.1941,1.7033
68.1941,1.4631
68.1951,1.3529
68.1951,1.5518
68.2004,1.5754
68.2014,1.3639
68.2014,1.6919
68.2025,1.5801
68.2078,1.5314
68.2089,1.5449
68.2090,1.7879
68.2090,1.7776
68.2101,1.7959
68.2144,1.8267
68.2154,1.5591
68.2158,1.4316
68.2164,1.344
68.2210,1.4539
68.2218,1.4629
68.2218,1.405
68.2228,1.5814
68.2228,1.8156
68.2276,1.8366
68.2276,1.7356
68.2286,1.3825
68.2286,1.2435
68.2346,1.3002
68.2346,1.491
68.2356,1.6793
68.2356,1.8807
68.2366,1.9283
68.2409,1.6506
68.2419,1.6195
68.2419,1.7971
68.2429,1.7309
68.2432,1.7946
68.2483,2.0543
68.2485,2.245
68.2485,2.2354
68.2497,1.9868
68.2552,1.6643
68.2560,1.8286
68.2560,2.0703
68.2570,2.633
68.2570,2.3461
68.2619,1.7202
68.2629,1.8653
68.2629,1.8218
68.2629,1.5876
68.2692,1.519
68.2826,1.5953
68.2854,1.6892
68.2854,1.6532
68.2864,1.396
68.2864,1.2499
68.2877,1.2869
68.2883,1.2672
68.2887,1.482
68.2887,1.7296
68.2897,1.7372
68.2897,2.0102
68.2907,1.8653
68.2907,1.6823
68.2917,1.3815
68.2917,1.2987
68.2917,1.3206
68.2929,1.7725
68.2929,1.8914
68.2949,1.9868
68.2959,1.8683
68.2959,1.4123
68.2969,1.4832
68.3029,1.6714
68.3036,1.9202
68.3036,1.7504
68.3047,1.5985
68.3047,1.567
68.3091,1.3887
68.3091,1.3116
68.3102,1.2512
68.3102,1.3575
68.3163,1.393
68.3174,1.7399
68.3174,1.8734
68.3184,2.0659
68.3184,1.3536
68.3227,1.3656
68.3227,1.6283
68.3238,1.8031
68.3238,1.4207
68.3300,1.4207
68.3300,1.3354
68.3310,1.423
68.3321,1.774
68.3322,1.467
68.3361,1.5884
68.3371,1.4577
68.3371,1.5004
68.3381,1.9977
68.3384,1.8006
68.3425,1.7556
68.3437,1.6452
68.3437,1.5516
68.3447,1.7888
68.3505,1.7894
68.3505,1.5824
68.3515,1.254
68.3515,1.6305
68.3525,1.6649
68.3567,1.6973
68.3579,1.8023
68.3587,1.7196
68.3587,1.6026
68.3639,1.4753
68.3649,1.5252
68.3653,1.7114
68.3653,1.6726
68.3663,1.5947
68.3706,1.8404
68.3706,1.8756
68.3716,1.8824
68.3716,2.0356
68.3778,1.4535
68.3912,1.4001
68.3945,1.5299
68.3945,1.6155
68.3955,1.6112
68.3955,1.7656
68.3955,1.8121
68.3965,1.6846
68.3965,1.5707
68.3975,1.3238
68.3975,1.2975
68.3989,1.8224
68.3989,1.7423
68.4000,1.69
68.4000,1.8591
68.4010,1.9431
68.4010,1.72
68.4020,1.4976
68.4020,1.3409
68.4046,1.4378
68.4054,1.5325
68.4054,1.5921
68.4064,2.0054
68.4116,2.2236
68.4116,2.3198
68.4126,2.0162
68.4126,1.7976
68.4136,1.6853
68.4173,1.5242
68.4183,1.3729
68.4183,1.5278
68.4193,1.4832
68.4252,1.6497
68.4252,1.4969
68.4262,1.5216
68.4262,1.7832
68.4274,1.6516
68.4319,1.3935
68.4325,1.372
68.4325,1.512
68.4337,1.2702
68.4337,1.5919
68.4377,1.536
68.4389,1.4768
68.4389,1.7329
68.4389,2.035
68.4456,1.7399
68.4465,1.533
68.4465,1.519
68.4475,1.531
68.4475,1.4654
68.4521,1.7262
68.4531,1.5614
68.4531,1.3013
68.4531,1.2432
68.4593,1.4095
68.4593,1.7746
68.4603,1.7892
68.4603,1.4106
68.4616,1.5576
68.4652,1.7016
68.4663,1.9926
68.4663,2.1104
68.4673,2.1046
68.4729,1.7466
68.4729,1.7027
68.4740,1.8263
68.4740,1.9514
68.4750,1.8362
68.4788,1.7809
68.4788,1.8557
68.4798,1.6075
68.4798,1.5567
68.4808,1.8323
68.4991,1.8904
68.5020,1.843
68.5030,1.6883
68.5030,1.7935
68.5030,1.804
68.5040,1.5162
68.5040,1.4252
68.5050,1.5644
68.5050,1.834
68.5062,1.6532
68.5066,1.6898
68.5073,1.7757
68.5073,1.6834
68.5073,1.7219
68.5083,1.9662
68.5083,1.7067
68.5093,1.6628
68.5093,1.8946
68.5128,1.8608
68.5137,1.7003
68.5137,1.6285
68.5146,1.3699
68.5204,1.4897
68.5204,1.663
68.5214,1.7429
68.5214,1.7762
68.5225,1.7843
68.5266,1.8475
68.5276,1.7245
68.5276,1.5878
68.5286,1.8107
68.5289,1.4157
68.5338,1.5413
68.5338,1.873
68.5351,1.8764
68.5351,1.2657
68.5406,1.333
68.5456,1.2501
68.5466,1.2464
68.5469,1.3647
68.5469,1.8321
68.5479,1.3294
68.5489,1.3371
68.5489,1.5304
68.5499,1.6864
68.5543,1.5917
68.5543,1.6677
68.5554,1.5739
68.5554,1.3679
68.5564,1.632
68.5625,1.8917
68.5625,1.9416
68.5635,1.8788
68.5635,1.4044
68.5692,1.3358
68.5695,1.252
68.5706,1.2912
68.5706,1.4087
68.5716,1.6452
68.5757,1.4515
68.5757,1.6604
68.5767,1.7612
68.5767,1.7882
68.5783,1.768
68.5826,1.8801
68.5826,1.9034
68.5836,1.5441
68.5836,1.5762
68.5900,1.5297
68.5900,1.6774
68.5910,1.4622
68.5910,1.455
68.5922,1.4286
68.5979,1.2949
68.6110,1.5955
68.6142,1.4665
68.6153,1.7916
68.6153,1.9309
68.6162,1.6596
68.6162,1.8722
68.6172,1.5861
68.6172,1.2514
68.6182,1.4082
68.6182,1.59
68.6192,1.4393
68.6194,1.7174
68.6194,1.7177
68.6205,1.6958
68.6205,1.6636
68.6205,1.7547
68.6215,1.8657
68.6229,1.7541
68.6241,1.5516
68.6241,1.3392
68.6251,1.5287
68.6251,1.7076
68.6301,1.5139
68.6301,1.5057
68.6312,1.5194
68.6313,1.5672
68.6373,2.0181
68.6373,1.8377
68.6384,1.6883
68.6384,1.47
68.6393,1.281
68.6437,1.4845
68.6447,1.6486
68.6447,1.6932
68.6447,1.5743
68.6508,1.6071
68.6508,1.6163
68.6518,1.5715
68.6518,1.2439
68.6531,1.2432
68.6571,1.4699
68.6581,1.9105
68.6581,1.8106
68.6581,1.7959
68.6644,1.8175
68.6652,1.7646
68.6656,1.3425
68.6656,1.2462
68.6666,1.4065
68.6704,1.4828
68.6704,1.5524
68.6714,1.5705
68.6714,1.618
68.6724,1.7099
68.6777,1.6394
68.6777,1.5739
68.6787,1.4048
68.6787,1.8392
68.6850,1.9574
68.6850,2.0189
68.6860,1.7753
68.6860,1.7886
68.6873,1.3724
68.6911,1.3002
68.6918,1.4879
68.6930,1.3364
68.6931,1.5486
68.6987,1.7382
68.6987,1.5599
68.6998,1.5749
68.6998,1.6065
68.6998,1.6234
68.7117,1.8252
68.7207,1.5482
68.7237,1.456
68.7251,1.8085
68.7257,2.1229
68.7257,1.6722
68.7257,1.648
68.7267,1.5859
68.7267,1.8319
68.7277,1.9889
68.7277,1.485
68.7287,1.4202
68.7287,1.6302
68.7297,1.7834
68.7297,1.5051
68.7297,1.4717
68.7307,1.579
68.7307,1.6797
68.7321,1.7588
68.7327,1.8687
68.7327,1.7567
68.7338,1.861
68.7347,1.8085
68.7389,1.2859
68.7399,1.4159
68.7399,1.924
68.7399,1.795
68.7460,1.5053
68.7460,1.3281
68.7470,1.5769
68.7470,1.9517
68.7480,1.6712
68.7522,1.5827
68.7530,1.5081
68.7530,1.5805
68.7540,1.4939
68.7589,1.4558
68.7600,1.3004
68.7609,1.2612
68.7609,1.4059
68.7619,1.4684
68.7659,1.4369
68.7659,1.6776
68.7672,1.6429
68.7672,1.3988
68.7680,1.5533
68.7731,1.5794
68.7731,1.6422
68.7731,1.723
68.7741,1.8361
68.7800,1.9034
68.7807,1.9285
68.7817,1.7569
68.7817,1.7845
68.7826,1.8244
68.7865,1.2666
68.7875,1.3236
68.7875,1.371
68.7875,1.5246
68.7937,2.0959
68.7937,1.9441
68.7947,1.5023
68.7947,1.2728
68.7958,1.7296
68.7998,1.7774
68.8005,1.6876
68.8005,1.8235
68.8015,1.9377
68.8062,1.6034
68.8075,1.291
68.8086,1.5379
68.8086,1.7759
68.8096,1.9662
68.8180,1.6234
68.8318,1.3731
68.8347,1.3671
68.8352,1.2779
68.8357,1.3883
68.8357,1.327
68.8370,1.7491
68.8370,1.8062
68.8380,1.5831
68.8380,1.7147
68.8390,1.7371
68.8390,1.6461
68.8400,1.3095
68.8400,1.2524
68.8410,1.4025
68.8410,1.4715
68.8422,1.6118
68.8422,1.7867
68.8422,2.0429
68.8432,1.6043
68.8432,1.6851
68.8442,1.5561
68.8442,1.5276
68.8477,1.5012
68.8486,1.6602
68.8497,1.5885
68.8497,1.5865
68.8546,1.4262
68.8546,1.3002
68.8556,1.2762
68.8556,1.3352
68.8566,1.5563
68.8608,1.8237
68.8608,1.6594
68.8619,1.4706
68.8619,1.9088
68.8629,1.8936
68.8682,1.3
68.8682,1.3437
68.8691,1.422
68.8694,1.5079
68.8754,1.4247
68.8755,1.8724
68.8755,1.9862
68.8766,2.2538
68.8766,2.2788
68.8819,2.305
68.8823,2.4961
68.8823,2.2439
68.8833,1.8274
68.8884,1.5299
68.8894,2.1271
68.8896,2.3031
68.8904,1.9504
68.8904,1.9872
68.8949,1.8627
68.8949,1.9024
68.8959,2.0926
68.8959,1.8642
68.9021,1.5589
68.9021,1.4376
68.9031,1.6577
68.9031,1.6952
68.9043,1.5548
68.9081,1.4565
68.9081,1.8301
68.9092,1.8139
68.9092,1.7729
68.9104,1.7001
68.9155,1.5687
68.9156,1.3847
68.9156,1.2884
68.9166,1.501
68.9246,1.6765
68.9385,1.6157
68.9415,1.5201
68.9425,1.4252
68.9425,1.6305
68.9436,1.6512
68.9438,1.449
68.9438,1.7354
68.9448,1.6414
68.9448,1.648
68.9458,1.3604
68.9458,1.5199
68.9468,1.6827
68.9468,1.8164
68.9478,1.831
68.9478,1.5758
68.9493,1.5824
68.9497,1.5207
68.9497,1.4937
68.9507,1.7039
68.9507,1.8406
68.9517,1.9088
68.9519,1.7453
68.9555,1.7361
68.9555,1.3519
68.9564,1.3577
68.9564,1.2758
68.9574,1.3575
68.9627,1.5497
68.9627,1.7196
68.9637,1.7661
68.9637,1.5055
68.9699,1.5368
68.9708,1.6277
68.9718,1.7492
68.9721,1.3169
68.9728,1.2741
68.9760,1.2672
68.9768,1.7281
68.9780,1.732
68.9788,1.6538
68.9830,1.5452
68.9839,1.7382
68.9841,1.7699
68.9848,1.5475
68.9848,1.5805
68.9896,1.5792
68.9896,1.5074
68.9907,1.8002
68.9907,1.6077
68.9967,1.5685
68.9967,1.8526
68.9977,1.792
68.9987,1.4762
68.9987,1.4284
69.0029,1.2945
69.0029,1.2953
69.0039,1.4678
69.0039,1.5389
69.0049,1.4993
69.0102,1.548
69.0102,1.7224
69.0102,1.9043
69.0112,1.6463
69.0173,1.4149
69.0173,1.4147
69.0183,1.3808
69.0183,1.6559
69.0196,1.684
69.0235,2.0022
69.0246,1.7569
69.0246,1.4937
69.0256,1.5209
69.0335,1.4462
69.0470,1.6077
69.0510,1.7151
69.0510,1.6617
69.0520,1.6866
69.0520,1.6932
69.0530,1.5606
69.0530,1.8392
69.0542,1.7524
69.0542,1.6497
69.0552,1.7897
69.0552,1.8276
69.0552,1.7438
69.0562,1.7837
69.0562,1.5424
69.0572,1.2805
69.0572,1.3992
69.0582,1.594
69.0582,1.518
69.0592,1.6157
69.0592,1.9812
69.0592,2.1241
69.0604,1.5342
69.0644,1.3294
69.0664,1.4076
69.0664,1.4307
69.0675,1.8949
69.0675,1.8201
69.0710,1.8582
69.0710,2.071
69.0720,1.4395
69.0720,1.4166
69.0778,1.4616
69.0778,1.3922
69.0789,1.4181
69.0789,1.4824
69.0799,1.633
69.0842,1.7007
69.0842,1.8171
69.0852,1.8295
69.0852,1.8089
69.0911,1.6142
69.0911,1.8711
69.0922,1.9791
69.0922,1.5975
69.0931,1.2505
69.0976,1.4438
69.0986,1.675
69.0986,1.9412
69.0999,1.4224
69.0999,1.4745
69.1049,1.4597
69.1050,1.4837
69.1050,1.5128
69.1061,1.5362
69.1118,1.5454
69.1118,2.032
69.1129,2.3577
69.1129,2.1942
69.1139,2.2293
69.1182,1.8053
69.1192,1.6679
69.1192,1.8947
69.1192,1.9454
69.1253,1.8722
69.1253,1.8728
69.1263,1.7367
69.1263,1.6459
69.1275,1.7196
69.1318,1.7189
69.1318,1.651
69.1330,1.7537
69.1330,1.8246
69.1404,1.8391
69.1549,1.564
69.1579,1.6381
69.1589,1.7659
69.1591,1.6771
69.1599,1.7822
69.1599,1.7035
69.1610,1.5644
69.1610,1.6669
69.1621,1.5314
69.1621,1.465
69.1631,1.5645
69.1631,1.6673
69.1631,1.9124
69.1641,1.5499
69.1641,1.8186
69.1650,1.8025
69.1660,1.6444
69.1660,1.3124
69.1673,1.3302
69.1673,1.407
69.1673,1.6133
69.1684,1.5297
69.1728,1.7421
69.1728,1.6028
69.1738,1.7339
69.1738,1.7646
69.1748,1.7624
69.1788,1.4442
69.1799,1.3551
69.1799,1.3214
69.1799,1.5368
69.1860,1.6045
69.1860,1.6259
69.1871,1.6864
69.1871,1.5117
69.1881,1.7106
69.1923,1.6844
69.1923,1.3099
69.1933,1.2503
69.1933,1.2792
69.1943,1.9204
69.1995,1.8016
69.1995,1.6456
69.2005,1.5825
69.2007,1.2897
69.2062,1.2559
69.2072,1.2732
69.2072,1.7849
69.2072,1.8471
69.2082,1.7494
69.2129,1.7689
69.2139,1.9493
69.2139,1.78
69.2139,1.6919
69.2200,1.5486
69.2200,1.5216
69.2210,1.5932
69.2210,1.5859
69.2220,1.3791
69.2263,1.3088
69.2263,1.8192
69.2273,1.7551
69.2273,1.6517
69.2334,1.8932
69.2334,1.453
69.2344,1.435
69.2344,1.4984
69.2356,1.5134
69.2396,1.5582
69.2408,1.6763
69.2409,1.891
69.2409,1.9227
69.2420,1.6566
69.2561,1.4924
69.2646,1.4586
69.2676,1.5692
69.2685,1.7234
69.2685,1.8192
69.2697,1.3975
69.2697,1.3583
69.2708,1.5
69.2708,1.5267
69.2718,1.6546
69.2718,1.7335
69.2718,1.4955
69.2728,1.4474
69.2728,1.534
69.2738,1.9724
69.2738,2.2283
69.2749,1.8128
69.2750,1.4909
69.2750,1.4007
69.2760,1.5726
69.2760,1.5964
69.2770,1.5364
69.2805,1.3716
69.2805,1.2458
69.2815,1.9022
69.2815,2.1064
69.2825,1.8428
69.2869,1.5816
69.2869,1.2585
69.2881,1.3892
69.2890,1.5261
69.2890,1.3292
69.2952,1.6176
69.2963,1.6313
69.2964,1.6817
69.2964,1.7262
69.3030,1.5512
69.3030,1.4699
69.3040,1.2762
69.3040,1.5066
69.3050,1.5585
69.3093,1.6748
69.3093,1.6433
69.3103,1.4717
69.3103,1.6101
69.3165,1.5149
69.3165,1.69
69.3175,1.7322
69.3175,1.7095
69.3188,2.0922
69.3226,2.101
69.3236,1.8269
69.3236,1.393
69.3246,1.5557
69.3301,1.461
69.3302,1.6664
69.3313,1.8479
69.3317,1.7337
69.3317,1.5662
69.3361,1.6358
69.3361,1.3739
69.3371,1.488
69.3371,1.5964
69.3381,1.8932
69.3434,1.9384
69.3434,1.6814
69.3444,1.6699
69.3444,1.7174
69.3505,1.6746
69.3505,1.948
69.3516,2.1186
69.3516,2.0496
69.3528,1.8546
69.3724,1.489
69.3756,1.438
69.3766,1.3114
69.3772,1.4397
69.3776,1.5884
69.3776,1.6817
69.3786,1.4832
69.3786,1.8308
69.3786,2.0312
69.3796,1.8812
69.3796,2.0941
69.3806,1.7866
69.3806,2.023
69.3816,1.9553
69.3816,1.4725
69.3826,1.3727
69.3826,1.4886
69.3836,1.5779
69.3836,1.5585
69.3846,1.5113
69.3846,1.5128
69.3846,1.9847
69.3855,1.9137
69.3908,1.6846
69.3908,1.6891
69.3918,2.0869
69.3918,1.6604
69.3984,1.4899
69.3990,1.4048
69.4002,1.4194
69.4002,1.5677
69.4011,1.612
69.4042,1.4172
69.4052,1.4575
69.4052,1.3774
69.4064,1.3611
69.4118,1.39
69.4118,1.3484
69.4128,1.533
69.4128,1.9399
69.4128,1.7468
69.4176,1.8124
69.4181,1.7076
69.4181,1.6009
69.4191,1.8188
69.4248,1.7792
69.4248,1.7446
69.4259,1.6161
69.4259,1.5561
69.4269,1.6577
69.4317,1.4835
69.4322,1.5784
69.4322,1.7627
69.4322,1.7181
69.4332,1.5385
69.4383,1.8464
69.4383,1.8449
69.4394,1.7967
69.4394,1.7142
69.4457,1.9566
69.4457,2.0974
69.4467,1.9823
69.4467,1.6816
69.4479,1.6834
69.4519,1.4202
69.4529,1.446
69.4529,1.6444
69.4529,1.4262
69.4594,1.5267
69.4594,1.8126
69.4604,1.8771
69.4604,1.6274
69.4604,1.431
69.4722,1.2762
69.4817,1.5008
69.4846,1.465
69.4846,1.7779
69.4858,1.7056
69.4858,1.7387
69.4866,1.8908
69.4866,1.6457
69.4878,1.5029
69.4878,1.6176
69.4878,1.6917
69.4888,1.5119
69.4888,1.792
69.4898,1.9555
69.4898,1.8237
69.4908,1.4312
69.4908,1.4494
69.4918,1.5302
69.4932,1.6885
69.4932,1.6037
69.4941,1.6058
69.4941,1.7736
69.4951,1.7402
69.4993,1.3997
69.5003,1.2552
69.5003,1.252
69.5003,1.8014
69.5066,1.8683
69.5066,1.9546
69.5076,1.7003
69.5076,1.6816
69.5086,1.8344
69.5130,1.9264
69.5140,2.1638
69.5140,2.0344
69.5152,1.9337
69.5202,1.9336
69.5205,2.0014
69.5213,2.1996
69.5213,2.2448
69.5223,2.3479
69.5260,2.2514
69.5271,2.0631
69.5271,1.9118
69.5271,1.8471
69.5280,1.4579
69.5334,1.3617
69.5334,1.4136
69.5343,1.5458
69.5343,1.6606
69.5407,1.7759
69.5417,1.7119
69.5417,1.344
69.5427,1.3755
69.5430,1.4492
69.5469,1.5625
69.5527,1.5694
69.5527,1.6397
69.5537,1.744
69.5537,1.7022
69.5537,1.465
69.5547,1.564
69.5547,1.6471
69.5557,1.7907
69.5607,1.5569
69.5607,1.4513
69.5617,1.4247
69.5617,1.9311
69.5678,1.618
69.5678,1.5149
69.5688,1.3514
69.5688,1.5675
69.5698,1.8021
69.5752,1.8646
69.5924,2.0228
69.5954,1.9433
69.5954,1.5949
69.5964,1.4271
69.5964,1.5694
69.5974,1.8226
69.5974,1.9512
69.5984,1.8259
69.5994,1.5775
69.5994,1.558
69.6004,1.8291
69.6004,1.8162
69.6014,1.8269
69.6016,2.1076
69.6024,2.2591
69.6024,1.5664
69.6034,1.2499
69.6034,1.2509
69.6044,1.4888
69.6047,1.6531
69.6056,1.6999
69.6056,1.6609
69.6081,1.5344
69.6091,1.5197
69.6091,1.5923
69.6091,1.7729
69.6154,1.7168
69.6157,1.8263
69.6166,1.6801
69.6174,1.6489
69.6174,1.9026
69.6219,1.8807
69.6219,1.3497
69.6230,1.2475
69.6230,1.4127
69.6240,1.8649
69.6282,1.7599
69.6282,1.6379
69.6292,1.6463
69.6292,1.5653
69.6356,1.3967
69.6366,1.7455
69.6366,2.1595
69.6377,2.0084
69.6377,2.0596
69.6419,2.0299
69.6430,1.4449
69.6430,1.6388
69.6441,1.5767
69.6488,1.4466
69.6488,1.6215
69.6499,1.5799
69.6499,1.5201
69.6509,1.6699
69.6553,1.7897
69.6563,1.7627
69.6563,1.7498
69.6563,1.8589
69.6624,1.6568
69.6624,1.7491
69.6634,1.5848
69.6634,1.6223
69.6644,1.9354
69.6688,2.1359
69.6688,1.9936
69.6700,1.5882
69.6708,1.2689
69.6708,1.3065
69.6750,1.3789
69.6760,1.8569
69.6760,1.7326
69.6772,1.7207
69.6829,1.789
69.6837,1.9
69.6837,2.0359
69.6837,1.9441
69.6901,1.9598
69.7027,1.9461
69.7056,1.858
69.7056,1.7648
69.7065,1.6619
69.7065,1.3155
69.7075,1.4438
69.7075,1.7821
69.7085,1.9204
69.7085,1.8897
69.7098,1.7552
69.7098,1.4749
69.7098,1.4072
69.7108,1.7194
69.7108,1.63
69.7118,1.8002
69.7118,2.0464
69.7128,1.9947
69.7128,1.5404
69.7156,1.2679
69.7173,1.7577
69.7183,1.7074
69.7183,1.627
69.7193,1.3917
69.7234,1.7832
69.7234,1.6892
69.7234,1.8869
69.7244,1.942
69.7303,1.7504
69.7303,1.8196
69.7317,1.6397
69.7324,1.9375
69.7333,1.6984
69.7365,1.7228
69.7375,1.9943
69.7375,2.1436
69.7388,1.906
69.7440,1.6727
69.7440,1.4331
69.7451,1.284
69.7451,1.7056
69.7451,2.0519
69.7503,2.143
69.7503,2.0264
69.7513,1.699
69.7523,1.3118
69.7566,1.333
69.7575,2.2808
69.7575,2.3268
69.7585,2.2523
69.7585,2.0455
69.7631,1.6435
69.7639,1.5957
69.7653,1.4601
69.7659,1.5981
69.7659,1.6199
69.7701,1.383
69.7711,1.7594
69.7711,1.6467
69.7721,1.5353
69.7777,1.5677
69.7788,1.6977
69.7796,1.8389
69.7796,1.6266
69.7806,1.5585
69.7836,1.8115
69.7849,1.9174
69.7849,2.1351
69.7849,1.7498
69.7912,1.2604
69.7912,1.3755
69.7922,1.5563
69.7922,1.7239
69.7932,1.5321
69.8046,1.3555
69.8132,1.5004
69.8172,1.5188
69.8183,1.8702
69.8184,1.7909
69.8192,1.6714
69.8192,1.452
69.8192,1.3435
69.8202,1.608
69.8202,1.6005
69.8212,1.6924
69.8212,1.5719
69.8222,1.4526
69.8222,1.5017
69.8222,1.6851
69.8232,1.2664
69.8232,1.3686
69.8243,1.492
69.8253,1.471
69.8253,1.6622
69.8263,1.5158
69.8263,1.6296
69.8263,1.3574
69.8319,1.4151
69.8323,1.5042
69.8334,1.5829
69.8344,1.5034
69.8388,1.6236
69.8388,1.8409
69.8398,2.0243
69.8398,1.7704
69.8410,1.6471
69.8449,1.6778
69.8449,1.8132
69.8460,1.7657
69.8460,1.5274
69.8515,1.4357
69.8526,1.5696
69.8533,1.5825
69.8533,1.5709
69.8543,1.3425
69.8586,1.3699
69.8586,1.4933
69.8596,1.5216
69.8596,1.7573
69.8606,1.4712
69.8658,1.5402
69.8658,1.6405
69.8658,1.7099
69.8668,1.7123
69.8729,1.6879
69.8729,1.72
69.8739,1.4359
69.8739,1.4575
69.8752,1.6759
69.8792,1.8841
69.8802,1.6317
69.8802,1.7312
69.8802,1.7747
69.8866,1.3545
69.8867,1.573
69.8878,1.4886
69.8878,1.549
69.8878,1.9324
69.8923,1.7976
69.8923,1.9056
69.8933,1.7116
69.8933,1.2432
69.8998,1.2587
69.8998,1.4142
69.9008,1.4753
69.9008,1.2985
69.9018,1.5383
69.9098,1.6259
69.9230,1.4655
69.9264,1.3605
69.9264,1.6058
69.9273,1.8687
69.9273,1.9482
69.9283,1.975
69.9283,1.7558
69.9293,1.5689
69.9293,1.3746
69.9293,1.4395
69.9303,1.6362
69.9303,1.5799
69.9314,1.3178
69.9319,1.243
69.9325,1.2516
69.9325,1.8227
69.9336,1.909
69.9336,1.792
69.9345,1.5859
69.9345,1.5089
69.9345,1.4215
69.9355,1.6191
69.9402,1.7702
69.9412,1.9135
69.9412,1.4072
69.9412,1.4417
69.9473,1.7262
69.9483,2.0091
69.9484,1.8878
69.9497,1.6373
69.9497,1.354
69.9537,1.3244
69.9537,1.3902
69.9546,1.4702
69.9546,1.4082
69.9558,1.7511
69.9609,1.9877
69.9611,1.5038
69.9611,1.8764
69.9621,2.1756
69.9680,2.0397
69.9680,1.8359
69.9690,1.4967
69.9690,1.2902
69.9700,1.4072
69.9742,1.2831
69.9753,1.4348
69.9753,1.5904
69.9753,1.4393
69.9817,1.5465
69.9817,1.6932
69.9829,1.7716
69.9829,1.8829
69.9840,1.9943
69.9882,1.7168
69.9882,1.243
69.9892,1.3709
69.9892,1.9221
69.9949,1.8709
69.9949,1.5008
69.9959,1.7534
69.9959,1.5437
69.9969,1.5415
70.0012,1.552
70.0012,2.0688
70.0022,1.9006
70.0022,1.738
70.0032,1.3124
70.0085,1.3397
70.0085,1.5664
70.0085,1.3101
70.0095,1.3197
70.0179,1.477
70.0304,1.5509
70.0336,1.2467
70.0346,1.9007
70.0346,2.2173
70.0356,1.9634
70.0356,1.8089
70.0366,1.6992
70.0366,1.5756
70.0366,1.5083
70.0376,1.6797
70.0376,1.5317
70.0386,1.6154
70.0386,1.3433
70.0398,1.5801
70.0398,1.9268
70.0408,1.7712
70.0408,1.6954
70.0440,1.5079
70.0440,1.5854
70.0453,1.3332
70.0453,1.6697
70.0463,1.7521
70.0506,1.5464
70.0513,1.5205
70.0513,1.5015
70.0513,1.5252
70.0523,1.4575
70.0575,1.3026
70.0575,1.5192
70.0586,1.8985
70.0586,1.6197
70.0650,1.2612
70.0709,1.3414
70.0709,1.3784
70.0720,1.5021
70.0720,1.4457
70.0720,1.4822
70.0730,1.5059
70.0730,1.3986
70.0740,1.2869
70.0781,1.4627
70.0781,1.726
70.0791,1.7635
70.0791,1.5966
70.0801,1.7582
70.0842,1.2985
70.0851,1.2437
