43.2855,1.3926
43.2865,1.3859
43.2874,1.4427
43.2884,1.3934
43.2895,1.4249
43.2895,1.582
43.2904,1.6576
43.2904,1.6816
43.2914,1.7326
43.2914,1.7258
43.2924,1.6373
43.2935,1.6394
43.2944,1.422
43.2944,1.3774
43.3022,1.3523
43.3168,1.2752
43.3185,1.4412
43.3208,1.4725
43.3218,1.549
43.3218,1.5921
43.3218,1.6032
43.3228,1.6598
43.3228,1.6185
43.3238,1.6202
43.3238,1.4586
43.3248,1.3652
43.3248,1.3553
43.3258,1.4845
43.3258,1.5786
43.3268,1.5167
43.3278,1.5347
43.3278,1.4539
43.3278,1.5923
43.3288,1.6255
43.3298,1.6212
43.3298,1.6604
43.3308,1.6874
43.3320,1.6197
43.3329,1.6624
43.3329,1.4346
43.3339,1.4999
43.3392,1.4037
43.3392,1.4579
43.3401,1.4744
43.3471,1.5317
43.3471,1.605
43.3481,1.7899
43.3481,1.7476
43.3481,1.6681
43.3491,1.6591
43.3522,1.6005
43.3532,1.6559
43.3532,1.5428
43.3540,1.3084
43.3540,1.3127
43.3588,1.3212
43.3599,1.3341
43.3608,1.5021
43.3608,1.5884
43.3618,1.611
43.3658,1.6656
43.3658,1.8027
43.3668,1.7344
43.3668,1.6512
43.3730,1.6234
43.3730,1.5345
43.3741,1.486
43.3741,1.464
43.3751,1.5289
43.3794,1.4395
43.3803,1.4076
43.3803,1.5051
43.3813,1.4012
43.3867,1.4292
43.3867,1.6626
43.3876,1.705
43.3876,1.6187
43.3886,1.6075
43.3928,1.6225
43.3946,1.611
43.3946,1.5561
43.3956,1.4869
43.3994,1.498
43.4007,1.5023
43.4065,1.4993
43.4204,1.5749
43.4234,1.4847
43.4244,1.702
43.4244,1.6909
43.4254,1.7136
43.4254,1.7024
43.4254,1.6609
43.4264,1.6617
43.4278,1.5717
43.4284,1.5282
43.4284,1.6469
43.4284,1.5945
43.4294,1.6349
43.4294,1.6497
43.4304,1.576
43.4304,1.5188
43.4314,1.5242
43.4314,1.6975
43.4324,1.7299
43.4324,1.6392
43.4340,1.6328
43.4344,1.6264
43.4344,1.6277
43.4354,1.5825
43.4354,1.4924
43.4405,1.5019
43.4405,1.4054
43.4415,1.4496
43.4415,1.5694
43.4475,1.6379
43.4475,1.7307
43.4486,1.8323
43.4486,1.7039
43.4495,1.4997
43.4539,1.5149
43.4539,1.5306
43.4549,1.4127
43.4559,1.3937
43.4559,1.363
43.4608,1.4125
43.4608,1.548
43.4618,1.6043
43.4618,1.6219
43.4679,1.6516
43.4689,1.705
43.4689,1.7254
43.4689,1.7303
43.4699,1.6637
43.4749,1.5595
43.4749,1.5411
43.4758,1.5411
43.4758,1.5109
43.4810,1.6574
43.4818,1.7412
43.4818,1.8034
43.4828,1.6617
43.4839,1.5974
43.4878,1.4554
43.4878,1.6182
43.4888,1.4912
43.4888,1.5494
43.4948,1.639
43.4948,1.7063
43.4958,1.5514
43.4958,1.5092
43.4973,1.4172
43.5007,1.4168
43.5017,1.4879
43.5028,1.5212
43.5028,1.5945
43.5037,1.5715
43.5077,1.5996
43.5087,1.6101
43.5087,1.6493
43.5097,1.7311
43.5177,1.6999
43.5349,1.5569
43.5358,1.4924
43.5379,1.324
43.5388,1.3935
43.5388,1.4654
43.5398,1.5559
43.5398,1.6776
43.5408,1.6227
43.5418,1.7191
43.5418,1.7005
43.5418,1.6296
43.5428,1.6814
43.5437,1.5809
43.5438,1.5314
43.5448,1.41
43.5458,1.4729
43.5469,1.4445
43.5479,1.5175
43.5479,1.552
43.5489,1.5938
43.5489,1.6962
43.5489,1.8083
43.5499,1.7429
43.5499,1.7232
43.5509,1.6122
43.5509,1.4453
43.5519,1.3386
43.5558,1.291
43.5558,1.2619
43.5558,1.3392
43.5568,1.4265
43.5628,1.4539
43.5628,1.5269
43.5638,1.7731
43.5638,1.8269
43.5648,1.8824
43.5691,2.0108
43.5699,2.2234
43.5699,2.2409
43.5709,2.1792
43.5762,1.8741
43.5772,1.9463
43.5786,1.9981
43.5792,1.9949
43.5792,1.9786
43.5827,1.9298
43.5837,1.7804
43.5837,1.8606
43.5837,1.8439
43.5899,1.8286
43.5899,1.8014
43.5909,1.7191
43.5909,1.7108
43.5919,1.6073
43.5962,1.5272
43.5962,1.4625
43.5972,1.4865
43.5982,1.4905
43.5982,1.516
43.6033,1.6742
43.6033,1.7434
43.6042,1.8272
43.6042,1.81
43.6107,1.8068
43.6114,1.7275
43.6115,1.7234
43.6124,1.4571
43.6124,1.4372
43.6169,1.4475
43.6179,1.4091
43.6179,1.5284
43.6179,1.5214
43.6239,1.5702
43.6239,1.7209
43.6249,1.7018
43.6300,1.7862
43.6319,1.8582
43.6454,1.8449
43.6479,1.7687
43.6489,1.6994
43.6489,1.6328
43.6499,1.312
43.6509,1.3656
43.6509,1.4091
43.6519,1.4811
43.6519,1.6467
43.6519,1.6581
43.6529,1.6407
43.6529,1.7455
43.6539,1.7813
43.6539,1.7864
43.6549,1.7635
43.6554,1.8014
43.6559,1.7024
43.6559,1.5229
43.6578,1.473
43.6588,1.4629
43.6588,1.4719
43.6598,1.5257
43.6604,1.5539
43.6648,1.8059
43.6648,1.7466
43.6659,1.708
43.6659,1.7753
43.6715,1.744
43.6715,1.6949
43.6724,1.5992
43.6724,1.497
43.6736,1.4944
43.6777,1.5029
43.6786,1.5147
43.6786,1.5927
43.6796,1.7659
43.6850,1.8681
43.6858,1.8507
43.6858,1.7074
43.6868,1.7419
43.6868,1.7937
43.6914,1.7387
43.6920,1.7326
43.6920,1.6514
43.6930,1.4903
43.6930,1.5338
43.6984,1.5559
43.6990,1.5471
43.6990,1.6013
43.7000,1.6185
43.7057,1.7029
43.7067,1.8147
43.7067,1.8256
43.7077,1.8807
43.7077,1.8317
43.7122,1.6994
43.7122,1.6377
43.7132,1.5565
43.7142,1.5263
43.7192,1.5179
43.7192,1.542
43.7202,1.6317
43.7202,1.7279
43.7212,1.816
43.7257,1.8291
43.7267,1.783
43.7269,1.8004
43.7277,1.8346
43.7326,1.7684
43.7471,1.6967
43.7501,1.6877
43.7531,1.5621
43.7544,1.522
43.7551,1.5023
43.7551,1.4597
43.7561,1.5524
43.7561,1.6868
43.7571,1.7755
43.7571,1.8668
43.7581,1.8617
43.7581,1.8032
43.7581,1.8312
43.7591,1.7577
43.7591,1.7404
43.7604,1.7076
43.7611,1.6281
43.7621,1.5066
43.7621,1.4605
43.7631,1.5927
43.7631,1.6821
43.7641,1.8218
43.7672,1.7967
43.7672,1.8377
43.7682,1.8623
43.7692,1.7839
43.7692,1.7901
43.7732,1.7399
43.7732,1.6315
43.7742,1.6185
43.7742,1.6437
43.7804,1.6411
43.7812,1.7232
43.7812,1.7341
43.7822,1.7821
43.7822,1.8932
43.7867,1.9156
43.7876,1.9572
43.7876,1.963
43.7876,1.9392
43.7886,1.801
43.7936,1.7348
43.7956,1.6887
43.7956,1.6292
43.7966,1.6397
43.8003,1.7213
43.8015,1.7134
43.8023,1.7768
43.8023,1.8407
43.8034,1.8927
43.8073,1.9457
43.8083,1.9401
43.8083,1.9459
43.8083,1.9094
43.8145,1.8036
43.8145,1.7691
43.8155,1.7112
43.8155,1.6778
43.8165,1.7179
43.8207,1.7459
43.8218,1.8034
43.8218,1.9054
43.8218,1.9735
43.8278,2.0063
43.8288,1.9577
43.8288,1.9491
43.8301,1.9178
43.8301,1.9009
43.8341,1.7894
43.8354,1.6052
43.8354,1.5135
43.8365,1.5544
43.8365,1.5546
43.8582,1.6986
43.8612,1.8214
43.8612,1.8629
43.8622,1.771
43.8622,1.7138
43.8622,1.7656
43.8634,1.8381
43.8634,1.7474
43.8645,1.7132
43.8645,1.5792
43.8655,1.5267
43.8655,1.4877
43.8655,1.5173
43.8665,1.5439
43.8665,1.6294
43.8674,1.6577
43.8674,1.7513
43.8685,1.8012
43.8686,1.8265
43.8686,1.8016
43.8697,1.6849
43.8697,1.6666
43.8755,1.5432
43.8755,1.4865
43.8766,1.4614
43.8775,1.4918
43.8786,1.5252
43.8818,1.59
43.8818,1.6367
43.8828,1.7927
43.8828,1.8143
43.8838,1.8317
43.8891,1.7866
43.8891,1.6891
43.8901,1.7202
43.8901,1.6921
43.8963,1.5375
43.8963,1.4299
43.8975,1.4436
43.8975,1.5044
43.8985,1.5072
43.9028,1.5966
43.9028,1.7496
43.9038,1.783
43.9038,1.8679
43.9097,1.7899
43.9107,1.7277
43.9107,1.6322
43.9117,1.6095
43.9117,1.581
43.9159,1.461
43.9170,1.5019
43.9170,1.4903
43.9170,1.6019
43.9232,1.6469
43.9232,1.6707
43.9242,1.6939
43.9242,1.7614
43.9253,1.8053
43.9294,1.7198
43.9294,1.6516
43.9307,1.6217
43.9307,1.6523
43.9318,1.5377
43.9359,1.4682
43.9370,1.4614
43.9370,1.3855
43.9380,1.5218
43.9435,1.6058
43.9445,1.6133
43.9445,1.7989
43.9445,1.8113
43.9455,1.7751
43.9663,1.8173
43.9691,1.6814
43.9691,1.6491
43.9705,1.5951
43.9705,1.5584
43.9713,1.5231
43.9713,1.5407
43.9723,1.534
43.9723,1.5689
43.9723,1.6367
43.9733,1.7354
43.9733,1.7843
43.9743,1.8351
43.9743,1.8278
43.9753,1.7637
43.9753,1.6384
43.9763,1.557
43.9766,1.5381
43.9776,1.5222
43.9776,1.5244
43.9786,1.5105
43.9786,1.5711
43.9797,1.6217
43.9838,1.747
43.9848,1.7575
43.9848,1.7768
43.9848,1.8042
43.9913,1.8132
43.9925,1.8107
43.9925,1.7532
43.9935,1.6701
43.9935,1.537
43.9978,1.4742
43.9986,1.4022
43.9986,1.5135
43.9996,1.5921
44.0050,1.6902
44.0050,1.7395
44.0060,1.7701
44.0060,1.8057
44.0070,1.825
44.0114,1.7815
44.0114,1.6744
44.0123,1.6272
44.0123,1.6508
44.0200,1.5902
44.0202,1.4487
44.0213,1.5169
44.0213,1.6716
44.0213,1.7357
44.0268,1.8042
44.0268,1.8379
44.0275,1.7459
44.0275,1.6705
44.0285,1.7534
44.0327,1.5975
44.0337,1.5792
44.0337,1.4965
44.0347,1.4605
44.0405,1.5522
44.0416,1.624
44.0416,1.7224
44.0428,1.7457
44.0428,1.8597
44.0468,1.8212
44.0481,1.7984
44.0481,1.7144
44.0491,1.6847
44.0540,1.5839
44.0540,1.5299
44.0550,1.5205
44.0550,1.4854
44.0560,1.474
44.0665,1.4744
44.0761,1.6292
44.0790,1.6823
44.0800,1.7635
44.0800,1.8419
44.0810,1.816
44.0810,1.8006
44.0822,1.8001
44.0822,1.723
44.0822,1.6244
44.0833,1.5861
44.0833,1.5085
44.0843,1.5272
44.0843,1.4715
44.0853,1.4895
44.0853,1.5488
44.0853,1.6741
44.0863,1.7189
44.0885,1.7832
44.0885,1.7286
44.0896,1.7588
44.0896,1.7374
44.0905,1.6519
44.0948,1.5724
44.0958,1.5724
44.0958,1.5357
44.0968,1.5584
44.1019,1.6484
44.1019,1.7279
44.1029,1.7397
44.1029,1.7804
44.1039,1.8284
44.1080,1.7644
44.1091,1.7551
44.1091,1.6898
44.1101,1.6716
44.1153,1.6367
44.1153,1.5494
44.1166,1.5713
44.1166,1.5872
44.1176,1.5899
44.1214,1.5893
44.1221,1.7477
44.1229,1.8136
44.1229,1.8216
44.1229,1.9388
44.1285,1.9285
44.1291,1.8409
44.1291,1.753
44.1301,1.6771
44.1357,1.5996
44.1368,1.5915
44.1368,1.6154
44.1377,1.6285
44.1377,1.7009
44.1421,1.7018
44.1432,1.7129
44.1435,1.7444
44.1444,1.7256
44.1497,1.6969
44.1497,1.7251
44.1507,1.6724
44.1507,1.5799
44.1507,1.504
44.1554,1.506
44.1554,1.5014
44.1564,1.5282
44.1564,1.4946
44.1627,1.602
44.1627,1.6787
44.1637,1.7179
44.1637,1.7824
44.1647,1.8109
44.1733,1.7935
44.1868,1.8098
44.1893,1.7577
44.1901,1.6594
44.1901,1.5743
44.1910,1.5426
44.1910,1.4616
44.1910,1.5415
44.1920,1.56
44.1920,1.5685
44.1930,1.6324
44.1930,1.7798
44.1945,1.8092
44.1950,1.8927
44.1950,1.771
44.1960,1.7011
44.1965,1.6407
44.1970,1.54
44.1970,1.45
44.1980,1.4783
44.1980,1.5426
44.1992,1.551
44.1992,1.6639
44.2030,1.6681
44.2040,1.7177
44.2040,1.8571
44.2040,1.8486
44.2100,1.8893
44.2111,1.8522
44.2120,1.738
44.2120,1.6892
44.2130,1.4959
44.2162,1.4117
44.2173,1.4012
44.2173,1.4605
44.2181,1.4903
44.2181,1.5287
44.2233,1.6988
44.2233,1.7363
44.2243,1.7637
44.2243,1.7912
44.2310,1.7721
44.2315,1.8017
44.2315,1.7866
44.2325,1.7271
44.2325,1.4537
44.2367,1.368
44.2378,1.317
44.2378,1.335
44.2378,1.506
44.2438,1.584
44.2438,1.6236
44.2448,1.6583
44.2448,1.6679
44.2458,1.6838
44.2502,1.639
44.2513,1.4674
44.2513,1.4719
44.2513,1.5334
44.2576,1.5443
44.2577,1.5792
44.2588,1.6125
44.2588,1.7714
44.2588,1.8396
44.2636,2.0541
44.2636,2.161
44.2646,2.2491
44.2646,2.3026
44.2656,2.2032
44.2709,2.1768
44.2709,2.2219
44.2719,2.1964
44.2719,2.1132
44.2789,2.0431
44.2893,1.9169
44.3007,1.8286
44.3016,1.7862
44.3026,1.7897
44.3026,1.7931
44.3038,1.9352
44.3048,1.8934
44.3048,1.9292
44.3058,1.9696
44.3058,1.7684
44.3058,1.6701
44.3068,1.572
44.3078,1.5087
44.3078,1.4444
44.3088,1.5029
44.3088,1.5769
44.3100,1.7001
44.3110,1.693
44.3110,1.7056
44.3120,1.7552
44.3130,1.7702
44.3141,1.7761
44.3150,1.7296
44.3162,1.7078
44.3170,1.6305
44.3180,1.6101
44.3194,1.6341
44.3207,1.5833
44.3216,1.6561
44.3226,1.7144
44.3237,1.7618
44.3250,1.783
44.3266,1.7297
44.3276,1.7881
44.3286,1.7596
44.3286,1.8239
44.3316,1.7999
44.3328,1.7899
44.3328,1.6501
44.3338,1.455
44.3391,1.4108
44.3391,1.3185
44.3401,1.3857
44.3401,1.5248
44.3411,1.6384
44.3451,1.7042
44.3461,1.7196
44.3512,1.7987
44.3512,1.7785
44.3521,1.723
44.3521,1.6744
44.3531,1.6052
44.3531,1.5525
44.3541,1.5216
44.3585,1.5145
44.3585,1.5265
44.3601,1.5777
44.3605,1.7108
44.3605,1.7809
44.3655,1.8158
44.3655,1.777
44.3665,1.8466
44.3665,1.7905
44.3726,1.7451
44.3737,1.6531
44.3737,1.6819
44.3746,1.5705
44.3746,1.5546
44.3792,1.555
44.3802,1.6185
44.3802,1.6294
44.3802,1.6999
44.3864,1.8233
44.3869,1.8218
44.3869,1.7633
44.3879,1.7738
44.3879,1.6866
44.3927,1.6759
44.3935,1.6221
44.3945,1.623
44.3945,1.5555
44.4014,1.5732
44.4158,1.5929
44.4168,1.6337
44.4197,1.7579
44.4207,1.7723
44.4207,1.8597
44.4217,1.9639
44.4217,1.9784
44.4217,1.9384
44.4227,1.8569
44.4227,1.6596
44.4237,1.4269
44.4237,1.4387
44.4247,1.4541
44.4247,1.5207
44.4257,1.5145
44.4257,1.5979
44.4257,1.6264
44.4267,1.7461
44.4277,1.8216
44.4277,1.8704
44.4291,1.825
44.4291,1.7093
44.4340,1.6405
44.4340,1.6534
44.4350,1.5029
44.4350,1.3935
44.4360,1.5012
44.4403,1.554
44.4413,1.7078
44.4413,1.8269
44.4423,1.8841
44.4476,1.8608
44.4476,1.8323
44.4485,1.7815
44.4495,1.7307
44.4495,1.6767
44.4538,1.7014
44.4546,1.6979
44.4546,1.6283
44.4557,1.6013
44.4557,1.608
44.4606,1.6285
44.4616,1.6619
44.4616,1.7897
44.4616,1.8192
44.4679,1.8574
44.4679,1.9111
44.4690,1.8732
44.4690,1.8173
44.4699,1.7599
44.4750,1.6619
44.4750,1.6637
44.4761,1.6636
44.4761,1.6694
44.4818,1.7659
44.4818,1.7974
44.4828,1.8029
44.4828,1.9127
44.4838,1.9844
44.4878,1.9831
44.4888,1.9553
44.4888,1.8436
44.4898,1.8317
44.4951,1.7697
44.4951,1.7082
44.4960,1.6086
44.4960,1.6146
44.4971,1.6609
44.5013,1.693
44.5023,1.7556
44.5023,1.8921
44.5023,1.8966
44.5033,2.0464
44.5224,2.0312
44.5253,2.0005
44.5292,1.9208
44.5292,1.7776
44.5302,1.8394
44.5302,1.8672
44.5312,1.8166
44.5312,1.618
44.5322,1.6405
44.5322,1.6808
44.5332,1.7372
44.5336,1.7663
44.5342,1.7991
44.5355,1.8162
44.5372,1.8751
44.5383,1.7956
44.5392,1.7408
44.5402,1.7134
44.5415,1.6154
44.5428,1.5964
44.5432,1.6095
44.5452,1.608
44.5462,1.6883
44.5476,1.7399
44.5484,1.7716
44.5492,1.8426
44.5502,1.8421
44.5512,1.8526
44.5522,1.8531
44.5532,1.7372
44.5542,1.6356
44.5551,1.6182
44.5561,1.5025
44.5571,1.5477
44.5581,1.5154
44.5581,1.543
44.5633,1.6864
44.5641,1.7657
44.5651,1.8109
44.5661,1.8214
44.5661,1.7806
44.5701,1.747
44.5711,1.678
44.5711,1.6454
44.5721,1.6039
44.5771,1.5827
44.5781,1.5469
44.5793,1.5492
44.5801,1.5542
44.5811,1.6264
44.5831,1.6857
44.5841,1.8578
44.5851,1.8486
44.5861,1.8267
44.5902,1.8801
44.5911,1.9397
44.5921,1.8094
44.5931,1.6142
44.5944,1.5102
44.5965,1.4599
44.5970,1.4087
44.5980,1.4579
44.5990,1.5715
44.6000,1.696
44.6040,1.7449
44.6050,1.7841
44.6060,1.8762
44.6070,1.7609
44.6110,1.6632
44.6120,1.6412
44.6130,1.6227
44.6150,1.534
44.6160,1.4354
44.6250,1.4931
44.6437,1.5514
44.6473,1.6157
44.6486,1.6281
44.6486,1.7393
44.6496,1.7309
44.6496,1.7691
44.6496,1.7922
44.6506,1.7477
44.6515,1.6557
44.6516,1.6045
44.6516,1.5724
44.6526,1.5239
44.6526,1.4924
44.6536,1.515
44.6536,1.5968
44.6548,1.6538
44.6548,1.7466
44.6558,1.8031
44.6558,1.8235
44.6568,1.8087
44.6568,1.7577
44.6568,1.6786
44.6578,1.6564
44.6578,1.6484
44.6588,1.5471
44.6588,1.5533
44.6598,1.5512
44.6608,1.5522
44.6608,1.5932
44.6620,1.6482
44.6628,1.7461
44.6650,1.7157
44.6660,1.7326
44.6660,1.8437
44.6660,1.7832
44.6725,1.7116
44.6725,1.6744
44.6735,1.6512
44.6735,1.567
44.6735,1.5936
44.6785,1.587
44.6796,1.6099
44.6796,1.6187
44.6796,1.6823
44.6858,1.7436
44.6868,1.7656
44.6868,1.7657
44.6868,1.7881
44.6878,1.8126
44.6922,1.8042
44.6922,1.714
44.6934,1.4886
44.6944,1.4721
44.6944,1.53
44.6992,1.5392
44.6992,1.6139
44.7004,1.6439
44.7004,1.657
44.7065,1.6523
44.7065,1.8957
44.7075,1.9204
44.7075,1.9231
44.7085,1.7395
44.7125,1.6969
44.7135,1.602
44.7135,1.5023
44.7145,1.5792
44.7200,1.6041
44.7200,1.6152
44.7210,1.612
44.7210,1.6726
44.7223,1.8126
44.7273,1.7779
44.7410,1.8094
44.7450,1.7708
44.7450,1.7507
44.7450,1.7599
44.7462,1.5792
44.7462,1.5653
44.7472,1.5293
44.7472,1.5338
44.7482,1.573
44.7482,1.5921
44.7482,1.6178
44.7492,1.7067
44.7492,1.8047
44.7502,1.8196
44.7502,1.8407
44.7513,1.801
44.7514,1.678
44.7557,1.5775
44.7567,1.5685
44.7567,1.5653
44.7567,1.5788
44.7577,1.5981
44.7624,1.6369
44.7624,1.8038
44.7624,1.8544
44.7634,1.9607
44.7689,1.942
44.7700,1.9534
44.7700,1.8572
44.7709,1.6305
44.7709,1.4985
44.7756,1.5437
44.7768,1.4989
44.7768,1.4642
44.7776,1.5015
44.7826,1.5662
44.7826,1.63
44.7836,1.753
44.7836,1.8449
44.7849,1.8529
44.7889,1.7787
44.7901,1.7507
44.7902,1.7354
44.7902,1.6472
44.7913,1.6212
44.7954,1.5902
44.7965,1.5668
44.7965,1.6015
44.7975,1.6474
44.8031,1.7104
44.8031,1.7858
44.8041,1.8426
44.8041,1.9534
44.8051,1.8848
44.8100,1.8143
44.8114,1.8509
44.8127,1.7729
44.8127,1.7556
44.8164,1.7027
44.8171,1.5282
44.8171,1.4805
44.8184,1.4995
44.8184,1.4873
44.8224,1.6459
44.8234,1.7534
44.8234,1.8096
44.8245,1.855
44.8315,1.8762
44.8510,1.8336
44.8548,1.8192
44.8551,1.7787
44.8567,1.6549
44.8571,1.6377
44.8571,1.6441
44.8581,1.6019
44.8581,1.6324
44.8581,1.6784
44.8593,1.7401
44.8608,1.8983
44.8613,1.8709
44.8613,1.8794
44.8623,1.8805
44.8623,1.816
44.8623,1.7686
44.8633,1.6654
44.8639,1.6274
44.8643,1.6606
44.8643,1.6746
44.8655,1.7125
44.8655,1.7346
44.8665,1.7991
44.8665,1.7582
44.8675,1.7099
44.8675,1.8407
44.8675,1.8184
44.8705,1.7665
44.8705,1.7307
44.8716,1.6827
44.8717,1.6058
44.8774,1.5377
44.8787,1.5492
44.8797,1.5612
44.8797,1.6144
44.8807,1.5908
44.8839,1.6534
44.8839,1.7187
44.8849,1.7811
44.8849,1.8362
44.8849,1.7781
44.8911,1.7586
44.8911,1.7202
44.8921,1.6274
44.8921,1.5505
44.8981,1.5325
44.8981,1.5707
44.8991,1.6086
44.8991,1.6579
44.9003,1.7177
44.9043,1.7697
44.9043,1.8417
44.9053,1.9221
44.9053,1.9028
44.9115,1.8771
44.9126,1.6915
44.9126,1.6802
44.9135,1.6857
44.9135,1.6064
44.9177,1.6167
44.9187,1.5885
44.9187,1.6754
44.9197,1.6973
44.9249,1.7727
44.9249,1.7449
44.9260,1.6988
44.9260,1.7603
44.9270,1.7892
44.9315,1.7633
44.9315,1.7577
44.9325,1.6225
44.9325,1.5237
44.9335,1.5087
44.9388,1.5004
44.9388,1.5891
44.9388,1.6176
44.9417,1.6772
44.9586,1.7241
44.9616,1.7897
44.9636,1.8143
44.9636,1.8016
44.9646,1.6799
44.9646,1.6514
44.9646,1.5857
44.9656,1.4449
44.9656,1.3949
44.9666,1.4485
44.9666,1.4742
44.9676,1.6002
44.9676,1.7699
44.9687,1.8535
44.9688,1.9549
44.9698,2.1458
44.9698,2.2071
44.9698,2.2347
44.9728,2.2049
44.9728,2.2306
44.9740,2.1488
44.9740,2.0809
44.9740,2.0191
44.9790,2.0813
44.9799,2.1741
44.9807,2.2116
44.9807,2.2576
44.9817,2.2248
44.9861,2.1539
44.9861,2.1194
44.9870,2.0504
44.9870,1.9667
44.9930,1.8541
44.9941,1.7254
44.9950,1.7132
44.9952,1.7311
44.9961,1.7329
44.9997,1.6699
45.0008,1.7329
45.0008,1.8265
45.0018,1.837
45.0070,1.9712
45.0070,1.9585
45.0080,1.9086
45.0080,1.8782
45.0093,1.7691
45.0133,1.7352
45.0146,1.6549
45.0146,1.6311
45.0156,1.6531
45.0204,1.6529
45.0204,1.6622
45.0214,1.6007
45.0214,1.5608
45.0224,1.7041
45.0266,1.8385
45.0275,1.7832
45.0275,1.8293
45.0285,1.7541
45.0285,1.7108
45.0337,1.6641
45.0337,1.6253
45.0348,1.6225
45.0348,1.5739
45.0411,1.608
45.0411,1.6602
45.0424,1.7755
45.0424,1.8621
45.0434,1.8443
45.0477,1.8169
45.0477,1.8314
45.0487,1.8083
45.0487,1.7972
45.0579,1.7592
45.0681,1.6911
45.0701,1.6459
45.0713,1.6227
45.0713,1.5494
45.0724,1.6748
45.0724,1.7162
45.0724,1.7871
45.0734,1.8451
45.0734,1.8764
45.0744,1.8741
45.0744,1.8925
45.0754,1.8449
45.0754,1.7252
45.0765,1.6379
45.0771,1.6317
45.0776,1.6403
45.0776,1.7815
45.0786,1.7177
45.0818,1.699
45.0818,1.8194
45.0828,1.8771
45.0828,1.8949
45.0883,1.8668
45.0893,1.8411
45.0893,1.7708
45.0893,1.7444
45.0903,1.7114
45.0947,1.6499
45.0957,1.6315
45.0957,1.6285
45.0967,1.6073
45.1019,1.7243
45.1019,1.7519
45.1030,1.7582
45.1030,1.789
45.1042,1.8428
45.1082,1.8617
45.1092,1.8394
45.1094,1.7528
45.1100,1.7266
45.1149,1.6628
45.1149,1.6129
45.1159,1.6182
45.1159,1.6519
45.1169,1.7104
45.1215,1.7727
45.1215,1.8151
45.1226,1.9009
45.1226,1.9135
45.1235,1.9322
45.1288,1.975
45.1288,1.9427
45.1288,1.8647
45.1298,1.8479
45.1358,1.6373
45.1358,1.5775
45.1369,1.579
45.1369,1.5383
45.1380,1.6684
45.1422,1.7442
45.1432,1.7466
45.1434,1.8617
45.1442,1.8655
45.1492,1.8921
45.1492,1.8854
45.1502,1.8239
45.1502,1.753
45.1512,1.7686
45.1556,1.7455
45.1556,1.6696
45.1566,1.6844
45.1566,1.6744
45.1626,1.7074
45.1760,1.8917
45.1790,1.9077
45.1800,1.9471
45.1800,1.8852
45.1810,1.8713
45.1810,1.8284
45.1820,1.8445
45.1820,1.8276
45.1831,1.7026
45.1832,1.6797
45.1832,1.6904
45.1842,1.7459
45.1842,1.7303
45.1852,1.7699
45.1852,1.7866
45.1862,1.9898
45.1862,1.9607
45.1862,1.9966
45.1892,2.0404
45.1902,1.9531
45.1902,1.8653
45.1912,1.7971
45.1962,1.7963
45.1973,1.7371
45.1973,1.7881
45.1982,1.8674
45.1982,1.9148
45.2029,1.9491
45.2037,1.9692
45.2037,2.0337
45.2049,2.0652
45.2098,1.9973
45.2108,1.9277
45.2108,1.909
45.2122,1.8548
45.2129,1.7935
45.2164,1.7676
45.2164,1.8194
45.2174,1.8957
45.2174,1.9838
45.2184,2.0061
45.2236,2.1031
45.2236,2.0714
45.2236,2.035
45.2246,2.0127
45.2307,1.9367
45.2307,1.9257
45.2318,1.8353
45.2318,1.7573
45.2330,1.6712
45.2370,1.6328
45.2379,1.611
45.2379,1.6056
45.2379,1.7327
45.2443,1.8332
45.2444,1.9047
45.2444,1.9546
45.2455,2.0166
45.2455,2.0119
45.2499,2.0417
45.2509,1.9178
45.2509,1.8319
45.2519,1.6182
45.2574,1.5945
45.2574,1.6095
45.2585,1.6077
45.2585,1.5949
45.2595,1.7554
45.2638,1.8188
45.2638,1.8349
45.2648,1.8919
45.2648,1.9187
45.2661,1.885
45.2843,1.8617
45.2863,1.7877
45.2873,1.7005
45.2873,1.6437
45.2883,1.6144
45.2883,1.6534
45.2895,1.6324
45.2895,1.7676
45.2906,1.8004
45.2906,1.8192
45.2912,1.8891
45.2916,1.8951
45.2916,1.8968
45.2926,1.8593
45.2926,1.8276
45.2936,1.8173
45.2945,1.6866
45.2945,1.6253
45.2972,1.6615
45.2980,1.5837
45.2980,1.6684
45.2990,1.7303
45.3048,1.8385
45.3048,1.9021
45.3058,1.9157
45.3058,1.8919
45.3069,1.8458
45.3110,1.8019
45.3120,1.7326
45.3120,1.7249
45.3132,1.6364
45.3140,1.6806
45.3180,1.7086
45.3180,1.7123
45.3192,1.7277
45.3192,1.7815
45.3251,1.7843
45.3251,1.9326
45.3266,1.9529
45.3271,1.8957
45.3271,1.906
45.3315,1.8143
45.3324,1.7217
45.3324,1.6624
45.3334,1.5964
45.3387,1.5192
45.3387,1.5711
45.3398,1.5833
45.3398,1.62
45.3408,1.8186
45.3452,1.8199
45.3452,1.8726
45.3462,1.9311
45.3462,1.93
45.3521,1.8916
45.3564,1.8004
45.3574,1.7571
45.3574,1.6776
45.3583,1.624
45.3583,1.5606
45.3583,1.5887
45.3594,1.7556
45.3599,1.7496
45.3604,1.8074
45.3655,1.909
45.3655,1.9034
45.3665,1.8852
45.3665,1.8552
45.3727,1.7262
45.3727,1.6971
45.3738,1.6915
45.3748,1.6401
45.3842,1.6262
45.3934,1.6557
45.3965,1.7123
45.3974,1.8147
45.3974,1.8796
45.3984,1.9476
45.3984,1.9516
45.3984,1.9006
45.3994,1.8777
45.3994,1.8466
45.4006,1.6632
45.4006,1.6285
45.4016,1.6486
45.4016,1.6662
45.4026,1.7003
45.4026,1.7357
45.4036,1.7648
45.4036,1.7939
45.4046,1.8447
45.4062,1.8867
45.4071,1.8764
45.4071,1.8443
45.4071,1.8535
45.4081,1.8049
45.4133,1.723
45.4133,1.6921
45.4143,1.693
45.4143,1.6602
45.4204,1.6365
45.4215,1.7044
45.4215,1.7804
45.4224,1.8394
45.4224,1.8749
45.4266,1.9345
45.4279,1.9531
45.4286,1.9932
45.4286,1.9512
45.4340,1.8366
45.4340,1.7556
45.4351,1.7258
45.4351,1.6167
45.4363,1.6034
45.4402,1.5132
45.4413,1.6116
45.4415,1.6862
45.4415,1.7873
45.4469,1.8736
45.4479,1.9114
45.4479,1.8951
45.4489,1.8079
45.4489,1.7858
45.4536,1.635
45.4544,1.606
45.4544,1.617
45.4554,1.6285
45.4554,1.6386
45.4607,1.7519
45.4607,1.7952
45.4617,1.8818
45.4617,1.9471
45.4680,1.9547
45.4691,1.9499
45.4691,1.8524
45.4701,1.8132
45.4704,1.7824
45.4743,1.7522
45.4754,1.7303
45.4754,1.7382
45.4767,1.7496
45.4832,1.7474
45.4832,1.8214
45.4884,1.8602
45.5024,1.9144
45.5047,1.8151
45.5057,1.7611
45.5057,1.7918
45.5067,1.7719
45.5067,1.6716
45.5077,1.5615
45.5077,1.6032
45.5087,1.614
45.5087,1.6471
45.5097,1.6934
45.5097,1.7944
45.5109,1.8347
45.5117,1.9017
45.5117,1.9131
45.5127,1.8841
45.5127,1.8492
45.5137,1.807
45.5137,1.7303
45.5137,1.6159
45.5172,1.6345
45.5172,1.5923
45.5182,1.6155
45.5182,1.6752
45.5192,1.7699
45.5237,1.8788
45.5247,1.8747
45.5247,1.8869
45.5247,1.8972
45.5307,1.9405
45.5307,1.8904
45.5317,1.8796
45.5317,1.8479
45.5326,1.7877
45.5372,1.7734
45.5372,1.7537
45.5382,1.7354
45.5382,1.8237
45.5433,1.8117
45.5443,1.7832
45.5456,1.9229
45.5456,1.9152
45.5465,1.915
45.5510,1.8016
45.5510,1.7954
45.5520,1.6992
45.5520,1.696
45.5530,1.7086
45.5573,1.6154
45.5583,1.6851
45.5583,1.7086
45.5583,1.7764
45.5643,1.9062
45.5652,1.9191
45.5662,1.9334
45.5662,1.9714
45.5672,1.9296
45.5714,1.8541
45.5724,1.8149
45.5724,1.7727
45.5736,1.7526
45.5776,1.7138
45.5786,1.7078
45.5786,1.7161
45.5796,1.7534
45.5796,1.8001
45.5848,1.9114
45.5848,1.954
45.5858,1.9424
45.5858,1.9444
45.5916,1.9247
45.5926,1.8025
45.6114,1.7706
45.6146,1.7406
45.6156,1.6964
45.6166,1.6919
45.6166,1.7292
45.6176,1.7869
45.6176,1.6673
45.6176,1.8207
45.6186,1.8167
45.6186,1.8458
45.6198,1.8955
45.6198,1.9114
45.6208,1.8968
45.6208,1.8601
45.6218,1.6534
45.6218,1.5878
45.6228,1.5722
45.6228,1.5951
45.6238,1.6471
45.6238,1.6557
45.6248,1.6797
45.6261,1.8475
45.6268,1.9073
45.6278,1.9152
45.6278,1.8747
45.6288,1.8462
45.6322,1.756
45.6332,1.6634
45.6332,1.6555
45.6332,1.5884
45.6387,1.5794
45.6394,1.6437
45.6404,1.7357
45.6404,1.7869
45.6404,1.8407
45.6456,1.87
45.6456,1.9621
45.6466,1.918
45.6466,1.8886
45.6476,1.8257
45.6528,1.6694
45.6528,1.5878
45.6538,1.5794
45.6538,1.6624
45.6604,1.6906
45.6604,1.6975
45.6614,1.7237
45.6614,1.8604
45.6624,1.8938
45.6663,1.957
45.6673,2.0179
45.6673,1.9227
45.6673,1.8261
45.6736,1.8021
45.6736,1.6752
45.6746,1.5587
45.6746,1.5891
45.6756,1.5557
45.6800,1.5484
45.6800,1.6135
45.6810,1.6234
45.6810,1.6684
45.6871,1.7659
45.6871,1.7714
45.6881,1.7747
45.6881,1.7837
45.6892,1.7667
45.6933,1.7397
45.6945,1.7444
45.6945,1.8242
45.6955,1.9409
45.6955,1.9967
45.7007,2.0924
45.7057,2.2465
45.7195,2.2904
45.7222,2.368
45.7222,2.4323
45.7232,2.3989
45.7232,2.4102
45.7244,2.377
45.7244,2.3284
45.7254,2.2486
45.7254,2.1374
45.7264,1.9812
45.7264,1.9122
45.7274,1.9431
45.7274,1.9366
45.7284,1.9253
45.7284,1.8505
45.7296,1.8644
45.7296,1.9105
45.7296,1.9206
45.7307,1.7965
45.7307,1.7989
45.7348,1.7954
45.7349,1.6641
45.7360,1.6354
45.7360,1.6716
45.7360,1.7084
45.7408,1.7839
45.7408,1.8599
45.7419,1.9231
45.7419,1.9317
45.7429,1.9161
45.7481,1.9013
45.7481,1.8741
45.7491,1.8171
45.7491,1.7453
45.7555,1.7179
45.7555,1.6729
45.7565,1.6242
45.7565,1.6229
45.7577,1.6334
45.7612,1.6975
45.7621,1.8451
45.7621,1.9069
45.7633,1.9467
45.7688,1.8934
45.7688,1.8617
45.7699,1.8211
45.7699,1.7768
45.7708,1.6439
45.7751,1.5239
45.7761,1.6234
45.7766,1.6259
45.7771,1.6651
45.7823,1.6791
45.7823,1.8167
45.7833,1.9124
45.7833,1.9276
45.7843,2.0014
45.7887,1.9675
45.7887,1.8837
45.7897,1.7699
45.7897,1.7539
45.7907,1.7534
45.7959,1.7037
45.7969,1.5707
45.7969,1.6062
45.7981,1.6846
45.8021,1.7866
45.8033,1.846
45.8043,1.942
45.8043,1.9366
45.8053,1.8953
45.8085,1.8642
45.8152,1.8317
45.8289,1.7496
45.8319,1.6664
45.8329,1.6902
45.8329,1.6322
45.8329,1.5949
45.8339,1.5938
45.8339,1.7091
45.8349,1.8126
45.8349,1.8436
45.8361,1.8554
45.8361,1.8632
45.8371,1.9022
45.8371,1.8599
45.8381,1.8422
45.8381,1.8102
45.8391,1.7573
45.8391,1.6328
45.8391,1.6352
45.8401,1.6516
45.8401,1.6606
45.8411,1.7391
45.8434,1.8137
45.8434,1.8946
45.8443,1.9292
45.8443,1.8833
45.8503,1.9144
45.8503,1.8799
45.8513,1.801
45.8513,1.6859
45.8523,1.6776
45.8562,1.6313
45.8568,1.5775
45.8568,1.6849
45.8578,1.7275
45.8635,1.7447
45.8643,1.7879
45.8643,1.894
45.8654,1.9722
45.8654,1.9808
45.8698,1.9199
45.8698,1.8814
45.8710,1.8466
45.8710,1.8061
45.8769,1.7052
45.8776,1.5949
45.8776,1.6514
45.8786,1.7526
45.8786,1.7702
45.8834,1.7682
45.8834,1.8893
45.8845,1.9579
45.8845,1.9561
45.8854,1.9103
45.8908,1.8544
45.8908,1.8177
45.8908,1.7474
45.8919,1.7037
45.8975,1.6546
45.8975,1.6851
45.8986,1.6787
45.8986,1.6772
45.8996,1.7153
45.9043,1.8944
45.9043,1.9742
45.9053,2.0144
45.9053,1.9759
45.9108,1.9553
45.9117,1.9279
45.9117,1.8711
45.9127,1.7706
45.9127,1.7162
45.9168,1.6742
45.9228,1.7468
45.9375,1.7627
45.9402,1.8038
45.9402,1.8801
45.9413,1.9015
45.9413,1.9667
45.9424,1.9816
45.9425,1.9919
45.9435,1.9208
45.9435,1.7369
45.9445,1.8297
45.9448,1.7847
45.9455,1.7552
45.9455,1.8376
45.9455,1.9045
45.9465,1.9261
45.9465,1.9418
45.9476,1.9932
45.9477,1.9793
45.9477,2.0297
45.9488,2.0751
45.9488,1.942
45.9513,1.9337
45.9523,1.8912
45.9523,1.7862
45.9533,1.7102
45.9581,1.7271
45.9581,1.7611
45.9598,1.7329
45.9604,1.771
45.9615,1.8413
45.9654,1.9227
45.9654,1.9906
45.9664,2.0161
45.9664,1.9769
45.9719,1.9328
45.9719,1.7974
45.9729,1.6934
45.9729,1.6718
45.9739,1.6523
45.9781,1.7072
45.9781,1.7524
45.9791,1.7515
45.9791,1.8152
45.9801,1.8614
45.9854,1.8445
45.9854,1.93
45.9854,1.9864
45.9864,1.8931
45.9924,1.792
45.9934,1.7695
45.9934,1.6364
45.9934,1.6521
45.9947,1.6094
45.9987,1.6242
45.9997,1.6125
45.9997,1.6696
45.9997,1.6973
46.0062,1.7869
46.0062,1.8387
46.0072,1.8676
46.0072,1.8831
46.0072,1.7993
46.0123,1.7474
46.0123,1.7054
46.0133,1.6587
46.0133,1.5996
46.0193,1.5816
46.0193,1.5979
46.0203,1.6512
46.0203,1.7157
46.0213,1.7552
46.0254,1.7862
46.0266,1.828
46.0431,1.8137
46.0462,1.7937
46.0472,1.7723
46.0472,1.7271
46.0482,1.7624
46.0482,1.7886
46.0492,1.7339
46.0492,1.6225
46.0502,1.6373
46.0502,1.6819
46.0502,1.7232
46.0512,1.7584
46.0512,1.828
46.0524,1.8278
46.0524,1.8376
46.0534,1.7826
46.0534,1.7286
46.0545,1.6257
46.0545,1.4762
46.0555,1.5705
46.0555,1.6392
46.0602,1.6384
46.0605,1.6849
46.0605,1.7125
46.0615,1.7271
46.0666,1.7569
46.0666,1.8338
46.0676,1.8372
46.0676,1.7972
46.0686,1.7256
46.0730,1.6581
46.0730,1.6324
46.0740,1.5544
46.0740,1.5709
46.0752,1.6499
46.0802,1.6754
46.0802,1.6754
46.0814,1.7089
46.0814,1.8734
46.0869,1.9111
46.0869,1.9195
46.0889,1.9167
46.0899,1.9066
46.0899,1.7742
46.0939,1.7063
46.0939,1.5555
46.0949,1.4965
46.0949,1.4969
46.1006,1.5664
46.1006,1.6741
46.1016,1.7127
46.1016,1.7984
46.1026,1.9129
46.1071,1.8529
46.1071,1.7489
46.1081,1.7956
46.1081,1.7292
46.1142,1.6461
46.1142,1.5705
46.1152,1.5207
46.1152,1.5171
46.1165,1.5308
46.1203,1.5674
46.1213,1.6527
46.1213,1.7729
46.1223,1.8057
46.1226,1.822
46.1275,1.87
46.1275,1.8434
46.1287,1.78
46.1287,1.7511
46.1346,1.6154
46.1356,1.5854
46.1409,1.5456
46.1546,1.5282
46.1573,1.6519
46.1583,1.6519
46.1583,1.7309
46.1593,1.8614
46.1593,1.8687
46.1603,1.891
46.1606,1.8972
46.1613,1.834
46.1613,1.8437
46.1623,1.8081
46.1623,1.5919
46.1634,1.6332
46.1635,1.5824
46.1635,1.587
46.1645,1.627
46.1645,1.5767
46.1655,1.6624
46.1655,1.7063
46.1665,1.8801
46.1688,1.8895
46.1688,1.8222
46.1696,1.7686
46.1696,1.7086
46.1705,1.6208
46.1747,1.5662
46.1758,1.5799
46.1758,1.5917
46.1768,1.5869
46.1822,1.5707
46.1833,1.6967
46.1833,1.8319
46.1833,1.8497
46.1842,1.879
46.1889,1.8257
46.1900,1.7511
46.1900,1.7312
46.1900,1.6793
46.1964,1.5666
46.1964,1.5402
46.1972,1.5803
46.1972,1.5719
46.1982,1.6692
46.2022,1.7164
46.2022,1.7459
46.2032,1.8728
46.2032,1.8464
46.2112,1.8387
46.2112,1.8106
46.2122,1.7067
46.2122,1.5867
46.2134,1.6056
46.2174,1.5375
46.2174,1.5531
46.2187,1.5615
46.2187,1.6566
46.2187,1.7267
46.2239,1.8066
46.2249,1.8692
46.2249,1.7768
46.2259,1.7946
46.2319,1.7599
46.2319,1.7785
46.2329,1.6534
46.2329,1.573
46.2339,1.5846
46.2382,1.6232
46.2392,1.5752
46.2392,1.6073
46.2402,1.6574
46.2449,1.7822
46.2623,1.8098
46.2653,1.8662
46.2653,1.8601
46.2662,1.81
46.2662,1.7412
46.2672,1.6002
46.2672,1.5715
46.2682,1.5165
46.2682,1.5475
46.2692,1.5351
46.2695,1.6576
46.2695,1.7297
46.2705,1.8019
46.2705,1.8233
46.2715,1.9156
46.2715,1.9034
46.2725,1.8501
46.2725,1.8257
46.2735,1.6212
46.2735,1.5529
46.2745,1.5585
46.2745,1.4646
46.2792,1.5475
46.2792,1.6187
46.2801,1.6154
46.2801,1.7494
46.2813,1.8353
46.2855,1.8085
46.2867,1.8017
46.2867,1.7736
46.2867,1.7487
46.2925,1.6967
46.2934,1.6253
46.2944,1.5884
46.2948,1.5475
46.2954,1.5347
46.2990,1.5715
46.3001,1.6217
46.3001,1.6287
46.3001,1.6924
46.3062,1.8437
46.3062,1.8983
46.3073,1.9262
46.3073,1.9285
46.3086,1.8541
46.3122,1.6999
46.3122,1.7012
46.3133,1.6591
46.3133,1.5786
46.3145,1.5734
46.3196,1.618
46.3197,1.6932
46.3197,1.8179
46.3207,1.8537
46.3264,1.8966
46.3273,1.9382
46.3273,1.8771
46.3282,1.8151
46.3282,1.7672
46.3329,1.6334
46.3340,1.5865
46.3340,1.5974
46.3349,1.6032
46.3402,1.5717
46.3412,1.5473
46.3412,1.6555
46.3422,1.7329
46.3424,1.8659
46.3465,1.8286
46.3477,1.7959
46.3477,1.7517
46.3477,1.7207
46.3536,1.6701
46.3592,1.6422
46.3789,1.5435
46.3799,1.5479
46.3799,1.5741
46.3809,1.5816
46.3809,1.5617
46.3809,1.6302
46.3819,1.762
46.3819,1.8001
46.3829,1.8512
46.3829,1.8349
46.3838,1.7881
46.3838,1.7794
46.3838,1.705
46.3848,1.5735
46.3857,1.5081
46.3858,1.5107
46.3858,1.5312
46.3868,1.5591
46.3868,1.6332
46.3878,1.8241
46.3878,1.8331
46.3878,1.828
46.3888,1.7166
46.3888,1.72
46.3898,1.6992
46.3898,1.6667
46.3941,1.491
46.3941,1.5032
46.3951,1.5244
46.3951,1.5257
46.4014,1.6159
46.4014,1.6015
46.4024,1.7087
46.4024,1.7901
46.4034,1.7881
46.4076,1.7802
46.4084,1.8218
46.4084,1.756
46.4098,1.7048
46.4098,1.5979
46.4144,1.5312
46.4154,1.5179
46.4154,1.5505
46.4165,1.5486
46.4221,1.5302
46.4221,1.6761
46.4231,1.7402
46.4231,1.7787
46.4241,1.7954
46.4282,1.7376
46.4292,1.7194
46.4292,1.6624
46.4292,1.5317
46.4355,1.4464
46.4355,1.4318
46.4365,1.4526
46.4365,1.4205
46.4375,1.4609
46.4417,1.5325
46.4425,1.7657
46.4435,1.8499
46.4435,1.9591
46.4490,1.9949
46.4490,1.9118
46.4500,1.9067
46.4500,1.9506
46.4510,1.9343
46.4551,2.0027
46.4551,2.0689
46.4562,2.0622
46.4562,2.0356
46.4572,2.1222
46.4621,2.2229
46.4621,2.3386
46.4632,2.3566
46.4811,2.2071
46.4841,2.077
46.4841,2.0539
46.4851,1.8092
46.4851,1.8368
46.4851,1.7599
46.4861,1.7146
46.4861,1.6538
46.4871,1.5987
46.4871,1.6127
46.4881,1.6
46.4881,1.7337
46.4891,1.7577
46.4891,1.7963
46.4901,1.8801
46.4901,1.7687
46.4911,1.7408
46.4911,1.7461
46.4911,1.6561
46.4962,1.5975
46.4962,1.6846
46.4971,1.5945
46.4971,1.5647
46.4981,1.6257
46.5031,1.6591
46.5031,1.7185
46.5042,1.7665
46.5042,1.8032
46.5051,1.8019
46.5101,1.7172
46.5101,1.6305
46.5111,1.5512
46.5121,1.5647
46.5170,1.5085
46.5181,1.48
46.5181,1.5317
46.5181,1.6099
46.5190,1.6542
46.5233,1.7539
46.5241,1.8424
46.5241,1.9171
46.5252,1.8574
46.5305,1.7896
46.5305,1.7599
46.5316,1.6215
46.5316,1.5698
46.5326,1.5184
46.5368,1.5057
46.5376,1.543
46.5376,1.5591
46.5386,1.5413
46.5432,1.6399
46.5440,1.7629
46.5440,1.7972
46.5450,1.8036
46.5450,1.8818
46.5501,1.7537
46.5501,1.6568
46.5511,1.6394
46.5511,1.62
46.5521,1.6024
46.5571,1.5345
46.5571,1.5396
46.5581,1.6197
46.5581,1.5895
46.5639,1.6624
46.5650,1.7764
46.5650,1.8752
46.5659,1.8775
46.5659,1.7832
46.5709,1.7635
46.5709,1.621
46.5719,1.5694
46.5809,1.4159
46.5958,1.477
46.5988,1.6225
46.5988,1.603
46.5998,1.611
46.5998,1.6523
46.6008,1.8025
46.6008,1.8392
46.6018,1.8389
46.6018,1.7926
46.6028,1.7974
46.6028,1.7892
46.6038,1.6876
46.6038,1.5842
46.6048,1.5287
46.6048,1.5437
46.6058,1.6161
46.6058,1.5908
46.6058,1.6692
46.6068,1.8055
46.6068,1.9476
46.6078,1.7436
46.6078,1.7723
46.6088,1.8031
46.6117,1.7513
46.6127,1.7356
46.6127,1.6746
46.6137,1.6502
46.6137,1.5435
46.6182,1.5756
46.6182,1.6172
46.6192,1.6065
46.6192,1.8062
46.6252,1.8951
46.6252,1.8619
46.6264,1.7847
46.6264,1.7432
46.6272,1.7365
46.6314,1.7504
46.6324,1.7155
46.6324,1.5719
46.6324,1.548
46.6386,1.5426
46.6386,1.54
46.6397,1.6799
46.6397,1.7376
46.6407,1.7772
46.6449,1.8134
46.6457,1.8477
46.6457,1.8691
46.6467,1.8842
46.6467,1.7684
46.6517,1.6924
46.6527,1.6831
46.6527,1.6904
46.6527,1.5957
46.6590,1.6189
46.6598,1.6193
46.6598,1.6504
46.6608,1.8411
46.6618,1.8636
46.6658,1.8818
46.6658,1.9184
46.6668,1.9784
46.6668,1.9862
46.6728,1.9504
46.6728,1.7637
46.6738,1.6457
46.6738,1.6574
46.6748,1.6184
46.6788,1.6426
46.6798,1.7597
46.6798,1.8252
46.6808,1.8514
46.6863,1.9195
46.6997,1.9694
46.7027,1.9407
46.7027,1.8827
46.7038,1.9037
46.7038,1.8557
46.7038,1.7867
46.7048,1.7054
46.7048,1.6497
46.7058,1.6047
46.7058,1.6619
46.7068,1.7275
46.7068,1.8931
46.7068,1.9386
46.7078,1.9246
46.7078,1.9697
46.7088,1.9516
46.7088,1.9412
46.7097,1.9039
46.7130,1.7476
46.7140,1.6896
46.7140,1.6304
46.7150,1.6155
46.7202,1.6285
46.7212,1.6463
46.7212,1.714
46.7212,1.7761
46.7222,1.8428
46.7264,1.8681
46.7279,1.8329
46.7284,1.804
46.7294,1.7965
46.7336,1.7221
46.7336,1.6092
46.7346,1.6669
46.7346,1.6909
46.7356,1.7149
46.7398,1.6606
46.7398,1.5066
46.7408,1.6178
46.7408,1.6898
46.7418,1.7596
46.7468,1.7952
46.7468,1.9141
46.7478,1.8488
46.7478,1.7206
46.7541,1.6202
46.7541,1.5467
46.7551,1.5302
46.7551,1.4792
46.7561,1.4849
46.7603,1.5522
46.7603,1.5507
46.7613,1.7219
46.7613,1.7614
46.7674,1.8128
46.7674,1.8256
46.7684,1.7224
46.7684,1.6862
46.7694,1.6275
46.7737,1.6229
46.7744,1.5398
46.7744,1.5477
46.7765,1.5422
46.7808,1.5584
46.7815,1.666
46.7815,1.6836
46.7826,1.6591
46.7826,1.7881
46.7868,1.7731
46.7879,1.7329
46.7879,1.7222
46.7879,1.621
46.7888,1.5767
46.7940,1.575
46.7948,1.5287
46.7948,1.5192
46.7958,1.5188
46.8014,1.5938
46.8025,1.6137
46.8025,1.7046
46.8035,1.7682
46.8035,1.8263
46.8235,1.7819
46.8265,1.6771
46.8275,1.6658
46.8275,1.6536
46.8287,1.56
46.8287,1.5415
46.8295,1.4963
46.8295,1.4804
46.8305,1.6542
46.8305,1.6763
46.8305,1.6602
46.8315,1.6677
46.8315,1.7009
46.8325,1.7485
46.8325,1.7892
46.8335,1.7084
46.8335,1.6939
46.8345,1.6606
46.8346,1.5216
46.8346,1.5252
46.8357,1.5314
46.8357,1.4106
46.8367,1.4794
46.8419,1.651
46.8419,1.7181
46.8419,1.7547
46.8438,1.7626
46.8490,1.7869
46.8490,1.7815
46.8501,1.7361
46.8501,1.6279
46.8511,1.527
46.8553,1.5124
46.8563,1.5347
46.8563,1.5827
46.8563,1.5779
46.8627,1.5835
46.8627,1.6596
46.8637,1.7273
46.8637,1.7725
46.8637,1.8122
46.8692,1.8113
46.8702,1.6677
46.8702,1.6877
46.8713,1.663
46.8757,1.5107
46.8758,1.5542
46.8768,1.534
46.8768,1.5186
46.8778,1.5257
46.8822,1.6125
46.8822,1.6994
46.8832,1.7723
46.8832,1.8248
46.8842,1.8042
46.8894,1.765
46.8894,1.7177
46.8894,1.6714
46.8904,1.5728
46.8968,1.623
46.8968,1.467
46.8978,1.5162
46.8978,1.4903
46.8991,1.4624
46.9027,1.7447
46.9038,1.7723
46.9038,1.7217
46.9038,1.7384
46.9102,1.7697
46.9102,1.7389
46.9112,1.6461
46.9112,1.623
46.9122,1.5524
46.9163,1.5347
46.9173,1.5512
46.9173,1.504
46.9173,1.5906
46.9238,1.6574
46.9238,1.7341
46.9248,1.7232
46.9248,1.7671
46.9258,1.7815
46.9298,1.7787
46.9310,1.7545
46.9486,1.6883
46.9513,1.6266
46.9523,1.4505
46.9523,1.5104
46.9523,1.5739
46.9533,1.5557
46.9533,1.5962
46.9546,1.7003
46.9546,1.7521
46.9556,1.7185
46.9556,1.7395
46.9556,1.7367
46.9566,1.6195
46.9566,1.5833
46.9576,1.5261
46.9576,1.5329
46.9595,1.5674
46.9606,1.5599
46.9608,1.5464
46.9615,1.6992
46.9615,1.7144
46.9661,1.7076
46.9661,1.7457
46.9671,1.732
46.9671,1.6546
46.9719,1.6178
46.9729,1.605
46.9729,1.536
46.9739,1.4804
46.9739,1.4779
46.9790,1.516
46.9790,1.6148
46.9800,1.6365
46.9800,1.6787
46.9810,1.7281
46.9863,1.8059
46.9863,1.8128
46.9863,1.7029
46.9873,1.6414
46.9929,1.5981
46.9941,1.5891
46.9941,1.5407
46.9952,1.4989
46.9952,1.5134
46.9997,1.5829
46.9997,1.6315
47.0007,1.7382
47.0007,1.7262
47.0067,1.7483
47.0067,1.7744
47.0077,1.6997
47.0077,1.7164
47.0089,1.7012
47.0132,1.561
47.0132,1.6142
47.0143,1.5606
47.0143,1.5169
47.0203,1.5029
47.0203,1.5387
47.0213,1.6275
47.0213,1.7294
47.0226,1.7781
47.0263,1.8464
47.0271,1.8565
47.0271,1.8535
47.0284,1.7494
47.0284,1.7322
47.0334,1.6304
47.0334,1.4901
47.0346,1.5465
47.0346,1.5754
47.0442,1.6274
47.0577,1.6236
47.0607,1.7155
47.0617,1.8396
47.0617,1.8874
47.0629,1.8649
47.0629,1.8122
47.0629,1.7065
47.0640,1.7037
47.0640,1.6062
47.0649,1.5672
47.0649,1.4877
47.0659,1.4404
47.0659,1.5008
47.0669,1.543
47.0669,1.5983
47.0669,1.7451
47.0681,1.7792
47.0681,1.7511
47.0692,1.747
47.0692,1.6542
47.0692,1.5795
47.0701,1.618
47.0738,1.6296
47.0738,1.4952
47.0749,1.4644
47.0749,1.5344
47.0759,1.552
47.0810,1.6152
47.0821,1.7095
47.0821,1.7888
47.0821,1.7905
47.0887,1.7627
47.0887,1.7881
47.0899,1.7294
47.0899,1.5777
47.0909,1.5644
47.0953,1.5563
47.0954,1.3939
47.0962,1.4839
47.0962,1.5214
47.1020,1.5285
47.1028,1.6722
47.1038,1.6872
47.1048,1.7322
47.1048,1.8143
47.1081,1.7029
47.1081,1.7072
47.1091,1.6808
47.1101,1.6172
47.1144,1.6088
47.1153,1.504
47.1153,1.3915
47.1163,1.473
47.1163,1.5259
47.1217,1.6259
47.1228,1.6332
47.1228,1.7779
47.1228,1.8134
47.1239,1.8282
47.1290,1.8503
47.1290,1.672
47.1290,1.5533
47.1300,1.5242
47.1363,1.4455
47.1363,1.4209
47.1373,1.4087
47.1373,1.3868
47.1383,1.6551
47.1430,1.7217
47.1436,1.7421
47.1436,1.7627
47.1446,1.6894
47.1494,1.6244
47.1660,1.5809
47.1669,1.5467
47.1692,1.4785
47.1702,1.4286
47.1702,1.4204
47.1712,1.3776
47.1712,1.3776
47.1722,1.3836
47.1722,1.3285
47.1732,1.6298
47.1732,1.7282
47.1732,1.7751
47.1744,1.8321
47.1744,1.9266
47.1754,1.8653
47.1754,1.8818
47.1764,1.8766
47.1775,1.8196
47.1775,1.8632
47.1775,1.9726
47.1785,1.9086
47.1785,2.0093
47.1837,2.128
47.1847,2.1919
47.1850,2.2499
47.1850,2.2066
47.1861,2.0853
47.1903,1.9909
47.1903,1.7944
47.1913,1.6692
47.1913,1.627
47.1970,1.6009
47.1970,1.4939
47.1980,1.5293
47.1980,1.5882
47.1990,1.6409
47.2036,1.666
47.2046,1.6662
47.2046,1.7099
47.2056,1.7324
47.2101,1.7012
47.2101,1.6431
47.2111,1.6045
47.2111,1.5248
47.2121,1.566
47.2172,1.5544
47.2172,1.4967
47.2182,1.5252
47.2182,1.5696
47.2195,1.627
47.2235,1.7288
47.2246,1.7791
47.2246,1.7785
47.2246,1.7536
47.2315,1.6937
47.2315,1.587
47.2325,1.5893
47.2325,1.45
47.2335,1.5593
47.2378,1.5306
47.2388,1.5647
47.2388,1.6315
47.2398,1.6964
47.2449,1.7157
47.2449,1.7564
47.2459,1.7751
47.2459,1.7509
47.2472,1.7697
47.2516,1.6356
47.2516,1.5827
47.2528,1.5186
47.2528,1.4852
47.2583,1.491
47.2740,1.5291
47.2770,1.5767
47.2780,1.6262
47.2780,1.7537
47.2793,1.7914
47.2793,1.7674
47.2793,1.7907
47.2803,1.7264
47.2803,1.6396
47.2813,1.6532
47.2813,1.6622
47.2823,1.506
47.2823,1.4867
47.2833,1.5259
47.2833,1.5119
47.2833,1.4929
47.2844,1.6019
47.2844,1.6679
47.2855,1.7657
47.2855,1.7929
47.2855,1.7974
47.2865,1.7909
47.2921,1.7116
47.2921,1.6831
47.2941,1.6454
47.2941,1.5962
47.2954,1.4742
47.2985,1.5295
47.2995,1.5747
47.2995,1.585
47.2995,1.7464
47.3057,1.7941
47.3060,1.7892
47.3060,1.7866
47.3070,1.7446
47.3080,1.6679
47.3116,1.6463
47.3116,1.5927
47.3127,1.5439
47.3127,1.6214
47.3137,1.5437
47.3188,1.6015
47.3188,1.6544
47.3199,1.6829
47.3199,1.6771
47.3264,1.8621
47.3271,1.8964
47.3271,1.8809
47.3282,1.8012
47.3283,1.6354
47.3328,1.5422
47.3328,1.5492
47.3341,1.5023
47.3341,1.6075
47.3396,1.6225
47.3396,1.5899
47.3407,1.5949
47.3407,1.6167
47.3417,1.6703
47.3457,1.8004
47.3467,1.8072
47.3467,1.7586
47.3467,1.7194
47.3526,1.7106
47.3526,1.6767
47.3536,1.6086
47.3536,1.546
47.3546,1.4912
47.3596,1.5857
47.3603,1.6247
47.3603,1.7007
47.3613,1.7821
47.3613,1.8332
47.3825,1.8439
47.3907,1.888
47.3907,1.9073
47.3917,1.759
47.3917,1.7498
47.3917,1.6851
47.3933,1.5942
47.3937,1.5441
47.3937,1.5593
47.3947,1.6127
47.3947,1.7249
47.3957,1.7839
47.3957,1.8385
47.3967,1.8711
47.3967,1.8779
47.3967,1.867
47.3977,1.8608
47.3977,1.84
47.3987,1.7404
47.3987,1.6671
47.3997,1.6086
47.3997,1.6215
47.4007,1.6992
47.4007,1.6763
47.4017,1.7509
47.4017,1.9157
47.4017,1.9508
47.4068,1.9457
47.4068,1.9244
47.4078,1.8657
47.4078,1.84
47.4088,1.7986
47.4135,1.7059
47.4140,1.6069
47.4140,1.636
47.4150,1.6133
47.4208,1.6879
47.4218,1.7573
47.4218,1.8274
47.4228,1.9694
47.4228,1.9699
47.4271,1.9441
47.4271,1.9
47.4281,1.8563
47.4281,1.7147
47.4343,1.6868
47.4343,1.6332
47.4353,1.6103
47.4353,1.6724
47.4363,1.7003
47.4406,1.6596
47.4406,1.6613
47.4417,1.7717
47.4417,1.7717
47.4479,1.8323
47.4479,1.8061
47.4489,1.7581
47.4489,1.7414
47.4502,1.6954
47.4534,1.6611
47.4544,1.489
47.4544,1.4644
47.4557,1.5259
47.4557,1.5807
47.4609,1.6099
47.4609,1.63
47.4619,1.6907
47.4619,1.8055
47.4682,1.7972
47.4682,1.7519
47.4693,1.7547
47.4693,1.6536
47.4702,1.6197
47.4817,1.5274
47.4907,1.4618
47.4936,1.4459
47.4936,1.4414
47.4949,1.4633
47.4949,1.5612
47.4959,1.6793
47.4959,1.7599
47.4959,1.7571
47.4969,1.7969
47.4969,1.7359
47.4979,1.7164
47.4979,1.6643
47.4989,1.5327
47.4989,1.4772
47.4999,1.5205
47.4999,1.5199
47.4999,1.4888
47.5011,1.5938
47.5011,1.6259
47.5022,1.6772
47.5022,1.7451
47.5022,1.7614
47.5083,1.7717
47.5083,1.7108
47.5094,1.5709
47.5103,1.5235
47.5157,1.5029
47.5157,1.4547
47.5168,1.4582
47.5168,1.5539
47.5178,1.5479
47.5220,1.6028
47.5230,1.7136
47.5230,1.7573
47.5230,1.8194
47.5292,1.7327
47.5292,1.6328
47.5303,1.6187
47.5303,1.5779
47.5313,1.4817
47.5352,1.4138
47.5352,1.4333
47.5362,1.453
47.5362,1.531
47.5427,1.5447
47.5431,1.6109
47.5441,1.7575
47.5441,1.7494
47.5451,1.7545
47.5486,1.7644
47.5486,1.6932
47.5496,1.567
47.5496,1.5147
47.5506,1.5124
47.5558,1.4828
47.5558,1.5572
47.5568,1.542
47.5568,1.4819
47.5631,1.5797
47.5631,1.5949
47.5642,1.654
47.5642,1.7177
47.5654,1.7339
47.5694,1.7102
47.5704,1.6887
47.5704,1.6122
47.5717,1.5822
47.5767,1.5621
47.5770,1.5447
47.5770,1.4834
47.5780,1.5529
47.5780,1.552
47.5830,1.5664
47.5830,1.7097
47.5840,1.7483
47.5840,1.7616
47.5892,1.6909
47.6066,1.6892
47.6098,1.6495
47.6106,1.5749
47.6106,1.4815
47.6116,1.4717
47.6116,1.4487
47.6128,1.4674
47.6128,1.5805
47.6138,1.6067
47.6138,1.6821
47.6148,1.7875
47.6148,1.8145
47.6148,1.8308
47.6158,1.8346
47.6168,1.6459
47.6168,1.5405
47.6178,1.4826
47.6178,1.5435
47.6190,1.4822
47.6190,1.5413
47.6190,1.5891
47.6200,1.5977
47.6245,1.6062
47.6245,1.6763
47.6255,1.7605
47.6255,1.7515
47.6265,1.7086
47.6299,1.6045
47.6311,1.5872
47.6319,1.5119
47.6319,1.4504
47.6374,1.4444
47.6384,1.4772
47.6384,1.5315
47.6384,1.5854
47.6395,1.6352
47.6439,1.7504
47.6449,1.7378
47.6449,1.7485
47.6462,1.8008
47.6462,1.6834
47.6511,1.5983
47.6511,1.5795
47.6524,1.5105
47.6524,1.4612
47.6584,1.4378
47.6586,1.4841
47.6586,1.495
47.6595,1.6152
47.6606,1.6926
47.6646,1.711
47.6656,1.7866
47.6656,1.7819
47.6656,1.7607
47.6735,1.6881
47.6735,1.5319
47.6748,1.5158
47.6748,1.4342
47.6759,1.4999
47.6801,1.5482
47.6801,1.5509
47.6811,1.6896
47.6811,1.753
47.6870,1.8139
47.6870,1.8181
47.6880,1.7496
47.6880,1.7451
47.6890,1.6757
47.6975,1.5074
47.7107,1.4558
47.7127,1.4845
47.7139,1.4492
47.7147,1.5458
47.7147,1.5987
47.7157,1.605
47.7157,1.6718
47.7157,1.726
47.7167,1.7791
47.7167,1.729
47.7177,1.7007
47.7177,1.6988
47.7187,1.6664
47.7187,1.5212
47.7187,1.4792
47.7199,1.4462
47.7199,1.4511
47.7209,1.5244
47.7209,1.6268
47.7209,1.7348
47.7219,1.7963
47.7219,1.8117
47.7272,1.8167
47.7282,1.7367
47.7282,1.7054
47.7282,1.6555
47.7346,1.5854
47.7346,1.5756
47.7357,1.5584
47.7357,1.5709
47.7369,1.5927
47.7409,1.6889
47.7419,1.7459
47.7419,1.7161
47.7430,1.7206
47.7430,1.7776
47.7478,1.7854
47.7478,1.7507
47.7490,1.6988
47.7490,1.666
47.7550,1.6245
47.7550,1.4937
47.7561,1.4042
47.7561,1.3836
47.7571,1.5109
47.7615,1.5906
47.7625,1.6576
47.7625,1.7427
47.7625,1.7228
47.7684,1.6979
47.7692,1.6489
47.7692,1.8042
47.7702,1.6251
47.7702,1.5572
47.7749,1.5233
47.7749,1.4997
47.7762,1.5085
47.7771,1.5344
47.7822,1.5535
47.7824,1.6292
47.7834,1.6446
47.7834,1.7189
47.7834,1.7671
47.7881,1.7457
47.7881,1.7069
47.7891,1.6778
47.7891,1.6112
47.7901,1.5222
47.7954,1.4742
47.7954,1.4065
47.7964,1.4264
47.7964,1.5105
47.8045,1.5702
47.8175,1.6262
47.8205,1.7875
47.8217,1.7849
47.8224,1.7481
47.8224,1.7807
47.8234,1.6776
47.8234,1.5675
47.8234,1.5113
47.8244,1.4989
47.8244,1.4867
47.8254,1.465
47.8254,1.494
47.8264,1.522
47.8274,1.6465
47.8274,1.6894
47.8285,1.7117
47.8285,1.7084
47.8294,1.7091
47.8294,1.6313
47.8294,1.6244
47.8305,1.5927
47.8305,1.4922
47.8361,1.4395
47.8361,1.4725
47.8371,1.4579
47.8371,1.4477
47.8384,1.5139
47.8436,1.6517
47.8446,1.696
47.8446,1.8218
47.8456,1.7783
47.8503,1.6448
47.8503,1.579
47.8513,1.5047
47.8513,1.4421
47.8523,1.3214
47.8566,1.3058
47.8566,1.3635
47.8576,1.42
47.8576,1.4415
47.8639,1.5032
47.8639,1.6028
47.8650,1.7136
47.8650,1.8055
47.8659,1.8822
47.8702,1.8079
47.8713,1.7877
47.8713,1.8012
47.8722,1.8257
47.8768,1.7905
47.8768,1.8794
47.8778,2.0162
47.8778,2.0958
47.8790,2.0913
47.8843,2.1175
47.8843,2.2255
47.8854,2.2679
47.8854,2.182
47.8864,2.0763
47.8906,1.9982
47.8906,1.8587
47.8916,1.6013
47.8919,1.6142
47.8980,1.6187
47.8980,1.5741
47.8990,1.608
47.8990,1.6187
47.9000,1.6037
47.9041,1.7911
47.9052,1.8164
47.9052,1.7753
47.9052,1.7228
47.9116,1.7114
47.9252,1.6472
47.9280,1.5539
47.9290,1.5179
47.9290,1.395
47.9301,1.4603
47.9301,1.4914
47.9310,1.6022
47.9312,1.687
47.9312,1.768
47.9323,1.7659
47.9323,1.7642
47.9323,1.7624
47.9333,1.663
47.9333,1.6099
47.9343,1.6302
47.9343,1.545
47.9353,1.4879
47.9353,1.4813
47.9375,1.5884
47.9386,1.6069
47.9386,1.6317
47.9395,1.7899
47.9453,1.7577
47.9453,1.738
47.9463,1.7239
47.9463,1.8141
47.9475,1.8012
47.9525,1.6956
47.9528,1.6075
47.9528,1.4031
47.9539,1.4933
47.9596,1.4459
47.9602,1.5726
47.9602,1.6602
47.9614,1.7084
47.9614,1.723
47.9655,1.7644
47.9664,1.8646
47.9664,1.7241
47.9664,1.6187
47.9726,1.7108
47.9726,1.7174
47.9736,1.6819
47.9736,1.5437
47.9746,1.5179
47.9788,1.5634
47.9788,1.6382
47.9798,1.6939
47.9798,1.6904
47.9808,1.7716
47.9851,1.7506
47.9861,1.7551
47.9861,1.7596
47.9872,1.7431
47.9928,1.6298
47.9928,1.5092
47.9939,1.4657
47.9939,1.4952
47.9949,1.5259
47.9993,1.6862
47.9993,1.6501
48.0003,1.632
48.0003,1.7157
48.0066,1.8102
48.0066,1.7792
48.0076,1.7558
48.0076,1.8421
48.0086,1.8267
48.0128,1.6849
48.0128,1.6202
48.0139,1.5194
48.0139,1.5169
48.0201,1.561
48.0325,1.5036
48.0356,1.5505
48.0365,1.6441
48.0365,1.8049
48.0375,1.8893
48.0375,1.8606
48.0388,1.7191
48.0388,1.7432
48.0388,1.6741
48.0401,1.6954
48.0401,1.6516
48.0408,1.7041
48.0408,1.5554
48.0418,1.5569
48.0418,1.5996
48.0430,1.6814
48.0438,1.8055
48.0438,1.8368
48.0463,1.8647
48.0470,1.7686
48.0470,1.8919
48.0480,1.8571
48.0540,1.8541
48.0540,1.7464
48.0550,1.6317
48.0550,1.7436
48.0563,1.7781
48.0606,1.7374
48.0617,1.6133
48.0617,1.6371
48.0626,1.8537
48.0672,1.9583
48.0672,1.9347
48.0683,1.9577
48.0683,1.6981
48.0692,1.9156
48.0736,1.7012
48.0736,1.4151
48.0746,1.5555
48.0746,1.5625
48.0756,1.6986
48.0804,1.7453
48.0809,1.7641
48.0809,1.933
48.0819,1.9566
48.0879,2.0166
48.0879,2.0027
48.0889,1.6924
48.0889,1.7819
48.0902,1.849
48.0940,1.7382
48.0951,1.6592
48.0951,1.6583
48.0951,1.7211
48.1015,1.8934
48.1016,1.8685
48.1016,2.0916
48.1027,1.9772
48.1027,1.7581
48.1072,1.8001
48.1072,1.8612
48.1082,1.9431
48.1092,1.8736
48.1147,1.9722
48.1147,1.8242
48.1157,1.6827
48.1157,1.7528
48.1167,1.7671
48.1210,1.8231
48.1210,1.7993
48.1220,1.8707
48.1220,1.9422
48.1230,1.9484
48.1418,1.9354
48.1448,1.8456
48.1458,2.0877
48.1458,1.8473
48.1469,1.6958
48.1470,1.5441
48.1470,1.5019
48.1480,1.4766
48.1480,1.6675
48.1490,1.7234
48.1490,1.7522
48.1500,1.8571
48.1500,1.8224
48.1500,1.9191
48.1510,1.8957
48.1510,1.9011
48.1522,1.7665
48.1522,1.7286
48.1550,1.6335
48.1550,1.6189
48.1560,1.4789
48.1560,1.6553
48.1615,1.6819
48.1615,1.7911
48.1625,2.0329
48.1625,1.9847
48.1638,1.8556
48.1680,2.0584
48.1691,1.9457
48.1691,1.8499
48.1702,1.8076
48.1711,1.7076
48.1754,1.5471
48.1762,1.4505
48.1764,1.4449
48.1777,1.533
48.1823,1.6621
48.1823,1.7941
48.1833,1.9412
48.1833,2.0676
48.1843,1.9669
48.1888,1.6304
48.1898,1.5349
48.1898,1.4605
48.1898,1.5874
48.1960,1.6757
48.1960,1.6909
48.1970,1.5747
48.1970,1.4415
48.1983,1.5959
48.2017,1.7001
48.2027,1.8531
48.2027,1.7009
48.2037,1.6801
48.2095,1.7324
48.2096,1.6907
48.2106,1.5574
48.2106,1.5788
48.2116,1.5621
48.2153,1.6776
48.2153,1.375
48.2163,1.3791
48.2163,1.6521
48.2173,1.7192
48.2226,1.5576
48.2226,1.6787
48.2236,1.8413
48.2236,1.6472
48.2299,1.6613
48.2299,1.6435
48.2309,1.6739
48.2309,1.6302
48.2323,1.5546
48.2489,1.8107
48.2518,1.7777
48.2540,1.567
48.2550,1.5599
48.2550,1.8361
48.2560,1.8612
48.2563,1.6939
48.2570,1.4505
48.2570,1.6919
48.2580,1.5642
48.2580,1.7449
48.2590,1.7123
48.2600,1.8205
48.2600,1.7123
48.2610,1.6816
48.2610,1.5428
48.2610,1.6797
48.2620,1.614
48.2620,1.5584
48.2630,1.852
48.2640,1.8929
48.2642,2.086
48.2652,1.9765
48.2692,1.7781
48.2702,1.8126
48.2702,1.7101
48.2714,1.5799
48.2769,1.4406
48.2780,1.4843
48.2787,1.4742
48.2797,1.5405
48.2797,1.6075
48.2835,1.6641
48.2845,1.7447
48.2845,1.6787
48.2845,1.7693
48.2906,1.6971
48.2906,1.7344
48.2917,1.8449
48.2917,1.9054
48.2927,1.7819
48.2971,1.5797
48.2971,1.4539
48.2981,1.4723
48.2981,1.3613
48.3041,1.4967
48.3047,1.792
48.3047,1.7633
48.3058,1.8111
48.3058,1.6911
48.3101,1.7504
48.3101,1.738
48.3112,1.5915
48.3112,1.7196
48.3121,1.554
48.3174,1.5075
48.3174,1.4835
48.3185,1.6647
48.3185,1.8106
48.3251,1.6418
48.3251,1.7571
48.3262,1.8128
48.3263,1.8505
48.3263,1.7042
48.3316,1.9289
48.3316,1.8623
48.3327,1.7556
48.3327,1.3307
48.3379,1.5527
48.3389,1.7575
48.3389,1.7344
48.3389,1.6172
48.3466,1.8473
48.3589,1.8216
48.3626,1.5321
48.3626,1.8799
48.3636,1.6819
48.3636,1.6664
48.3646,1.5769
48.3646,1.6808
48.3646,1.9052
48.3656,1.8743
48.3656,1.7809
48.3666,1.5107
48.3666,1.5865
48.3678,1.7897
48.3678,1.7301
48.3688,1.8602
48.3688,1.8023
48.3698,1.8192
48.3698,1.7991
48.3722,1.5533
48.3722,1.8842
48.3735,1.648
48.3735,1.2642
48.3745,1.5437
48.3781,1.4209
48.3794,1.5518
48.3794,1.7978
48.3805,1.8329
48.3850,1.8593
48.3861,1.6999
48.3861,1.6487
48.3870,1.5891
48.3870,1.6013
48.3921,1.6776
48.3984,1.6069
48.3984,1.6531
48.3984,1.7371
48.4009,1.6849
48.4009,1.6619
48.4020,1.456
48.4020,1.5248
48.4029,1.6326
48.4071,1.8451
48.4081,2.0427
48.4081,1.8801
48.4081,1.6247
48.4091,1.5417
48.4141,1.6727
48.4141,1.7556
48.4151,1.7146
48.4151,1.7222
48.4213,1.5227
48.4223,1.6302
48.4223,1.939
48.4223,1.9643
48.4234,1.9795
48.4275,1.7301
48.4286,1.4695
48.4286,1.5974
48.4296,1.4955
48.4348,1.4264
48.4348,1.6214
48.4358,1.7517
48.4358,1.8475
48.4368,1.6966
48.4411,1.7511
48.4421,1.8623
48.4421,2.0369
48.4431,2.0434
48.4482,2.1993
48.4532,1.9409
48.4662,1.7271
48.4692,1.7052
48.4702,1.537
48.4702,1.6846
48.4712,1.7914
48.4712,1.6401
48.4722,1.6724
48.4722,1.7018
48.4732,1.4783
48.4732,1.6694
48.4732,1.7035
48.4742,1.7399
48.4742,1.7954
48.4752,1.9073
48.4752,1.9731
48.4762,1.6716
48.4771,1.5533
48.4771,1.467
48.4782,1.4796
48.4782,1.614
48.4782,1.572
48.4823,1.7747
48.4823,1.7177
48.4834,1.756
48.4834,1.6486
48.4844,2.059
48.4886,2.0119
48.4896,1.5441
48.4896,1.561
48.4896,1.8668
48.4959,1.678
48.4959,1.7056
48.4969,1.6542
48.4969,1.5267
48.4979,1.6347
48.5022,1.7063
48.5022,1.7114
48.5032,1.7558
48.5032,1.6349
48.5042,1.7056
48.5095,1.9446
48.5095,1.8186
48.5102,1.8087
48.5102,1.6945
48.5165,1.5983
48.5165,1.5857
48.5176,1.5734
48.5176,1.5788
48.5188,1.5653
48.5229,1.6847
48.5239,1.8681
48.5241,1.7132
48.5241,1.5677
48.5294,1.7451
48.5304,1.7969
48.5304,1.7363
48.5304,1.645
48.5314,1.5567
48.5357,1.3253
48.5366,1.8552
48.5366,1.6712
48.5376,1.6898
48.5433,1.8068
48.5433,2.017
48.5443,2.179
48.5443,1.9506
48.5456,1.6684
48.5497,1.6956
48.5509,1.6589
48.5509,1.492
48.5520,1.5072
48.5520,1.4948
48.5566,1.6253
48.5572,1.4294
48.5572,1.7247
48.5582,1.876
48.5642,1.8801
48.5642,1.9731
48.5652,1.8856
48.5652,1.7014
48.5662,1.5846
48.5704,1.654
48.5715,1.4513
48.5881,1.3364
48.5914,1.7324
48.5914,1.726
48.5924,1.7039
48.5929,1.711
48.5934,1.9129
48.5944,2.0102
48.5944,2.1295
48.5944,2.2778
48.5953,2.302
48.5953,2.2737
48.5966,2.1901
48.5971,2.1814
48.5976,2.4312
48.5976,2.0965
48.5986,2.0569
48.5986,1.8659
48.5996,1.6392
48.5996,1.7817
48.6006,1.8653
48.6006,1.7599
48.6048,1.7181
48.6058,1.8955
48.6067,2.0466
48.6077,1.63
48.6117,1.8413
48.6127,2.0146
48.6137,1.8261
48.6147,1.9808
48.6157,1.6527
48.6178,1.6643
48.6190,1.8312
48.6197,1.9741
48.6208,2.0251
48.6251,1.8317
48.6251,1.9056
48.6267,1.8304
48.6271,1.8016
48.6281,1.693
48.6316,1.8053
48.6316,1.6874
48.6326,1.4969
48.6336,1.5184
48.6388,1.3898
48.6388,1.6037
48.6398,1.6789
48.6398,1.6776
48.6408,1.8587
48.6445,1.9141
48.6452,1.8443
48.6452,1.7226
48.6463,1.702
48.6463,1.5525
48.6524,1.6227
48.6524,1.7419
48.6534,1.9444
48.6534,1.6915
48.6584,1.4987
48.6599,1.6913
48.6606,1.78
48.6616,1.7449
48.6616,1.9101
48.6658,1.7723
48.6658,1.7316
48.6668,1.8098
48.6678,1.7513
48.6750,1.9349
48.6914,1.7003
48.6944,1.482
48.6954,1.522
48.6965,1.5175
48.6966,1.5171
48.6966,1.8477
48.6976,1.8715
48.6976,1.9291
48.6986,1.6898
48.6986,1.8235
48.6996,1.8664
48.6996,1.8209
48.7006,1.7333
48.7006,1.48
48.7016,1.4946
48.7016,1.7072
48.7027,1.6319
48.7027,1.7386
48.7027,1.6733
48.7037,1.7776
48.7037,1.8531
48.7047,2.1064
48.7068,2.0764
48.7068,1.9832
48.7079,1.9386
48.7079,1.9264
48.7089,1.9737
48.7129,1.7871
48.7129,1.5503
48.7141,1.6437
48.7141,1.7119
48.7193,1.6671
48.7204,1.6801
48.7214,1.6836
48.7224,1.5979
48.7224,2.0566
48.7262,1.8576
48.7265,1.7057
48.7275,1.6124
48.7275,1.9024
48.7328,1.5897
48.7338,1.5008
48.7348,1.4265
48.7348,1.5855
48.7358,1.6268
48.7397,1.6857
48.7397,1.6292
48.7407,1.7018
48.7407,1.7642
48.7417,1.7961
48.7467,1.7828
48.7467,1.6821
48.7477,1.8107
48.7477,1.7811
48.7539,1.7896
48.7539,1.7764
48.7551,1.7792
48.7551,1.6274
48.7560,1.7877
48.7599,2.1445
48.7611,2.1904
48.7611,1.8627
48.7621,1.9028
48.7673,1.7789
48.7673,1.7562
48.7684,1.7624
48.7693,1.7245
48.7703,1.4644
48.7736,1.5287
48.7746,1.53
48.7756,1.7339
48.7766,1.8044
48.7816,1.8068
48.8017,1.867
48.8057,1.8413
48.8057,1.8451
48.8067,2.0277
48.8067,2.0136
48.8078,1.9765
48.8078,2.0568
48.8089,2.1327
48.8098,1.6958
48.8098,1.7888
48.8108,1.6277
48.8108,1.669
48.8118,1.8839
48.8118,1.9705
48.8128,1.8226
48.8128,1.7303
48.8128,2.0639
48.8140,1.9171
48.8147,1.9304
48.8150,1.9789
48.8150,1.9028
48.8150,1.9889
48.8161,1.9414
48.8161,1.8752
48.8170,1.9397
48.8170,2.0151
48.8180,2.0568
48.8212,1.8511
48.8212,1.7644
48.8222,1.9041
48.8222,2.0416
48.8280,1.9624
48.8280,2.0252
48.8288,1.9628
48.8288,1.626
48.8298,1.5396
48.8346,1.4843
48.8346,1.3622
48.8356,1.3362
48.8356,1.8257
48.8369,2.0629
48.8409,1.9832
48.8419,2.0789
48.8429,1.9602
48.8432,1.9289
48.8481,1.8929
48.8491,1.8188
48.8501,2.0588
48.8511,2.0489
48.8511,2.0262
48.8553,1.5722
48.8553,1.5272
48.8563,1.5779
48.8573,1.7016
48.8621,1.6774
48.8630,1.7909
48.8630,2.0318
48.8641,1.9861
48.8642,1.9339
48.8685,1.9686
48.8685,1.8676
48.8697,1.7614
48.8707,1.6628
48.8747,1.6589
48.8760,1.6639
48.8770,1.6097
48.8770,1.6962
48.8780,1.6035
48.8817,1.5623
48.8827,1.635
48.8827,1.8616
48.8837,1.6857
48.8837,1.7335
48.9096,1.9699
48.9137,1.9037
48.9147,1.6739
48.9157,1.7185
48.9167,1.7567
48.9167,1.5735
48.9177,1.5357
48.9177,1.7472
48.9187,1.5992
48.9199,1.6894
48.9199,1.6373
48.9209,2.0286
48.9216,1.8961
48.9219,2.0933
48.9219,2.0228
48.9229,1.711
48.9229,1.7037
48.9240,1.6531
48.9240,1.4498
48.9251,1.477
48.9252,1.5124
48.9262,1.5985
48.9269,1.5711
48.9273,1.9234
48.9273,1.9493
48.9282,1.8141
48.9282,1.6979
48.9291,1.8745
48.9291,1.8079
48.9291,1.7941
48.9304,1.6902
48.9304,1.5462
48.9356,1.5934
48.9367,1.5852
48.9367,1.5938
48.9377,1.7909
48.9436,1.7307
48.9439,1.7179
48.9446,1.8706
48.9446,1.7888
48.9456,1.7511
48.9498,1.8319
48.9508,1.5906
48.9508,1.9444
48.9508,1.9632
48.9570,1.8066
48.9570,1.6114
48.9581,1.6352
48.9581,1.5314
48.9594,1.6941
48.9633,1.7549
48.9633,1.8087
48.9643,1.8171
48.9643,2.011
48.9699,2.0393
48.9709,1.9094
48.9712,1.5833
48.9720,1.411
48.9720,1.4717
48.9765,1.4865
48.9765,1.6984
48.9776,1.575
48.9776,1.5732
48.9786,1.7018
48.9838,1.7462
48.9838,1.9257
48.9838,1.9947
48.9848,1.8068
48.9908,1.7554
48.9918,1.9304
48.9927,1.9232
48.9929,1.6547
48.9938,1.4967
48.9968,1.5389
48.9978,1.5113
48.9978,1.6731
48.9988,1.7138
49.0055,1.8147
49.0124,1.6849
49.0328,1.8751
49.0361,1.9358
49.0371,1.8846
49.0382,1.8906
49.0391,1.8752
49.0391,1.7804
49.0401,1.5824
49.0411,1.5876
49.0421,1.7204
49.0431,1.9219
49.0441,2.1008
49.0443,1.9148
49.0451,1.6217
49.0461,1.6206
49.0471,1.8347
49.0481,1.9304
49.0491,1.7029
49.0491,1.6309
49.0503,1.6887
49.0516,1.6519
49.0521,1.5548
49.0531,1.618
49.0541,1.6249
49.0541,1.6392
49.0551,1.8334
49.0562,2.0282
49.0562,1.9321
49.0572,1.8777
49.0583,1.7567
49.0588,1.7869
49.0592,1.7616
49.0609,1.7498
49.0612,1.7976
49.0624,1.7027
49.0634,1.6637
49.0634,1.3028
49.0651,1.3675
49.0654,1.4299
49.0666,1.5807
49.0674,1.999
49.0684,2.0177
49.0688,1.7976
49.0696,1.7307
49.0706,1.7099
49.0716,1.8173
49.0716,1.7474
49.0731,1.6369
49.0738,1.6484
49.0746,1.8053
49.0786,1.8061
49.0797,1.5636
49.0807,1.5629
49.0807,1.6214
49.0858,1.6711
49.0867,1.8904
49.0878,2.0303
49.0887,1.8664
49.0887,1.6624
49.0920,1.6414
49.0928,1.657
49.0938,1.6849
49.0938,1.6105
49.0990,1.6874
49.0998,1.7849
49.1008,1.903
49.1008,1.8653
49.1018,1.8707
49.1058,1.8597
49.1058,1.9502
49.1129,1.8068
49.1262,1.87
49.1281,1.8471
49.1291,1.792
49.1291,1.7393
49.1301,1.7168
49.1301,1.5795
49.1301,1.6079
49.1311,1.7903
49.1311,1.9816
49.1321,1.8876
49.1321,1.7547
49.1321,1.8569
49.1332,1.8974
49.1332,1.9701
49.1342,1.6724
49.1350,1.7005
49.1350,1.7035
49.1359,1.624
49.1359,1.53
49.1359,1.5006
49.1410,1.8152
49.1420,1.7845
49.1430,1.8079
49.1433,2.1021
49.1485,1.9154
49.1490,1.7714
49.1500,1.7056
49.1500,1.5456
49.1510,1.6516
49.1552,1.5405
49.1552,1.8869
49.1561,1.7191
49.1571,1.7434
49.1615,1.9131
49.1623,1.6838
49.1634,1.5659
49.1643,1.5323
49.1643,1.6054
49.1685,1.8196
49.1685,1.924
49.1695,1.7871
49.1697,1.4957
49.1697,1.581
49.1756,1.6973
49.1760,1.5672
49.1766,1.617
49.1766,1.9409
49.1825,1.8764
49.1828,1.8784
49.1828,1.7618
49.1838,1.999
49.1848,1.9836
49.1888,1.8233
49.1899,2.0742
49.1899,1.6411
49.1909,1.6427
49.1959,1.7601
49.1959,1.365
49.1969,1.5546
49.1969,1.6155
49.1969,2.0748
49.2021,1.8786
49.2021,1.8119
49.2031,1.6122
49.2031,1.5938
49.2093,1.9645
49.2093,1.9947
49.2093,1.8466
49.2103,1.5531
49.2103,1.483
49.2156,1.3778
49.2156,1.2762
49.2167,1.2859
49.2167,1.3883
49.2177,1.5685
49.2229,1.6761
49.2229,1.8812
49.2239,2.0594
49.2239,2.1773
49.2322,2.0288
49.2517,1.5239
49.2548,1.4924
49.2557,1.6729
49.2557,1.7984
49.2569,1.5362
49.2569,1.4256
49.2579,1.5962
49.2579,1.5818
49.2589,1.6778
49.2601,1.9836
49.2601,2.0498
49.2609,1.9525
49.2609,1.9201
49.2619,1.8046
49.2619,1.9994
49.2631,2.0202
49.2632,1.8625
49.2642,1.4708
49.2652,1.4166
49.2662,1.5439
49.2662,1.6656
49.2672,1.837
49.2684,1.5724
49.2684,1.6122
49.2694,1.446
49.2704,1.6898
49.2714,1.8002
49.2714,1.8829
49.2724,1.8287
49.2737,1.7742
49.2737,1.7603
49.2777,1.7545
49.2787,1.9889
49.2787,2.1481
49.2799,2.3573
49.2799,2.3408
49.2839,2.489
49.2849,2.2341
49.2859,2.3941
49.2868,2.6005
49.2911,2.3539
49.2917,2.4194
49.2929,2.2638
49.2929,2.0194
49.2939,1.7817
49.2969,1.8023
49.2979,1.8767
49.2991,1.7725
49.3001,2.0031
49.3045,1.8507
49.3051,1.8297
49.3061,1.7674
49.3071,1.8439
49.3071,1.9285
49.3108,1.9534
49.3113,1.7489
49.3123,1.446
49.3133,1.3575
49.3143,1.2645
49.3185,1.6851
49.3185,1.8932
49.3195,2.1265
49.3206,2.0659
49.3251,1.9681
49.3256,1.9787
49.3266,2.0916
49.3276,1.9881
49.3286,1.8342
49.3316,1.7971
49.3326,1.81
49.3337,1.3632
49.3337,1.4835
49.3429,1.6825
49.3633,1.7468
49.3671,1.8263
49.3681,1.846
49.3681,1.8422
49.3692,1.7622
49.3702,1.8865
49.3712,1.9797
49.3712,1.8061
49.3722,1.9564
49.3734,1.8398
49.3742,1.7671
49.3742,1.7714
49.3754,1.8651
49.3764,1.7957
49.3774,1.6949
49.3784,1.6787
49.3784,1.7384
49.3798,1.6632
49.3804,1.8623
49.3804,1.9744
49.3816,1.9726
49.3826,1.8869
49.3836,1.8818
49.3846,1.7567
49.3846,1.9667
49.3856,1.7781
49.3866,1.4314
49.3878,1.555
49.3888,1.7417
49.3888,1.795
49.3897,1.9669
49.3897,2.0993
49.3914,2.0421
49.3917,1.9116
49.3927,1.915
49.3940,1.6889
49.3949,1.6735
49.3959,1.474
49.3959,1.632
49.3969,1.8664
49.3989,1.9206
49.4073,1.8072
49.4073,1.9756
49.4082,2.0783
49.4082,1.9853
49.4093,1.7759
49.4102,1.7153
49.4102,1.6281
49.4102,1.7147
49.4112,1.7269
49.4132,1.705
49.4132,1.7573
49.4142,1.8606
49.4142,1.7264
49.4205,1.732
49.4205,2.0275
49.4215,2.011
49.4215,1.9844
49.4225,1.7376
49.4271,1.7637
49.4271,1.6643
49.4281,1.7946
49.4281,2.0101
49.4331,2.0588
49.4346,1.6472
49.4351,1.8272
49.4351,2.0479
49.4351,1.9433
49.4400,2.0198
49.4409,2.0072
49.4409,2.0929
49.4419,2.3414
49.4508,2.0374
49.4598,1.8996
49.4633,1.7063
49.4633,1.6652
49.4638,1.7018
49.4648,1.7806
49.4648,1.7695
49.4658,1.7131
49.4658,1.5897
49.4668,1.6431
49.4668,1.7251
49.4668,1.9699
49.4678,2.0082
49.4678,2.1441
49.4688,1.8764
49.4688,2.0699
49.4698,1.9876
49.4698,1.7131
49.4698,1.4912
49.4740,1.536
49.4750,1.515
49.4750,1.5314
49.4760,1.7896
49.4812,2.2816
49.4820,2.2954
49.4820,2.1194
49.4830,1.828
49.4839,1.9752
49.4870,1.9645
49.4879,2.0939
49.4890,2.0903
49.4899,2.0864
49.4939,1.915
49.4949,1.7783
49.4959,1.873
49.4969,2.0819
49.4971,2.2947
49.5011,2.1715
49.5011,2.2096
49.5021,2.2116
49.5032,2.2891
49.5045,2.2426
49.5082,1.9142
49.5093,2.2407
49.5098,2.1104
49.5102,1.8674
49.5152,1.6313
49.5162,1.4672
49.5162,1.627
49.5172,1.8809
49.5183,2.1378
49.5218,2.1914
49.5218,2.2861
49.5218,2.1061
49.5228,2.0213
49.5286,2.0539
49.5286,2.2467
49.5298,2.0663
49.5298,2.0774
49.5308,1.9606
49.5350,1.7957
49.5356,1.9197
49.5360,1.9253
49.5360,1.8509
49.5418,1.8784
49.5428,2.0905
49.5428,2.0429
49.5428,1.9277
49.5438,2.0931
49.5483,2.1379
49.5679,2.1784
49.5712,2.1029
49.5725,1.6714
49.5732,1.69
49.5742,1.6491
49.5742,1.7558
49.5752,1.7759
49.5752,1.7991
49.5764,2.0108
49.5764,2.0682
49.5772,1.9351
49.5772,2.0918
49.5782,2.1918
49.5782,2.2308
49.5792,2.0463
49.5792,1.6701
49.5801,1.6245
49.5803,1.6506
49.5803,1.7033
49.5811,1.6215
49.5811,1.8779
49.5821,2.0594
49.5827,2.044
49.5827,2.0485
49.5837,2.1663
49.5837,2.1261
49.5884,2.068
49.5894,1.8947
49.5912,1.9591
49.5912,1.9639
49.5926,1.858
49.5956,1.7462
49.5961,1.6127
49.5973,1.6808
49.5973,1.7232
49.5983,1.9392
49.6035,1.9049
49.6035,2.0763
49.6045,2.0506
49.6045,2.0753
49.6099,2.1471
49.6105,2.0821
49.6115,1.8996
49.6125,1.8805
49.6135,2.0327
49.6168,1.8797
49.6178,1.7277
49.6188,1.6943
49.6188,1.9189
49.6234,2.0922
49.6237,2.0114
49.6247,1.9208
49.6259,1.7134
49.6268,1.726
49.6299,1.9366
49.6309,2.2409
49.6309,2.0007
49.6319,1.8617
49.6368,1.6238
49.6373,1.6877
49.6383,1.7603
49.6393,1.8974
49.6393,1.8079
49.6426,1.7142
49.6445,1.7573
49.6455,1.996
49.6455,1.8542
49.6465,2.4278
49.6504,2.2193
49.6514,2.0699
49.6514,1.9073
49.6604,1.9754
49.6815,2.0101
49.6864,1.8027
49.6864,1.7641
49.6874,1.9201
49.6884,1.9041
49.6893,1.897
49.6904,2.1933
49.6913,2.2617
49.6923,2.2643
49.6933,2.1344
49.6943,2.0959
49.6948,1.8526
49.6953,1.7954
49.6964,1.7935
49.6964,1.7716
49.6973,1.7821
49.6983,1.9007
49.6993,2.4846
49.7003,2.0125
49.7011,2.0969
49.7016,1.9649
49.7026,1.9236
49.7036,1.9718
49.7042,1.8891
49.7046,1.6999
49.7056,1.6956
49.7068,1.8402
49.7078,1.6052
49.7078,1.9354
49.7088,2.3013
49.7098,2.2917
49.7108,2.0916
49.7118,1.7987
49.7129,1.9782
49.7129,2.1269
49.7139,1.9881
49.7149,1.8961
49.7149,1.8572
49.7159,1.8721
49.7169,1.8259
49.7179,1.8601
49.7189,2.1364
49.7199,1.9193
49.7199,1.8021
49.7209,2.0239
49.7219,2.0523
49.7244,2.1224
49.7251,2.107
49.7261,2.0277
49.7270,2.0262
49.7310,2.1078
49.7322,2.1091
49.7330,2.1413
49.7340,1.9105
49.7340,1.8047
49.7380,1.7059
49.7383,2.1109
49.7390,2.3667
49.7390,2.3374
49.7400,2.2249
49.7450,2.0372
49.7450,2.1351
49.7460,2.1659
49.7460,1.8769
49.7520,1.9604
49.7520,1.918
49.7531,1.9559
49.7531,1.774
49.7541,1.6017
49.7581,1.5977
49.7592,1.8841
49.7592,2.1889
49.7601,2.257
49.7675,2.2546
49.7746,2.1687
49.7764,2.0513
49.7772,2.0339
49.7772,2.1357
49.7772,1.9611
49.7782,2.1104
49.7782,1.8964
49.7782,1.7931
49.7782,1.9238
49.7792,1.8143
49.7792,1.6851
49.7792,1.8548
49.7802,2.0194
49.7852,2.1383
49.7852,2.2722
49.7852,2.3579
49.7852,2.2176
49.7863,2.0327
49.7926,1.8702
49.7933,1.8664
49.7933,1.9069
49.7933,1.9148
49.7997,1.9321
49.7997,2.1777
49.8006,2.1454
49.8006,1.9562
49.8006,1.8439
49.8059,1.9193
49.8059,2.1428
49.8069,2.1882
49.8069,1.9967
49.8132,2.0144
49.8132,1.954
49.8141,1.9804
49.8141,2.0114
49.8153,2.0613
49.8194,2.3554
49.8194,2.1884
49.8204,2.0286
49.8204,2.2364
49.8266,2.4038
49.8266,2.2563
49.8276,2.1031
49.8276,2.2201
49.8276,2.2904
49.8329,2.1944
49.8329,2.0976
49.8339,1.9838
49.8339,1.8557
49.8349,1.9652
49.8400,1.9351
49.8400,2.0959
49.8410,2.1443
49.8410,2.0793
49.8473,2.2381
49.8473,2.2465
49.8484,2.3508
49.8484,2.4815
49.8484,2.257
49.8537,1.8704
49.8546,1.9495
49.8546,1.9937
49.8556,1.885
49.8626,1.8711
49.8628,1.9101
49.8628,1.8066
49.8640,2.0431
49.8640,2.3847
49.8693,2.4001
49.8693,2.329
49.8704,2.2448
49.8877,2.1867
49.8897,1.9039
49.8906,1.9562
49.8906,2.0134
49.8919,2.3106
49.8919,2.3298
49.8929,2.1325
49.8929,1.9285
49.8939,2.0018
49.8939,2.0678
49.8949,2.0828
49.8949,2.0502
49.8949,1.9712
49.8959,2.1124
49.8959,2.0866
49.8969,1.9454
49.8969,1.9097
49.8969,1.8882
49.8981,1.9412
49.8981,1.9324
49.9033,2.3453
49.9034,1.9827
49.9045,2.1766
49.9045,2.2332
49.9094,2.5096
49.9104,2.0843
49.9116,1.9311
49.9116,1.8096
49.9124,1.9692
49.9166,2.0504
49.9166,1.9362
49.9176,2.1649
49.9176,2.311
49.9234,2.2062
49.9234,2.1494
49.9243,2.2954
49.9252,2.3794
49.9259,2.254
49.9295,2.4164
49.9305,2.2911
49.9305,1.7957
49.9315,2.0749
49.9315,1.9127
49.9367,1.7252
49.9367,2.0168
49.9376,2.2444
49.9376,2.2332
49.9440,2.1991
49.9451,2.2765
49.9451,2.1644
49.9459,2.0958
49.9459,2.2969
49.9506,2.1033
49.9506,1.8117
49.9516,2.0294
49.9516,1.7759
49.9575,1.7806
49.9575,1.6692
49.9585,1.7198
49.9585,1.7881
49.9595,1.9934
49.9641,2.1303
49.9641,2.1948
49.9651,2.2546
49.9651,2.227
49.9712,2.3148
49.9712,2.2855
49.9722,2.3817
49.9722,2.479
49.9732,2.4323
49.9774,2.6191
49.9784,2.6643
49.9784,2.6487
49.9784,2.5096
49.9797,2.6643
49.9866,2.6645
49.9995,2.6641
50.0023,2.6637
50.0027,2.57
50.0027,2.3978
50.0037,2.3359
50.0037,2.2499
50.0037,2.2988
50.0050,2.3136
50.0050,2.2026
50.0057,1.7712
50.0057,2.1169
50.0057,2.5748
50.0069,2.576
50.0069,2.4528
50.0069,2.4295
50.0080,2.4173
50.0080,2.11
50.0112,1.9377
50.0123,2.3834
50.0123,2.6005
50.0131,2.4627
50.0189,2.1906
50.0189,1.8659
50.0199,1.8126
50.0199,2.2604
50.0199,2.3579
50.0252,2.4548
50.0262,2.512
50.0262,2.477
50.0262,2.3521
50.0275,2.1651
50.0322,1.9613
50.0322,2.0204
50.0332,2.0922
50.0332,2.1811
50.0396,2.074
50.0396,2.0523
50.0406,2.1289
50.0406,2.1957
50.0406,2.0324
50.0458,2.0603
50.0468,2.1537
50.0511,2.5169
50.0511,2.5386
50.0521,2.1771
50.0531,1.8717
50.0531,1.9787
50.0541,2.0553
50.0541,2.0858
50.0590,2.0404
50.0600,2.4169
50.0600,2.4578
50.0600,2.4164
50.0665,2.5523
50.0665,2.3605
50.0675,2.4989
50.0675,2.5919
50.0685,2.1918
50.0728,2.0749
50.0728,1.9502
50.0738,1.8518
50.0738,1.5606
50.0748,2.0671
50.0798,2.0686
50.0798,2.1402
50.0808,2.47
50.0808,2.593
50.0865,2.4027
50.0873,2.4546
50.0873,2.2373
50.0883,2.1936
50.0883,2.3911
50.1097,2.2261
50.1117,2.4494
50.1127,2.4513
50.1127,2.1466
50.1138,2.1209
50.1138,2.2302
50.1147,2.41
50.1147,2.4224
50.1147,2.5416
50.1157,2.5763
50.1157,2.3397
50.1157,2.3751
50.1167,2.2664
50.1167,2.1957
50.1177,2.2662
50.1177,2.1889
50.1177,2.3629
50.1187,2.2092
50.1200,2.0446
50.1200,2.2868
50.1210,2.3194
50.1210,2.3939
50.1220,2.4273
50.1273,2.4646
50.1282,2.5443
50.1282,2.3519
50.1282,2.2904
50.1346,2.3721
50.1346,2.2709
50.1356,1.9529
50.1356,2.2086
50.1368,2.2891
50.1408,2.3558
50.1408,2.3689
50.1420,2.3884
50.1420,2.4034
50.1481,2.4053
50.1481,2.3669
50.1491,2.3474
50.1491,2.1503
50.1491,1.9898
50.1550,1.8739
50.1550,1.885
50.1550,1.9187
50.1560,2.3271
50.1615,2.6405
50.1615,2.549
50.1623,2.3266
50.1623,2.5696
50.1633,2.5898
50.1679,2.5004
50.1687,2.4638
50.1687,2.2831
50.1700,2.3185
50.1700,2.5128
50.1751,2.4861
50.1752,2.3253
50.1758,2.3523
50.1762,2.2593
50.1822,2.2818
50.1822,2.467
50.1832,2.4929
50.1832,2.518
50.1832,2.5173
50.1886,2.5002
50.1886,2.3412
50.1896,2.5452
50.1896,2.5023
50.1958,2.6013
50.1958,2.5625
50.1968,2.4831
50.1968,2.4423
50.1978,2.5175
50.2056,2.3905
50.2185,2.6416
50.2212,2.6641
50.2212,2.6641
50.2212,2.6639
50.2222,2.5407
50.2222,2.3661
50.2232,2.5786
50.2232,2.555
50.2232,2.5015
50.2242,2.4351
50.2242,2.4008
50.2252,2.5876
50.2252,2.4925
50.2263,2.542
50.2266,2.6328
50.2273,2.6643
50.2273,2.6641
50.2297,2.5454
50.2297,2.3629
50.2307,2.3841
50.2307,2.3813
50.2317,2.3039
50.2359,2.2377
50.2369,2.3474
50.2372,2.3881
50.2372,2.3834
50.2428,2.5068
50.2428,2.5375
50.2440,2.653
50.2448,2.6643
50.2448,2.6635
50.2492,2.6433
50.2501,2.56
50.2511,2.3373
50.2511,2.4603
50.2553,2.4923
50.2573,2.4858
50.2573,2.4153
50.2583,2.4882
50.2583,2.332
50.2628,2.5107
50.2628,2.5756
50.2639,2.6639
50.2639,2.5608
50.2648,2.6643
50.2692,2.615
50.2701,2.3916
50.2701,2.4558
50.2711,2.3718
50.2770,2.3958
50.2785,2.5574
50.2785,2.4533
50.2793,2.3108
50.2793,2.5611
50.2836,2.4835
50.2836,2.5746
50.2846,2.5461
50.2846,2.5786
50.2905,2.0894
50.2905,2.1096
50.2915,2.2538
50.2925,2.164
50.2925,2.6001
50.2969,2.5761
50.2969,2.4625
50.2979,2.3378
50.2979,2.4394
50.3037,2.4145
50.3045,2.4843
50.3045,2.62
50.3055,2.4925
50.3058,2.4068
50.3099,2.3877
50.3158,2.3511
50.3310,2.3157
50.3321,2.1739
50.3321,2.1224
50.3330,2.4946
50.3330,2.6307
50.3342,2.6628
50.3342,2.6136
50.3353,2.6215
50.3353,2.6568
50.3353,2.6631
50.3363,2.5812
50.3363,2.3798
50.3373,2.5467
50.3373,2.555
50.3383,2.5353
50.3383,2.2968
50.3393,2.2311
50.3395,2.3718
50.3395,2.6151
50.3405,2.6611
50.3405,2.4858
50.3439,2.5259
50.3445,2.6251
50.3445,2.6241
50.3457,2.6431
50.3512,2.6361
50.3512,2.4438
50.3522,2.2591
50.3522,2.3011
50.3532,2.3817
50.3576,2.6243
50.3576,2.4121
50.3592,2.3789
50.3596,2.371
50.3596,2.4406
50.3639,2.6024
50.3649,2.6476
50.3649,2.5735
50.3659,2.4998
50.3720,2.3028
50.3720,2.341
50.3730,2.6144
50.3730,2.6645
50.3730,2.6643
50.3781,2.6114
50.3792,2.4346
50.3792,2.5913
50.3802,2.4933
50.3855,2.4635
50.3856,2.6185
50.3856,2.6646
50.3867,2.5853
50.3867,2.6294
50.3911,2.4665
50.3911,2.2801
50.3922,2.3127
50.3922,2.5855
50.3987,2.5686
50.3987,2.5086
50.3997,2.6151
50.3997,2.6157
50.4007,2.5482
50.4050,2.5722
50.4050,2.6534
50.4060,2.5977
50.4060,2.5073
50.4070,2.3866
50.4117,2.3166
50.4123,2.6643
50.4123,2.5563
50.4134,2.6425
50.4226,2.6086
50.4366,2.3928
50.4396,2.5311
50.4406,2.4738
50.4416,2.6446
50.4416,2.6129
50.4426,2.5936
50.4426,2.5377
50.4436,2.6645
50.4436,2.659
50.4446,2.6018
50.4446,2.6061
50.4457,2.3641
50.4457,2.4901
50.4466,2.5883
50.4466,2.6641
50.4466,2.6641
50.4476,2.6508
50.4476,2.624
50.4486,2.4552
50.4486,2.6461
50.4496,2.6643
50.4496,2.6108
50.4520,2.6033
50.4528,2.458
50.4528,2.5026
50.4528,2.521
50.4538,2.3913
50.4588,2.566
50.4598,2.552
50.4601,2.4755
50.4608,2.6168
50.4665,2.6641
50.4674,2.6643
50.4674,2.5066
50.4674,2.6643
50.4684,2.6556
50.4734,2.5814
50.4734,2.6354
50.4734,2.5105
50.4744,2.3888
50.4800,2.4983
50.4808,2.6176
50.4808,2.6088
50.4819,2.6571
50.4819,2.6641
50.4860,2.548
50.4871,2.4753
50.4871,2.4758
50.4881,2.5529
50.4934,2.6451
50.4942,2.5143
50.4942,2.4051
50.4952,2.5716
50.4952,2.6645
50.4994,2.6483
50.5004,2.594
50.5004,2.6271
50.5014,2.6405
50.5014,2.6639
50.5064,2.6639
50.5074,2.6643
50.5074,2.6541
50.5084,2.6285
50.5139,2.6165
50.5152,2.6641
50.5152,2.5898
50.5152,2.443
50.5162,2.4908
50.5207,2.5505
50.5207,2.6643
50.5217,2.6078
50.5217,2.6641
50.5274,2.626
50.5283,2.498
50.5374,2.6573
50.5466,2.6414
50.5496,2.546
50.5496,2.624
50.5509,2.6423
50.5509,2.5868
50.5519,2.5851
50.5519,2.4134
50.5519,2.5589
50.5529,2.5767
50.5529,2.6333
50.5539,2.6643
50.5539,2.6258
50.5549,2.6549
50.5549,2.6399
50.5559,2.5743
50.5561,2.1874
50.5561,2.2497
50.5571,2.275
50.5571,2.5711
50.5581,2.5962
50.5615,2.5525
50.5615,2.5805
50.5625,2.4447
50.5625,2.5167
50.5635,2.5805
50.5681,2.5906
50.5681,2.6446
50.5691,2.6645
50.5691,2.569
50.5758,2.507
50.5758,2.3899
50.5764,2.5681
50.5776,2.6481
50.5776,2.4057
50.5816,2.3584
50.5829,2.6073
50.5829,2.6641
50.5829,2.6217
50.5903,2.6525
50.5903,2.6641
50.5913,2.6153
50.5913,2.4456
50.5923,2.4021
50.5969,2.431
50.5969,2.3849
50.5979,2.597
50.5979,2.6339
50.5992,2.6163
50.6032,2.4858
50.6044,2.5581
50.6044,2.6645
50.6044,2.5956
50.6107,2.6005
50.6117,2.6435
50.6117,2.1914
50.6127,2.3189
50.6127,2.4085
50.6169,2.4884
50.6179,2.3358
50.6179,2.287
50.6189,2.275
50.6241,2.5756
50.6251,2.6498
50.6261,2.5546
50.6271,2.4273
50.6271,2.5034
50.6306,2.4544
50.6315,2.3266
50.6315,2.4453
50.6325,2.2774
50.6378,2.2707
50.6563,2.3123
50.6595,2.2634
50.6608,2.1619
50.6615,2.389
50.6625,2.522
50.6627,2.633
50.6627,2.6639
50.6638,2.6637
50.6638,2.6639
50.6647,2.6643
50.6647,2.6178
50.6658,2.6474
50.6658,2.6641
50.6658,2.6645
50.6668,2.6639
50.6668,2.6635
50.6680,2.6639
50.6680,2.6637
50.6690,2.6641
50.6690,2.6641
50.6690,2.5746
50.6700,2.3783
50.6719,2.4554
50.6730,2.5131
50.6730,2.5296
50.6730,2.4535
50.6743,2.4773
50.6776,2.5966
50.6786,2.6421
50.6786,2.6515
50.6798,2.5268
50.6853,2.5152
50.6853,2.6643
50.6863,2.6431
50.6863,2.5724
50.6873,2.5932
50.6914,2.5754
50.6924,2.6545
50.6940,2.5178
50.6944,2.0624
50.6954,2.2891
50.6986,2.3116
50.6986,2.6189
50.6997,2.5154
50.6997,2.4104
50.7062,2.428
50.7062,2.5634
50.7073,2.4383
50.7073,2.654
50.7085,2.6639
50.7125,2.2956
50.7138,2.278
50.7138,2.0425
50.7138,1.8801
50.7194,2.0978
50.7194,2.4629
50.7203,2.536
50.7203,2.3866
50.7213,2.6063
50.7257,2.6551
50.7267,2.5977
50.7267,2.5726
50.7277,2.3624
50.7332,2.3067
50.7332,2.2174
50.7342,2.2696
50.7342,2.0629
50.7352,2.278
50.7394,2.3738
50.7394,2.4803
50.7404,2.5683
50.7404,2.5518
50.7414,2.6127
50.7548,2.5488
50.7650,2.4059
50.7680,2.4029
50.7680,2.3554
50.7690,2.3466
50.7690,2.2999
50.7701,2.3969
50.7701,2.3539
50.7710,2.5088
50.7710,2.4299
50.7722,2.3463
50.7722,2.3663
50.7722,2.5943
50.7732,2.5655
50.7732,2.5994
50.7743,2.6543
50.7743,2.6594
50.7753,2.5917
50.7753,2.1679
50.7772,2.2435
50.7772,2.1471
50.7785,2.2728
50.7806,2.5208
50.7814,2.4353
50.7814,2.2964
50.7824,2.2713
50.7824,2.5587
50.7867,2.6521
50.7877,2.5934
50.7877,2.3772
50.7887,2.5002
50.7887,2.5775
50.7950,2.5833
50.7950,1.8254
50.7960,1.8194
50.7960,1.9827
50.8012,1.9546
50.8022,2.3078
50.8022,2.3283
50.8034,2.5274
50.8035,2.6135
50.8075,2.1666
50.8087,2.2467
50.8088,2.3547
50.8098,2.3667
50.8147,2.4211
50.8147,2.3461
50.8157,2.3821
50.8157,2.1844
50.8167,2.2176
50.8210,2.2579
50.8221,2.3059
50.8221,2.5032
50.8221,2.4473
50.8284,2.4633
50.8284,2.3478
50.8294,2.4083
50.8294,2.4228
50.8307,2.5385
50.8347,2.2006
50.8347,2.0479
50.8360,2.1138
50.8360,2.1113
50.8370,2.6643
50.8412,2.6643
50.8424,2.6354
50.8424,2.6643
50.8433,2.6223
50.8490,2.3316
50.8490,2.2893
50.8500,2.1649
50.8500,2.0202
50.8510,2.1205
50.8598,2.2988
50.8733,2.3039
50.8766,2.3802
50.8766,2.2874
50.8775,2.2463
50.8775,2.5032
50.8785,2.5617
50.8785,2.518
50.8795,2.642
50.8795,2.504
50.8805,2.5823
50.8805,2.4837
50.8805,2.2638
50.8818,2.3356
50.8818,2.3939
50.8828,2.2851
50.8828,2.1072
50.8838,2.2546
50.8838,2.2656
50.8848,2.5925
50.8848,2.6249
50.8857,2.6476
50.8862,2.6643
50.8890,2.6161
50.8900,2.5838
50.8900,2.5437
50.8900,2.275
50.8966,2.3483
50.8966,2.5355
50.8976,2.2799
50.8976,2.1014
50.8986,2.3939
50.9028,2.3989
50.9040,2.5835
50.9041,2.5476
50.9041,2.3408
50.9100,2.2894
50.9107,2.0881
50.9107,2.2707
50.9117,2.2956
50.9117,2.4623
50.9162,2.5126
50.9174,2.5694
50.9174,2.6039
50.9182,2.6157
50.9233,2.3883
50.9233,2.4503
50.9244,2.5265
50.9244,2.461
50.9254,2.4018
50.9298,2.3905
50.9298,2.2244
50.9309,2.2364
50.9309,2.1657
50.9318,2.3858
50.9361,2.2863
50.9371,2.2478
50.9371,2.3335
50.9383,2.323
50.9438,2.2195
50.9438,2.3658
50.9448,2.4674
50.9448,2.4106
50.9458,2.3924
50.9500,2.3269
50.9510,2.1357
50.9510,1.9549
50.9519,2.068
50.9574,2.2923
50.9574,2.2009
50.9584,2.1081
50.9590,2.2026
50.9594,2.4556
50.9642,2.2058
50.9805,2.1314
50.9838,2.3254
50.9847,2.4168
50.9847,2.2401
50.9857,2.2249
50.9857,2.1685
50.9857,2.0554
50.9867,2.2278
50.9867,2.2066
50.9877,2.1083
50.9877,2.0166
50.9890,1.9722
50.9890,2.1835
50.9900,2.3247
50.9900,2.5625
50.9910,2.56
50.9910,2.4445
50.9910,2.4494
50.9920,2.2626
50.9930,2.2711
50.9930,2.1934
50.9940,2.1983
50.9974,2.1764
50.9980,2.1664
50.9990,2.2703
50.9990,2.1064
51.0039,2.3078
51.0049,2.2514
51.0049,2.2086
51.0049,2.3729
51.0059,2.4194
51.0107,2.3478
51.0107,2.2101
51.0118,2.1644
51.0118,2.2786
51.0181,2.3425
51.0181,2.3804
51.0193,2.1048
51.0194,2.317
51.0194,2.2546
51.0242,2.3103
51.0250,2.4323
51.0257,2.5745
51.0257,2.5806
51.0268,2.1158
51.0309,1.9729
51.0319,2.0577
51.0319,2.0239
51.0330,1.9844
51.0385,1.9832
51.0397,2.1003
51.0397,2.2441
51.0405,2.4942
51.0405,2.4194
51.0450,2.1409
51.0460,2.1694
51.0460,2.1754
51.0460,2.4614
51.0522,2.4646
51.0522,2.4209
51.0532,2.3498
51.0532,2.3716
51.0545,2.3901
51.0590,2.2919
51.0595,2.4453
51.0595,2.4228
51.0607,1.9907
51.0657,2.3001
51.0660,2.0948
51.0660,2.278
51.0671,2.3226
51.0671,2.2767
51.0716,2.2593
51.0716,2.1483
51.0727,2.2557
51.0727,2.134
51.0737,2.1031
51.0789,1.966
51.0789,1.963
51.0799,2.3178
51.0799,2.5891
51.0861,2.395
51.0861,2.323
51.0871,2.3478
51.0871,2.2559
51.0883,2.3329
51.1063,2.1087
51.1077,2.3153
51.1116,2.3449
51.1119,2.2958
51.1119,2.2619
51.1129,2.2804
51.1129,2.3654
51.1139,2.401
51.1139,2.3258
51.1149,2.3583
51.1149,2.3009
51.1149,2.3793
51.1159,2.3774
51.1159,2.1361
51.1171,2.1953
51.1171,2.1822
51.1181,2.2448
51.1181,2.158
51.1191,2.215
51.1191,2.3956
51.1201,2.5371
51.1201,2.4708
51.1201,2.4614
51.1264,2.2924
51.1273,2.1312
51.1273,2.4145
51.1273,2.561
51.1338,2.389
51.1338,2.1546
51.1338,2.2321
51.1349,2.1387
51.1349,2.0554
51.1397,2.0367
51.1407,2.2904
51.1407,2.4794
51.1407,2.2917
51.1470,2.2574
51.1470,2.3881
51.1480,2.3922
51.1480,2.3862
51.1490,2.1404
51.1537,2.1783
51.1537,2.4027
51.1546,2.4513
51.1546,2.2439
51.1603,1.9729
51.1603,2.1766
51.1616,2.0913
51.1616,2.0969
51.1627,2.2227
51.1669,2.3914
51.1669,2.5921
51.1680,2.5407
51.1680,2.3095
51.1690,2.3601
51.1732,2.3178
51.1742,2.2272
51.1742,2.047
51.1752,2.0121
51.1809,2.0901
51.1809,2.1876
51.1819,2.4304
51.1819,2.3436
51.1831,2.3247
51.1871,2.3901
51.1882,2.4715
51.1884,2.5116
51.1884,2.3845
51.1944,2.1798
51.1944,2.3005
51.1955,2.1501
51.1955,2.0134
51.1955,2.1531
51.2040,2.3905
51.2172,2.4899
51.2202,2.5925
51.2202,2.5113
51.2212,2.3301
51.2212,2.2512
51.2224,2.1033
51.2224,1.9583
51.2235,1.882
51.2235,1.8692
51.2245,1.9375
51.2245,2.5263
51.2245,2.2068
51.2255,2.1636
51.2265,2.4869
51.2265,2.4239
51.2277,2.2568
51.2281,2.5167
51.2287,2.4391
51.2287,2.3219
51.2297,1.9896
51.2297,1.9684
51.2297,1.9041
51.2351,2.1008
51.2351,2.3538
51.2361,2.0179
51.2361,2.0579
51.2418,2.2525
51.2429,2.5353
51.2440,2.3984
51.2440,2.3748
51.2449,2.3359
51.2481,2.1888
51.2493,2.1841
51.2493,2.0725
51.2493,2.0804
51.2553,2.1603
51.2553,1.8698
51.2563,1.9855
51.2563,1.9699
51.2573,2.1181
51.2617,2.4297
51.2617,2.5445
51.2627,2.368
51.2627,2.3359
51.2637,2.2221
51.2690,2.2803
51.2690,2.2043
51.2700,2.2024
51.2700,2.1149
51.2757,2.0363
51.2767,2.0301
51.2778,2.0973
51.2779,2.2351
51.2779,2.3682
51.2822,2.4333
51.2833,2.4899
51.2833,2.4117
51.2843,2.3498
51.2887,2.0494
51.2897,2.0166
51.2897,2.0913
51.2907,2.1008
51.2907,1.9319
51.2957,1.8317
51.2967,1.9491
51.2967,1.9921
51.2977,1.9705
51.3031,1.9722
51.3031,1.8006
51.3041,2.4595
51.3041,2.4008
51.3051,2.4406
51.3129,2.5926
51.3265,2.6018
51.3297,2.4657
51.3297,2.4965
51.3306,2.6013
51.3313,2.4443
51.3315,2.4301
51.3315,2.5836
51.3325,2.5411
51.3325,2.56
51.3335,2.5812
51.3335,2.6555
51.3335,2.3093
51.3345,2.2339
51.3345,2.1996
51.3357,2.1603
51.3357,2.2399
51.3357,2.2354
51.3389,2.0768
51.3389,2.2698
51.3398,2.1338
51.3398,2.2283
51.3410,2.2489
51.3449,2.1295
51.3459,2.0658
51.3459,2.3249
51.3469,2.2949
51.3523,2.2896
51.3524,2.0432
51.3534,2.0913
51.3534,2.1933
51.3534,2.1383
51.3584,2.3099
51.3594,2.3489
51.3594,2.2234
51.3604,2.3354
51.3614,2.5362
51.3657,2.1329
51.3657,2.1929
51.3657,2.1773
51.3667,2.0483
51.3727,1.8621
51.3727,1.8887
51.3738,1.9733
51.3738,2.068
51.3750,2.3127
51.3790,2.0911
51.3803,2.0412
51.3803,2.1546
51.3813,2.3279
51.3860,2.6174
51.3860,2.3592
51.3871,2.1364
51.3871,2.0371
51.3881,2.1689
51.3923,2.0277
51.3933,2.0633
51.3933,2.0341
51.3943,1.9343
51.3995,1.6769
51.3995,2.0566
51.4006,2.3386
51.4006,2.5169
51.4015,2.0665
51.4059,1.9876
51.4059,2.1293
51.4069,2.5287
51.4069,2.5206
51.4081,2.1469
51.4132,1.8464
51.4353,1.8175
51.4383,2.1239
51.4393,1.9377
51.4393,2.0447
51.4403,2.1089
51.4403,2.1423
51.4413,2.2431
51.4413,2.3571
51.4424,2.2662
51.4433,2.0918
51.4443,2.2259
51.4443,2.371
51.4453,2.1111
51.4453,1.9285
51.4453,1.9874
51.4463,2.2973
51.4469,2.2969
51.4473,2.1334
51.4473,2.2909
51.4483,2.5696
51.4483,2.6641
51.4493,2.6517
51.4493,2.4835
51.4493,1.9216
51.4503,2.08
51.4503,2.2068
51.4534,2.1513
51.4544,1.8728
51.4544,1.7603
51.4544,1.7297
51.4554,1.9409
51.4606,1.9366
51.4616,2.2216
51.4616,2.2994
51.4616,2.509
51.4678,2.4923
51.4678,2.0719
51.4688,2.0566
51.4688,2.2759
51.4700,1.9806
51.4740,1.9487
51.4750,2.098
51.4760,1.9671
51.4760,2.0751
51.4814,2.2594
51.4814,2.0669
51.4824,1.8531
51.4824,1.9804
51.4834,1.954
51.4875,1.9499
51.4875,1.8908
51.4885,1.9487
51.4885,1.9804
51.4946,1.9043
51.4951,1.9495
51.4960,2.1248
51.4960,2.1229
51.4960,1.9217
51.5011,2.0793
51.5011,2.3421
51.5021,2.636
51.5021,2.5236
51.5031,2.2294
51.5074,2.0991
51.5084,2.0144
51.5089,1.9898
51.5096,1.8184
51.5151,2.0012
51.5151,2.1679
51.5161,2.3106
51.5161,2.2664
51.5171,2.1363
51.5215,2.1224
51.5226,2.1749
51.5226,2.5574
51.5226,2.5786
51.5298,2.2476
51.5433,2.1636
51.5463,1.9868
51.5472,1.8951
51.5472,2.1567
51.5486,2.4505
51.5486,2.1366
51.5496,2.1638
51.5496,2.4006
51.5496,2.4361
51.5506,2.1783
51.5506,2.1175
51.5516,1.9484
51.5516,2.2465
51.5526,2.1046
51.5526,2.1972
51.5537,2.0905
51.5538,1.6853
51.5538,1.954
51.5558,2.1514
51.5558,2.137
51.5558,1.7789
51.5569,2.2776
51.5629,2.3069
51.5629,2.4254
51.5639,2.2519
51.5639,2.1805
51.5651,2.0601
51.5691,1.9973
51.5704,1.8788
51.5704,1.7187
51.5704,1.8443
51.5759,1.9006
51.5774,2.2396
51.5779,1.8732
51.5789,1.7629
51.5789,1.9613
51.5826,2.2289
51.5837,2.2229
51.5837,2.1837
51.5847,2.0519
51.5898,1.9594
51.5898,1.9274
51.5907,1.9495
51.5907,2.0466
51.5917,2.1799
51.5961,2.212
51.5961,1.9727
51.5972,1.542
51.5972,1.8186
51.5984,1.8171
51.6035,1.8876
51.6036,1.9816
51.6036,2.0299
51.6047,2.0461
51.6106,1.9962
51.6106,2.2491
51.6115,2.2557
51.6115,2.1355
51.6125,1.5119
51.6168,1.7106
51.6178,1.7777
51.6178,1.7596
51.6178,1.9913
51.6231,2.0997
51.6241,2.0674
51.6256,2.0057
51.6263,2.017
51.6273,1.8023
51.6303,1.5981
51.6303,1.8029
51.6323,1.8516
51.6323,1.8919
51.6373,1.7258
51.6373,1.3667
51.6383,1.6999
51.6383,1.8666
51.6393,1.8107
51.6435,1.7549
51.6445,1.9992
51.6445,1.9602
51.6455,1.8154
51.6455,2.0813
51.6596,2.0431
51.6695,1.8951
51.6725,1.7009
51.6725,1.8295
51.6735,1.8254
51.6735,1.6266
51.6745,1.6883
51.6745,1.7618
51.6755,1.9846
51.6765,1.9628
51.6765,1.7427
51.6775,1.7813
51.6775,1.9414
51.6785,2.0149
51.6785,1.7464
51.6785,1.4616
51.6795,1.4819
51.6795,1.7629
51.6805,1.7288
51.6805,1.8901
51.6815,1.8617
51.6815,1.5372
51.6845,2.0101
51.6845,1.9487
51.6856,1.8773
51.6856,1.855
51.6866,1.7271
51.6909,1.8134
51.6909,1.7099
51.6923,1.8535
51.6929,1.7952
51.6939,1.5087
51.6980,1.7007
51.6980,2.1404
51.6989,1.9694
51.6999,1.9403
51.7051,1.7708
51.7060,1.7076
51.7060,1.7294
51.7070,1.7969
51.7070,1.8417
51.7112,1.8316
51.7121,1.7603
51.7121,1.7845
51.7131,1.7997
51.7187,1.59
51.7187,1.467
51.7197,1.5484
51.7197,1.8038
51.7207,1.8121
51.7256,2.0056
51.7256,1.8417
51.7266,2.2159
51.7266,2.0174
51.7318,1.894
51.7318,1.6889
51.7329,1.3542
51.7329,1.4145
51.7339,1.4314
51.7382,1.6358
51.7390,1.651
51.7390,1.8023
51.7400,1.8537
51.7400,1.7564
51.7450,1.8233
51.7460,1.7414
51.7460,1.6005
51.7470,1.924
51.7526,2.0277
51.7531,1.7419
51.7541,1.467
51.7541,1.4029
51.7541,1.5822
51.7641,1.7824
51.7781,1.8781
51.7811,1.8552
51.7811,1.5195
51.7821,1.7168
51.7821,1.8151
51.7831,1.7794
51.7831,1.7719
51.7831,1.8512
51.7841,1.7494
51.7841,1.635
51.7851,1.6362
51.7851,1.7573
51.7861,1.7067
51.7861,1.458
51.7861,1.4219
51.7871,1.5784
51.7871,1.5859
51.7881,1.6377
51.7881,1.8263
51.7891,1.8634
51.7891,1.6774
51.7891,1.5529
51.7930,1.8044
51.7940,1.7515
51.7940,1.2709
51.7940,1.2959
51.7993,1.3255
51.8003,1.5285
51.8003,1.6994
51.8013,1.7937
51.8013,1.7687
51.8064,1.5957
51.8073,1.7318
51.8073,1.7731
51.8073,1.8604
51.8134,1.5527
51.8134,1.323
51.8144,1.3581
51.8144,1.5923
51.8154,1.6772
51.8196,1.437
51.8205,1.4172
51.8205,1.5758
51.8216,1.5972
51.8265,1.7549
51.8265,1.8143
51.8275,1.8833
51.8275,1.7363
51.8285,1.6534
51.8327,1.5722
51.8337,1.3307
51.8337,1.4704
51.8347,1.5167
51.8347,1.5492
51.8397,1.798
51.8407,1.7086
51.8407,1.593
51.8417,1.6049
51.8472,1.614
51.8482,1.7149
51.8484,1.5435
51.8484,1.5272
51.8494,1.6056
51.8533,1.5827
51.8544,1.6394
51.8544,1.584
51.8555,1.8782
51.8606,1.63
51.8606,1.6277
51.8616,1.6431
51.8616,1.7969
51.8626,1.7481
51.8667,1.7554
51.8715,1.7513
51.8859,1.5308
51.8889,1.7104
51.8899,1.4157
51.8899,1.2522
51.8909,1.2842
51.8909,1.5285
51.8919,1.5576
51.8929,1.4271
51.8939,1.3937
51.8939,1.6737
51.8949,1.7078
51.8949,1.5282
51.8959,1.5951
51.8959,1.6559
51.8959,1.7959
51.8969,1.4427
51.8969,1.2642
51.8981,1.2846
51.8981,1.3418
51.8991,1.354
51.8991,1.4721
51.9008,1.7935
51.9019,1.5608
51.9019,1.5968
51.9019,1.4622
51.9079,1.3446
51.9089,1.3242
51.9089,1.7725
51.9102,1.6459
51.9107,1.5664
51.9139,1.2464
51.9146,1.2426
51.9146,1.2966
51.9158,1.5233
51.9208,1.6819
51.9219,1.6787
51.9221,1.4725
51.9221,1.371
51.9231,1.4395
51.9278,1.4552
51.9286,1.5029
51.9286,1.3772
51.9286,1.3519
51.9297,1.5595
51.9348,1.6774
51.9348,1.5803
51.9348,1.2807
51.9358,1.4196
51.9422,1.792
51.9429,1.7927
51.9429,1.3264
51.9429,1.3722
51.9439,1.4339
51.9481,1.4108
51.9492,1.5949
51.9492,1.5389
51.9492,1.4794
51.9554,1.2441
51.9554,1.2668
51.9564,1.5364
51.9564,1.5524
51.9577,1.2569
51.9617,1.2792
51.9617,1.3872
51.9627,1.5839
51.9627,1.5942
51.9690,1.6789
51.9693,1.9043
51.9693,1.7069
51.9703,2.023
51.9703,2.0359
51.9749,1.9617
51.9749,1.8167
51.9779,1.9735
51.9945,1.9975
51.9977,1.8929
51.9977,1.9081
51.9988,1.9019
51.9988,1.7839
51.9998,1.5659
51.9998,1.6279
52.0008,1.7869
52.0008,1.7526
52.0018,1.5096
52.0018,1.3883
52.0027,1.5269
52.0027,1.3114
52.0027,1.2516
52.0039,1.2563
52.0039,1.3677
52.0039,1.4464
52.0050,1.5657
52.0050,1.4929
52.0060,1.5953
52.0093,1.6606
52.0103,1.4594
52.0103,1.2792
52.0113,1.3302
52.0162,1.2696
52.0162,1.2432
52.0173,1.245
52.0173,1.3305
52.0182,1.7206
52.0223,1.5604
52.0232,1.3695
52.0232,1.7277
52.0242,1.3707
52.0242,1.4119
52.0296,1.4354
52.0303,1.4168
52.0303,1.296
52.0313,1.3969
52.0368,1.5389
52.0381,1.321
52.0381,1.3009
52.0389,1.3962
52.0389,1.5239
52.0433,1.47
52.0433,1.573
52.0443,1.5884
52.0443,1.3499
52.0519,1.4697
52.0530,1.452
52.0531,1.3864
52.0531,1.4085
52.0539,1.6769
52.0588,1.2559
52.0594,1.3853
52.0594,1.4727
52.0603,1.6052
52.0656,1.5897
52.0656,1.6576
52.0666,1.6911
52.0666,1.5955
52.0679,1.4884
52.0719,1.3002
52.0719,1.249
52.0729,1.284
52.0739,1.2777
52.0749,1.3716
52.0788,1.4459
52.0798,1.4415
52.0808,1.5627
52.0818,1.3752
52.0898,1.3343
52.1062,1.3892
52.1102,1.2882
52.1102,1.2627
52.1114,1.3309
52.1114,1.3229
52.1124,1.4147
52.1124,1.4635
52.1134,1.3069
52.1134,1.314
52.1134,1.3337
52.1144,1.3268
52.1144,1.41
52.1154,1.6587
52.1154,1.711
52.1164,1.8081
52.1164,1.7635
52.1175,1.2522
52.1175,1.2563
52.1185,1.2465
52.1185,1.2486
52.1195,1.4035
52.1195,1.2572
52.1195,1.261
52.1205,1.3039
52.1205,1.4631
52.1215,1.6842
52.1215,1.7727
52.1260,1.7447
52.1267,1.5265
52.1277,1.5479
52.1277,1.5475
52.1331,1.4442
52.1337,1.4445
52.1347,1.3545
52.1347,1.2561
52.1358,1.3718
52.1389,1.2479
52.1399,1.2432
52.1399,1.2649
52.1408,1.6424
52.1466,1.63
52.1471,1.7125
52.1471,1.5077
52.1471,1.6184
52.1483,1.5919
52.1523,1.7459
52.1533,1.3425
52.1533,1.2917
52.1543,1.255
52.1599,1.2516
52.1604,1.2996
52.1604,1.5655
52.1614,1.8184
52.1624,1.7856
52.1656,1.5612
52.1666,1.2456
52.1666,1.258
52.1676,1.2518
52.1676,1.2734
52.1737,1.2683
52.1737,1.3154
52.1737,1.2893
52.1747,1.2537
52.1799,1.2488
52.1809,1.2717
52.1809,1.3403
52.1819,1.6949
52.1819,1.6176
52.1870,1.408
52.1870,1.3667
52.1870,1.9157
52.1880,1.8629
52.1952,1.6701
52.2121,1.2484
52.2166,1.2501
52.2171,1.2578
52.2181,1.2655
52.2181,1.5591
52.2191,1.5239
52.2191,1.4417
52.2201,1.5353
52.2201,1.6409
52.2211,1.578
52.2211,1.3643
52.2211,1.3855
52.2221,1.4535
52.2221,1.4024
52.2221,1.383
52.2231,1.3932
52.2231,1.5349
52.2241,1.7245
52.2241,1.8889
52.2241,2.1619
52.2251,1.7577
52.2261,1.3407
52.2281,1.2482
52.2281,1.2919
52.2291,1.4027
52.2291,1.4811
52.2291,1.5417
52.2340,1.6664
52.2350,1.6525
52.2350,1.4719
52.2350,1.2591
52.2410,1.2632
52.2410,1.2492
52.2421,1.2567
52.2421,1.4031
52.2421,1.4997
52.2471,1.5344
52.2481,1.5561
52.2481,1.2797
52.2481,1.251
52.2543,1.2419
52.2552,1.2437
52.2552,1.3328
52.2562,1.3292
52.2562,1.248
52.2611,1.2467
52.2611,1.332
52.2611,1.2824
52.2621,1.3017
52.2621,1.4005
52.2681,1.3133
52.2681,1.3047
52.2681,1.3671
52.2691,1.2572
52.2753,1.243
52.2753,1.2439
52.2753,1.2524
52.2763,1.473
52.2763,1.383
52.2817,1.4134
52.2817,1.2724
52.2817,1.3035
52.2827,1.5417
52.2889,1.6566
52.2889,1.3789
52.2889,1.248
52.2889,1.248
52.2899,1.2486
52.2952,1.269
52.2952,1.2719
52.2952,1.2747
52.2962,1.2587
52.3033,1.2636
52.3062,1.4843
52.3132,1.47
52.3155,1.5565
52.3155,1.3714
52.3162,1.2957
52.3171,1.2621
52.3173,1.3064
52.3182,1.2539
52.3182,1.2452
52.3182,1.2559
52.3192,1.314
52.3192,1.4496
52.3202,1.3759
52.3228,1.2942
52.3228,1.332
52.3238,1.7984
52.3238,1.3956
52.3248,1.2887
52.3291,1.242
52.3291,1.2415
52.3302,1.2415
52.3302,1.2422
52.3362,1.2509
52.3362,1.3988
52.3371,1.2488
52.3371,1.2509
52.3381,1.3814
52.3422,1.2904
52.3437,1.2552
52.3442,1.2473
52.3452,1.2557
52.3496,1.249
52.3496,1.3358
52.3506,1.5032
52.3506,1.2445
52.3516,1.2443
52.3557,1.2419
52.3566,1.2434
52.3566,1.2533
52.3576,1.3133
52.3576,1.5074
52.3626,1.7194
52.3636,1.2666
52.3636,1.2675
52.3636,1.357
52.3696,1.3596
52.3706,1.2488
52.3706,1.2465
52.3716,1.2424
52.3716,1.2413
52.3760,1.243
52.3770,1.2595
52.3770,1.2514
52.3780,1.2711
52.3829,1.3161
52.3829,1.3305
52.3840,1.2645
52.3840,1.2779
52.3850,1.3851
52.3892,1.5726
52.3903,1.3446
52.3903,1.2527
52.3913,1.251
52.3967,1.2512
52.3967,1.2587
52.3976,1.3362
52.3976,1.3767
52.3986,1.267
52.4028,1.2533
52.4028,1.3545
52.4039,1.4832
52.4039,1.6759
52.4048,1.5895
52.4098,1.2435
52.4098,1.2428
52.4118,1.2432
52.4297,1.3067
52.4377,1.3317
52.4377,1.2565
52.4387,1.2642
52.4387,1.2668
52.4397,1.5385
52.4397,1.462
52.4407,1.3354
52.4407,1.2441
52.4407,1.2462
52.4417,1.2447
52.4417,1.249
52.4428,1.2799
52.4437,1.411
52.4437,1.3905
52.4437,1.2477
52.4450,1.2419
52.4450,1.251
52.4460,1.2636
52.4460,1.2771
52.4470,1.2524
52.4470,1.2443
52.4470,1.2989
52.4480,1.2989
52.4502,1.297
52.4502,1.2439
52.4513,1.2488
52.4513,1.2445
52.4523,1.2452
52.4565,1.2426
52.4575,1.2439
52.4575,1.2835
52.4586,1.5117
52.4642,1.6172
52.4642,1.426
52.4652,1.3043
52.4652,1.246
52.4664,1.2449
52.4705,1.2464
52.4718,1.2482
52.4718,1.2424
52.4728,1.2439
52.4777,1.2584
52.4777,1.2662
52.4788,1.3245
52.4788,1.3472
52.4788,1.3219
52.4835,1.5109
52.4846,1.3461
52.4846,1.2595
52.4846,1.2844
52.4909,1.2859
52.4909,1.2816
52.4921,1.3435
52.4921,1.2745
52.4929,1.2415
52.4971,1.2458
52.4971,1.2449
52.4981,1.2972
52.4981,1.4316
52.4991,1.3167
52.5044,1.2559
52.5044,1.2524
52.5044,1.2537
52.5055,1.2644
52.5111,1.2867
52.5111,1.2539
52.5121,1.2792
52.5121,1.4228
52.5131,1.4661
52.5175,1.2912
52.5186,1.3287
52.5186,1.2537
52.5195,1.3032
52.5369,1.6015
52.5388,1.3675
52.5418,1.2509
52.5418,1.3388
52.5428,1.3902
52.5428,1.2469
52.5440,1.2462
52.5440,1.2488
52.5448,1.2494
52.5448,1.2537
52.5460,1.3598
52.5460,1.2934
52.5460,1.3131
52.5471,1.2632
52.5471,1.3019
52.5481,1.2467
52.5481,1.2769
52.5491,1.2482
52.5491,1.2471
52.5510,1.2589
52.5510,1.2525
52.5522,1.2454
52.5522,1.243
52.5588,1.2419
52.5588,1.2443
52.5602,1.2904
52.5608,1.2799
52.5608,1.33
52.5644,1.558
52.5652,1.4295
52.5652,1.6322
52.5663,1.3405
52.5718,1.2713
52.5718,1.2447
52.5728,1.2544
52.5728,1.2477
52.5741,1.2439
52.5780,1.3784
52.5790,1.2623
52.5790,1.2499
52.5790,1.4078
52.5850,1.2454
52.5857,1.2524
52.5857,1.3448
52.5867,1.3452
52.5867,1.2432
52.5912,1.2428
52.5912,1.2484
52.5922,1.2439
52.5922,1.2497
52.5932,1.2441
52.5985,1.2535
52.5985,1.26
52.5985,1.2683
52.5995,1.246
52.6055,1.2437
52.6055,1.2529
52.6065,1.2617
52.6065,1.2529
52.6078,1.2552
52.6115,1.2595
52.6125,1.2419
52.6125,1.2413
52.6138,1.2413
52.6191,1.245
52.6191,1.2529
52.6202,1.3178
52.6202,1.4314
52.6212,1.4189
52.6255,1.4174
52.6259,1.2779
52.6259,1.2447
52.6269,1.242
52.6326,1.242
52.6528,1.2422
52.6558,1.242
52.6571,1.2417
52.6571,1.2422
52.6578,1.2419
52.6578,1.2415
52.6588,1.2471
52.6600,1.2872
52.6608,1.471
52.6618,1.4357
52.6618,1.245
52.6618,1.2424
52.6628,1.2426
52.6628,1.2441
52.6638,1.3215
52.6638,1.4069
52.6648,1.5111
52.6648,1.5614
52.6658,1.5567
52.6660,1.4048
52.6660,1.6011
52.6670,1.858
52.6670,1.9011
52.6680,1.8387
52.6680,1.8081
52.6680,1.7864
52.6690,2.0477
52.6721,1.9343
52.6731,1.6262
52.6731,1.4978
52.6742,1.2475
52.6793,1.2773
52.6793,1.3397
52.6803,1.2428
52.6803,1.2647
52.6813,1.3485
52.6855,1.3594
52.6865,1.4207
52.6865,1.7603
52.6875,1.6088
52.6875,1.2919
52.6928,1.2413
52.6928,1.2413
52.6940,1.2417
52.6940,1.2413
52.6995,1.2419
52.6995,1.2428
52.7006,1.2449
52.7006,1.2915
52.7015,1.428
52.7060,1.3437
52.7070,1.2647
52.7070,1.2475
52.7080,1.2809
52.7132,1.2615
52.7132,1.2432
52.7142,1.245
52.7142,1.2441
52.7152,1.2419
52.7194,1.2415
52.7205,1.2415
52.7205,1.3515
52.7205,1.6371
52.7266,1.603
52.7266,1.5394
52.7276,1.5884
52.7276,1.3637
52.7288,1.252
52.7327,1.2432
52.7337,1.243
52.7337,1.2415
52.7347,1.2415
52.7350,1.2437
52.7527,1.2653
52.7554,1.3628
52.7595,1.2859
52.7595,1.2619
52.7604,1.4093
52.7604,1.4556
52.7614,1.536
52.7614,1.3234
52.7624,1.2702
52.7627,1.245
52.7627,1.2419
52.7637,1.5522
52.7637,1.5698
52.7647,1.3371
52.7647,1.2456
52.7657,1.2524
52.7657,1.2567
52.7667,1.3107
52.7667,1.2752
52.7677,1.2567
52.7677,1.252
52.7686,1.2435
52.7735,1.242
52.7741,1.2696
52.7741,1.3913
52.7756,1.2559
52.7761,1.2467
52.7816,1.2745
52.7816,1.2495
52.7826,1.353
52.7826,1.2469
52.7836,1.2432
52.7880,1.26
52.7890,1.2467
52.7890,1.2415
52.7900,1.2413
52.7957,1.2415
52.7966,1.251
52.7966,1.2694
52.7976,1.2722
52.7976,1.254
52.8015,1.2625
52.8028,1.2574
52.8028,1.2424
52.8038,1.2623
52.8083,1.2739
52.8093,1.4271
52.8093,1.2844
52.8104,1.2492
52.8104,1.2514
52.8157,1.2419
52.8157,1.2419
52.8168,1.2482
52.8168,1.2525
52.8227,1.2443
52.8227,1.2488
52.8237,1.345
52.8237,1.4348
52.8249,1.4897
52.8291,1.3695
52.8291,1.2435
52.8304,1.2413
52.8304,1.242
52.8315,1.2432
52.8357,1.2912
52.8357,1.2835
52.8367,1.3889
52.8367,1.3919
52.8427,1.3335
52.8437,1.3444
52.8437,1.4809
52.8437,1.4145
52.8497,1.2555
52.8634,1.2441
52.8654,1.2525
52.8664,1.2495
52.8664,1.2426
52.8673,1.2439
52.8673,1.2529
52.8683,1.2426
52.8683,1.2462
52.8696,1.3697
52.8696,1.5972
52.8696,1.573
52.8706,1.7378
52.8706,1.3727
52.8716,1.2439
52.8726,1.3352
52.8726,1.3257
52.8726,1.3227
52.8736,1.2974
52.8759,1.2825
52.8759,1.2499
52.8769,1.243
52.8769,1.2432
52.8779,1.3202
52.8832,1.5754
52.8832,1.504
52.8832,1.4149
52.8842,1.2495
52.8906,1.2921
52.8916,1.2709
52.8916,1.3058
52.8930,1.3285
52.8937,1.2867
52.8964,1.2615
52.8972,1.2514
52.8972,1.2533
52.8982,1.3264
52.9032,1.3707
52.9032,1.2895
52.9043,1.3339
52.9043,1.4039
52.9053,1.4271
52.9097,1.284
52.9097,1.2555
52.9107,1.248
52.9107,1.2426
52.9166,1.249
52.9166,1.3958
52.9176,1.4545
52.9176,1.4065
52.9189,1.36
52.9229,1.3634
52.9241,1.5312
52.9241,1.5533
52.9252,1.5239
52.9252,1.4125
52.9304,1.354
52.9304,1.344
52.9314,1.2479
52.9314,1.2432
52.9373,1.251
52.9383,1.2495
52.9389,1.2524
52.9389,1.2895
52.9399,1.3275
52.9435,1.2745
52.9445,1.447
52.9445,1.6075
52.9445,1.582
52.9507,1.245
52.9517,1.2443
52.9520,1.2426
52.9520,1.2422
52.9570,1.2419
52.9712,1.242
52.9742,1.2413
52.9756,1.2424
52.9765,1.2495
52.9765,1.2552
52.9775,1.2593
52.9775,1.2747
52.9775,1.2822
52.9785,1.3834
52.9785,1.3107
52.9795,1.2522
52.9795,1.2426
52.9805,1.2415
52.9805,1.2413
52.9816,1.2415
52.9817,1.2432
52.9827,1.2452
52.9827,1.2848
52.9838,1.278
52.9848,1.3219
52.9848,1.3435
52.9858,1.2814
52.9858,1.2555
52.9908,1.2884
52.9922,1.246
52.9928,1.242
52.9934,1.2419
52.9978,1.2415
52.9978,1.242
52.9988,1.2475
52.9988,1.2638
52.9998,1.3032
53.0040,1.2912
53.0051,1.3227
53.0051,1.3114
53.0051,1.3071
53.0110,1.2617
53.0110,1.2443
53.0121,1.2445
53.0121,1.2507
53.0130,1.2471
53.0174,1.2516
53.0174,1.2516
53.0184,1.2567
53.0184,1.2632
53.0194,1.2644
53.0236,1.2679
53.0246,1.3305
53.0253,1.3667
53.0256,1.3127
53.0313,1.381
53.0313,1.2537
53.0325,1.2464
53.0325,1.2426
53.0336,1.2413
53.0381,1.2435
53.0381,1.2447
53.0391,1.2591
53.0391,1.2687
53.0446,1.27
53.0455,1.2689
53.0455,1.3034
53.0465,1.2458
53.0465,1.2449
53.0511,1.2424
53.0522,1.2435
53.0522,1.2719
53.0522,1.314
53.0581,1.2692
53.0587,1.3577
53.0591,1.3116
53.0591,1.2649
53.0604,1.2465
53.0676,1.2443
53.0808,1.2619
53.0840,1.2525
53.0845,1.3137
53.0850,1.3326
53.0850,1.2424
53.0860,1.2413
53.0860,1.2411
53.0870,1.2415
53.0870,1.2424
53.0880,1.245
53.0880,1.2475
53.0890,1.2518
53.0892,1.2604
53.0892,1.3212
53.0902,1.3472
53.0902,1.2735
53.0912,1.2443
53.0912,1.242
53.0924,1.252
53.0924,1.2458
53.0932,1.242
53.0943,1.242
53.0982,1.2419
53.0992,1.354
53.0992,1.3699
53.0992,1.3056
53.1052,1.281
53.1057,1.2452
53.1057,1.2458
53.1067,1.2424
53.1067,1.2424
53.1119,1.2627
53.1119,1.2516
53.1129,1.2447
53.1129,1.2469
53.1139,1.2432
53.1181,1.2449
53.1191,1.2516
53.1191,1.2657
53.1201,1.2985
53.1259,1.3536
53.1259,1.3977
53.1269,1.309
53.1269,1.2651
53.1279,1.2507
53.1320,1.2443
53.1331,1.2435
53.1331,1.2435
53.1331,1.243
53.1391,1.252
53.1401,1.2732
53.1401,1.3506
53.1401,1.2707
53.1414,1.2486
53.1455,1.2522
53.1467,1.2488
53.1467,1.2477
53.1478,1.2494
53.1522,1.2512
53.1522,1.2495
53.1532,1.245
53.1532,1.2454
53.1542,1.245
53.1586,1.2539
53.1597,1.2859
53.1597,1.2694
53.1607,1.2477
53.1607,1.2608
53.1659,1.3142
53.1659,1.2627
53.1659,1.2529
53.1669,1.2784
53.1783,1.2704
53.1926,1.248
53.1956,1.242
53.1956,1.2435
53.1966,1.2462
53.1966,1.2522
53.1966,1.2437
53.1976,1.2503
53.1976,1.2542
53.1988,1.248
53.1988,1.2552
53.1998,1.2546
53.1998,1.2831
53.1998,1.2467
53.2008,1.2467
53.2008,1.2539
53.2018,1.261
53.2018,1.2492
53.2028,1.2452
53.2028,1.2522
53.2038,1.2655
53.2038,1.2792
53.2048,1.276
53.2062,1.2825
53.2062,1.2977
53.2072,1.2486
53.2072,1.2467
53.2082,1.2452
53.2134,1.2432
53.2134,1.2458
53.2144,1.2636
53.2144,1.2681
53.2200,1.2597
53.2212,1.297
53.2223,1.2694
53.2223,1.2874
53.2223,1.3529
53.2267,1.345
53.2276,1.371
53.2276,1.2514
53.2286,1.2473
53.2334,1.2486
53.2343,1.2501
53.2343,1.2445
53.2353,1.2488
53.2353,1.2674
53.2402,1.251
53.2402,1.3062
53.2412,1.3405
53.2422,1.4142
53.2472,1.3965
53.2472,1.3757
53.2482,1.3097
53.2482,1.2595
53.2495,1.2445
53.2535,1.243
53.2535,1.2447
53.2548,1.2447
53.2548,1.251
53.2558,1.2535
53.2603,1.27
53.2610,1.2831
53.2610,1.3185
53.2620,1.3184
53.2678,1.2734
53.2678,1.2713
53.2688,1.2539
53.2688,1.2469
53.2698,1.2439
53.2735,1.2447
53.2746,1.2471
53.2746,1.2452
53.2755,1.2467
53.2811,1.2494
53.2823,1.2486
53.2994,1.2732
53.3009,1.365
53.3034,1.4054
53.3034,1.36
53.3046,1.3035
53.3046,1.266
53.3056,1.2486
53.3056,1.2488
53.3066,1.246
53.3066,1.2432
53.3066,1.246
53.3076,1.254
53.3086,1.2717
53.3088,1.2681
53.3096,1.2788
53.3096,1.2767
53.3109,1.2681
53.3109,1.2557
53.3109,1.2514
53.3119,1.2469
53.3119,1.2479
53.3141,1.2507
53.3151,1.2756
53.3151,1.2456
53.3163,1.2477
53.3163,1.2531
53.3217,1.2462
53.3217,1.2887
53.3227,1.3007
53.3227,1.3577
53.3284,1.3324
53.3291,1.2687
53.3291,1.2599
53.3301,1.2516
53.3301,1.2555
53.3345,1.245
53.3356,1.2426
53.3356,1.2514
53.3366,1.249
53.3417,1.2469
53.3428,1.2471
53.3428,1.2495
53.3428,1.2765
53.3439,1.2653
53.3481,1.2872
53.3481,1.2728
53.3491,1.2527
53.3491,1.2435
53.3503,1.242
53.3543,1.2417
53.3555,1.2422
53.3555,1.2449
53.3566,1.243
53.3620,1.2492
53.3620,1.2475
53.3630,1.2471
53.3630,1.2644
53.3640,1.2514
53.3689,1.2642
53.3689,1.2634
53.3699,1.255
53.3699,1.2599
53.3754,1.3095
53.3760,1.3544
53.3760,1.4123
53.3770,1.5432
53.3770,1.6328
53.3821,1.7549
53.3831,1.912
53.3831,1.747
53.3831,1.8271
53.3890,1.9285
53.3898,1.7933
53.3898,1.699
53.3918,1.6305
53.4090,1.5132
53.4120,1.3954
53.4120,1.3182
53.4133,1.2934
53.4133,1.2994
53.4144,1.392
53.4144,1.4753
53.4144,1.4299
53.4154,1.3615
53.4154,1.3409
53.4163,1.3328
53.4163,1.2816
53.4173,1.2739
53.4173,1.2465
53.4183,1.2546
53.4185,1.2539
53.4185,1.2497
53.4196,1.251
53.4196,1.2642
53.4227,1.3045
53.4236,1.3022
53.4238,1.3412
53.4238,1.3493
53.4248,1.3709
53.4293,1.2683
53.4300,1.257
53.4300,1.2514
53.4310,1.2462
53.4362,1.2557
53.4362,1.263
53.4372,1.249
53.4435,1.255
53.4445,1.2711
53.4445,1.3206
53.4455,1.2987
53.4455,1.2773
53.4465,1.3079
53.4465,1.2959
53.4495,1.275
53.4495,1.2619
53.4505,1.2462
53.4505,1.2443
53.4569,1.2475
53.4579,1.2465
53.4579,1.2509
53.4589,1.2734
53.4589,1.3112
53.4630,1.3022
53.4639,1.3067
53.4639,1.2968
53.4649,1.2664
53.4702,1.2664
53.4712,1.2501
53.4712,1.2475
53.4721,1.2473
53.4721,1.2482
53.4766,1.2464
53.4777,1.2471
53.4777,1.2554
53.4777,1.2885
53.4836,1.3712
53.4836,1.3849
53.4847,1.3487
53.4847,1.2833
53.4856,1.3212
53.4899,1.3581
53.4907,1.2582
53.4907,1.2554
53.4919,1.249
53.4919,1.2477
53.4967,1.2499
53.4967,1.252
53.4977,1.2675
53.4977,1.2752
53.5091,1.3454
53.5181,1.3022
53.5210,1.3155
53.5210,1.3281
53.5220,1.2771
53.5220,1.2518
53.5229,1.2484
53.5229,1.2469
53.5239,1.251
53.5239,1.2587
53.5249,1.2563
53.5254,1.3015
53.5260,1.363
53.5260,1.3619
53.5270,1.2855
53.5270,1.2792
53.5280,1.3084
53.5280,1.2872
53.5324,1.2679
53.5324,1.2546
53.5332,1.2488
53.5332,1.2467
53.5342,1.2533
53.5386,1.2602
53.5393,1.279
53.5393,1.2855
53.5404,1.29
53.5404,1.2852
53.5455,1.2994
53.5463,1.3062
53.5463,1.2977
53.5473,1.3289
53.5526,1.2743
53.5536,1.2602
53.5536,1.2471
53.5536,1.2469
53.5546,1.2535
53.5589,1.2692
53.5596,1.2777
53.5596,1.3015
53.5606,1.3334
53.5658,1.3082
53.5668,1.3247
53.5668,1.3146
53.5678,1.3184
53.5678,1.299
53.5726,1.2707
53.5736,1.2582
53.5736,1.2525
53.5746,1.2572
53.5797,1.2827
53.5797,1.3352
53.5807,1.3375
53.5807,1.3532
53.5818,1.3545
53.5860,1.3084
53.5860,1.3122
53.5870,1.4035
53.5870,1.3815
53.5880,1.3669
53.5929,1.2985
53.5929,1.2754
53.5939,1.2548
53.5939,1.258
53.6001,1.2857
53.6001,1.3935
53.6011,1.4573
53.6011,1.4282
53.6021,1.3902
53.6064,1.3979
53.6071,1.3692
53.6081,1.4262
53.6081,1.318
53.6145,1.3425
53.6294,1.3305
53.6329,1.297
53.6333,1.2784
53.6333,1.3178
53.6344,1.3815
53.6344,1.4415
53.6354,1.4684
53.6354,1.4494
53.6354,1.4802
53.6364,1.5287
53.6364,1.4046
53.6374,1.3219
53.6374,1.2899
53.6384,1.2975
53.6384,1.2692
53.6393,1.2612
53.6393,1.2719
53.6393,1.2803
53.6404,1.368
53.6404,1.3679
53.6414,1.3845
53.6414,1.3892
53.6473,1.4033
53.6473,1.4022
53.6483,1.3416
53.6483,1.3512
53.6493,1.2574
53.6533,1.2542
53.6543,1.2495
53.6543,1.2454
53.6553,1.2666
53.6604,1.2563
53.6612,1.2644
53.6612,1.2974
53.6623,1.3705
53.6623,1.4273
53.6674,1.4254
53.6674,1.374
53.6684,1.2857
53.6684,1.27
53.6741,1.255
53.6741,1.2555
53.6755,1.2612
53.6761,1.2726
53.6771,1.2672
53.6800,1.2619
53.6800,1.2645
53.6811,1.2647
53.6821,1.2855
53.6821,1.3163
53.6870,1.3105
53.6870,1.2912
53.6881,1.2869
53.6881,1.249
53.6941,1.2492
53.6951,1.2479
53.6951,1.2497
53.6960,1.248
53.6960,1.2617
53.7004,1.3007
53.7010,1.2722
53.7010,1.3088
53.7020,1.3146
53.7071,1.3358
53.7080,1.2844
53.7090,1.2505
53.7090,1.2565
53.7100,1.2653
53.7140,1.2473
53.7140,1.2482
53.7150,1.2507
53.7150,1.2518
53.7210,1.2525
53.7210,1.276
53.7221,1.2777
53.7221,1.3529
53.7230,1.3487
53.7290,1.2891
53.7429,1.2595
53.7459,1.2557
53.7461,1.2544
53.7469,1.2456
53.7469,1.2512
53.7479,1.2606
53.7479,1.2509
53.7489,1.2529
53.7489,1.2527
53.7489,1.2653
53.7499,1.3086
53.7499,1.4142
53.7509,1.3416
53.7509,1.2863
53.7519,1.2752
53.7519,1.2509
53.7519,1.252
53.7544,1.2546
53.7544,1.2625
53.7555,1.2467
53.7555,1.245
53.7565,1.2512
53.7610,1.266
53.7620,1.2891
53.7620,1.2749
53.7620,1.3304
53.7680,1.393
53.7680,1.39
53.7691,1.3244
53.7691,1.2685
53.7701,1.2507
53.7742,1.2449
53.7753,1.2439
53.7753,1.2473
53.7762,1.2554
53.7765,1.2662
53.7812,1.2959
53.7812,1.3545
53.7823,1.3349
53.7823,1.3249
53.7883,1.306
53.7893,1.2829
53.7893,1.2557
53.7903,1.2507
53.7903,1.248
53.7946,1.2522
53.7954,1.2559
53.7954,1.2531
53.7965,1.2527
53.8019,1.2567
53.8019,1.2867
53.8029,1.3416
53.8029,1.3739
53.8039,1.3482
53.8086,1.3266
53.8086,1.2953
53.8096,1.2653
53.8096,1.2516
53.8148,1.2467
53.8148,1.2518
53.8159,1.249
53.8159,1.2484
53.8169,1.2681
53.8213,1.2797
53.8222,1.3622
53.8232,1.3829
53.8232,1.3965
53.8242,1.4224
53.8281,1.3673
53.8291,1.2559
53.8291,1.2715
53.8291,1.2711
53.8351,1.2602
53.8491,1.2484
53.8531,1.2522
53.8534,1.2497
53.8541,1.2533
53.8541,1.342
53.8551,1.3904
53.8551,1.368
53.8551,1.3169
53.8561,1.3052
53.8561,1.2942
53.8571,1.273
53.8571,1.2608
53.8581,1.2653
53.8581,1.2585
53.8592,1.2614
53.8600,1.252
53.8600,1.2645
53.8623,1.2844
53.8631,1.3176
53.8631,1.3169
53.8641,1.3725
53.8641,1.3463
53.8689,1.3052
53.8689,1.2662
53.8699,1.2593
53.8699,1.2477
53.8709,1.2505
53.8758,1.2509
53.8758,1.2495
53.8770,1.2587
53.8770,1.2694
53.8830,1.3214
53.8830,1.386
53.8841,1.3352
53.8841,1.3405
53.8850,1.3099
53.8891,1.2788
53.8902,1.2739
53.8902,1.2672
53.8912,1.2475
53.8965,1.2512
53.8965,1.2555
53.8975,1.2647
53.8975,1.2681
53.8985,1.2638
53.9026,1.2715
53.9035,1.3628
53.9035,1.3652
53.9045,1.3602
53.9097,1.3557
53.9097,1.2852
53.9107,1.2953
53.9107,1.2681
53.9117,1.2775
53.9159,1.2863
53.9169,1.2893
53.9169,1.276
53.9169,1.2775
53.9179,1.2711
53.9229,1.339
53.9229,1.3392
53.9239,1.3424
53.9239,1.3746
53.9302,1.2869
53.9313,1.315
53.9313,1.2687
53.9322,1.2615
53.9322,1.2507
53.9365,1.2593
53.9375,1.276
53.9375,1.3176
53.9385,1.3489
53.9444,1.3844
53.9575,1.4648
53.9605,1.4809
53.9615,1.4393
53.9615,1.4545
53.9625,1.3675
53.9625,1.3251
53.9635,1.2617
53.9635,1.2467
53.9645,1.276
53.9645,1.3274
53.9655,1.3523
53.9655,1.3725
53.9665,1.4099
53.9665,1.4582
53.9665,1.5272
53.9675,1.3812
53.9675,1.3782
53.9685,1.3199
53.9704,1.2945
53.9704,1.2497
53.9715,1.2469
53.9716,1.2484
53.9776,1.258
53.9784,1.2599
53.9784,1.294
53.9794,1.3392
53.9794,1.3898
53.9842,1.4219
53.9852,1.3529
53.9852,1.2855
53.9865,1.321
53.9909,1.3064
53.9925,1.2739
53.9935,1.2617
53.9935,1.2606
53.9945,1.2563
53.9974,1.2662
53.9981,1.2831
53.9981,1.3099
53.9991,1.2867
54.0046,1.3116
54.0046,1.33
54.0056,1.431
54.0056,1.4089
54.0066,1.3309
54.0107,1.2749
54.0107,1.2657
54.0118,1.254
54.0118,1.2525
54.0128,1.2572
54.0170,1.2925
54.0181,1.2857
54.0181,1.2861
54.0190,1.3324
54.0257,1.3566
54.0257,1.3765
54.0264,1.4241
54.0264,1.4991
54.0274,1.4444
54.0312,1.302
54.0312,1.263
54.0323,1.2492
54.0323,1.249
54.0385,1.2569
54.0385,1.2762
54.0395,1.3457
54.0395,1.3245
54.0405,1.338
54.0458,1.3919
54.0595,1.4093
54.0630,1.3592
54.0636,1.3965
54.0640,1.3864
54.0651,1.2531
54.0660,1.258
54.0665,1.2576
54.0670,1.2602
54.0670,1.2557
54.0680,1.261
54.0680,1.26
54.0690,1.2696
54.0690,1.2711
54.0690,1.2769
54.0700,1.3637
54.0700,1.2555
54.0712,1.3114
54.0722,1.2852
54.0722,1.2572
54.0732,1.2495
54.0732,1.2462
54.0742,1.2439
54.0784,1.2559
54.0794,1.3279
54.0794,1.3853
54.0794,1.4554
54.0855,1.5194
54.0855,1.5222
54.0866,1.5389
54.0866,1.6857
54.0876,1.6804
54.0918,1.6482
54.0932,1.5979
54.0938,1.6244
54.0938,1.5812
54.0992,1.6754
54.0992,1.7164
54.1002,1.7689
54.1002,1.8194
54.1012,1.7627
54.1054,1.7039
54.1054,1.6152
54.1065,1.506
54.1065,1.461
54.1075,1.3795
54.1127,1.357
54.1127,1.2694
54.1137,1.2782
54.1139,1.2805
54.1201,1.2837
54.1201,1.2876
54.1209,1.2917
54.1209,1.335
54.1219,1.4755
54.1258,1.4393
54.1266,1.383
54.1266,1.3622
54.1276,1.3705
54.1327,1.3356
54.1327,1.2979
54.1338,1.3079
54.1338,1.2835
54.1348,1.2614
54.1395,1.2649
54.1405,1.2773
54.1405,1.4757
54.1405,1.4616
54.1467,1.4817
54.1467,1.5096
54.1478,1.5359
54.1478,1.4329
54.1490,1.3065
54.1529,1.263
54.1529,1.2608
54.1539,1.2668
54.1539,1.2882
54.1552,1.3129
54.1597,1.3478
54.1604,1.4629
54.1604,1.4633
54.1613,1.4577
54.1699,1.4059
54.1844,1.4044
54.1876,1.3994
54.1876,1.2842
54.1886,1.2606
54.1886,1.2554
54.1896,1.2597
54.1896,1.2899
54.1906,1.3332
54.1906,1.3701
54.1916,1.3221
54.1916,1.3767
54.1928,1.3926
54.1936,1.4097
54.1936,1.525
54.1946,1.4648
54.1946,1.3712
54.1946,1.2876
54.1956,1.3864
54.1956,1.3275
54.1966,1.2979
54.1966,1.3304
54.1976,1.3082
54.1999,1.4123
54.1999,1.4886
54.2009,1.5075
54.2009,1.3853
54.2020,1.4515
54.2072,1.426
54.2072,1.3688
54.2072,1.4569
54.2085,1.4074
54.2142,1.4091
54.2152,1.3502
54.2152,1.2574
54.2152,1.287
54.2162,1.332
54.2205,1.4181
54.2216,1.4655
54.2216,1.4937
54.2226,1.4624
54.2279,1.4627
54.2279,1.4324
54.2289,1.4331
54.2289,1.4177
54.2299,1.338
54.2357,1.3116
54.2357,1.2919
54.2367,1.354
54.2367,1.4494
54.2428,1.4824
54.2428,1.5096
54.2438,1.6178
54.2438,1.6002
54.2448,1.5825
54.2488,1.4018
54.2488,1.282
54.2498,1.2544
54.2498,1.2527
54.2508,1.2728
54.2562,1.2569
54.2562,1.2587
54.2562,1.4157
54.2572,1.5077
54.2630,1.5503
54.2638,1.5319
54.2638,1.5685
54.2650,1.6157
54.2650,1.5509
54.2701,1.4622
54.2703,1.4624
54.2703,1.3761
54.2714,1.3881
54.2770,1.2899
54.2919,1.3178
54.2929,1.3478
54.2949,1.401
54.2959,1.5169
54.2959,1.6469
54.2969,1.6504
54.2969,1.5096
54.2969,1.4699
54.2981,1.4543
54.2981,1.4384
54.2991,1.3709
54.2991,1.3684
54.3001,1.422
54.3001,1.4444
54.3011,1.4391
54.3011,1.4882
54.3011,1.5799
54.3021,1.5844
54.3031,1.5779
54.3041,1.6334
54.3043,1.6592
54.3051,1.6221
54.3107,1.5739
54.3114,1.4665
54.3114,1.4344
54.3124,1.4183
54.3124,1.4616
54.3172,1.5366
54.3182,1.5085
54.3182,1.4963
54.3182,1.6752
54.3237,1.8351
54.3245,1.8503
54.3255,1.7897
54.3255,1.6546
54.3267,1.6079
54.3305,1.5921
54.3317,1.5649
54.3317,1.3984
54.3325,1.44
54.3377,1.4429
54.3378,1.4335
54.3388,1.4772
54.3388,1.4794
54.3398,1.5709
54.3442,1.7102
54.3442,1.6155
54.3452,1.6814
54.3452,1.6831
54.3462,1.5072
54.3508,1.5077
54.3516,1.4723
54.3516,1.435
54.3525,1.321
54.3585,1.3662
54.3593,1.4429
54.3593,1.4999
54.3593,1.5925
54.3605,1.609
54.3645,1.617
54.3655,1.6296
54.3655,1.5381
54.3668,1.4419
54.3721,1.408
54.3721,1.3384
54.3732,1.2972
54.3732,1.3221
54.3732,1.3403
54.3776,1.381
54.3776,1.3626
54.3787,1.4138
54.3787,1.5229
54.3855,1.5578
54.3994,1.5749
54.4026,1.609
54.4036,1.543
54.4036,1.3446
54.4036,1.3249
54.4046,1.3279
54.4052,1.2857
54.4058,1.288
54.4058,1.263
54.4066,1.2915
54.4066,1.3349
54.4076,1.4522
54.4076,1.5338
54.4086,1.5287
54.4086,1.5737
54.4096,1.5287
54.4096,1.4695
54.4106,1.4037
54.4116,1.2756
54.4116,1.3208
54.4126,1.3682
54.4126,1.3889
54.4188,1.3062
54.4197,1.375
54.4197,1.4012
54.4207,1.4534
54.4207,1.5317
54.4249,1.5332
54.4262,1.5479
54.4269,1.4909
54.4269,1.4245
54.4322,1.3613
54.4322,1.2878
54.4333,1.2863
54.4333,1.3079
54.4343,1.3679
54.4387,1.4245
54.4387,1.4189
54.4397,1.4813
54.4397,1.5246
54.4409,1.5419
54.4449,1.3812
54.4502,1.3088
54.4502,1.3677
54.4511,1.4033
54.4521,1.3379
54.4531,1.386
54.4531,1.2996
54.4541,1.3047
54.4541,1.2795
54.4583,1.3943
54.4595,1.4535
54.4603,1.5004
54.4603,1.579
54.4662,1.6215
54.4662,1.5949
54.4672,1.5218
54.4672,1.4498
54.4682,1.3984
54.4724,1.3092
54.4732,1.3547
54.4732,1.3037
54.4743,1.317
54.4794,1.3274
54.4802,1.3626
54.4802,1.4577
54.4813,1.5027
54.4813,1.488
54.4855,1.4888
54.4865,1.5057
54.4865,1.506
54.4875,1.4706
54.4875,1.3793
54.5084,1.3525
54.5104,1.324
54.5114,1.3266
54.5114,1.3889
54.5124,1.4331
54.5131,1.4415
54.5134,1.4984
54.5134,1.5779
54.5144,1.5882
54.5144,1.5782
54.5144,1.5289
54.5154,1.44
54.5154,1.4871
54.5164,1.4429
54.5164,1.3386
54.5174,1.332
54.5174,1.3317
54.5184,1.3298
54.5198,1.3714
54.5206,1.5509
54.5206,1.6135
54.5216,1.584
54.5261,1.591
54.5271,1.5687
54.5271,1.5392
54.5281,1.5276
54.5281,1.4022
54.5330,1.3739
54.5330,1.3455
54.5340,1.2854
54.5340,1.3949
54.5350,1.4564
54.5400,1.4462
54.5400,1.4635
54.5410,1.5715
54.5418,1.62
54.5474,1.6236
54.5481,1.5032
54.5481,1.4462
54.5492,1.453
54.5492,1.4147
54.5536,1.3212
54.5544,1.2749
54.5544,1.2846
54.5554,1.3731
54.5609,1.4442
54.5616,1.5246
54.5626,1.5825
54.5626,1.6152
54.5626,1.5595
54.5668,1.5452
54.5679,1.4832
54.5679,1.5246
54.5688,1.4888
54.5741,1.4511
54.5741,1.3082
54.5751,1.344
54.5751,1.4037
54.5761,1.3675
54.5808,1.4018
54.5808,1.51
54.5818,1.5974
54.5818,1.5938
54.5828,1.5647
54.5878,1.4865
54.5878,1.4753
54.5888,1.4084
54.5888,1.3557
54.5949,1.3697
54.5959,1.3435
54.5959,1.3694
54.5959,1.4509
54.5969,1.4504
54.6042,1.5038
54.6159,1.5764
54.6189,1.6523
54.6189,1.6776
54.6199,1.5668
54.6199,1.4074
54.6199,1.3667
54.6209,1.3849
54.6209,1.444
54.6218,1.4055
54.6218,1.429
54.6228,1.4888
54.6228,1.5038
54.6238,1.4759
54.6238,1.6118
54.6238,1.7142
54.6248,1.7545
54.6259,1.5724
54.6282,1.4637
54.6282,1.428
54.6293,1.4925
54.6293,1.4672
54.6303,1.4549
54.6352,1.504
54.6352,1.44
54.6362,1.4766
54.6362,1.5087
54.6429,1.5025
54.6439,1.5694
54.6443,1.6169
54.6449,1.6324
54.6449,1.617
54.6488,1.6013
54.6488,1.5529
54.6498,1.4804
54.6508,1.3101
54.6558,1.3165
54.6558,1.3358
54.6568,1.3827
54.6568,1.4592
54.6578,1.5115
54.6618,1.4841
54.6628,1.5177
54.6638,1.5524
54.6638,1.5321
54.6697,1.6144
54.6697,1.5535
54.6708,1.5338
54.6708,1.4577
54.6717,1.3709
54.6761,1.378
54.6770,1.3454
54.6770,1.4265
54.6780,1.4789
54.6780,1.527
54.6830,1.5572
54.6830,1.5722
54.6840,1.575
54.6840,1.5559
54.6900,1.504
54.6900,1.4655
54.6910,1.4091
54.6920,1.3244
54.6920,1.3191
54.6965,1.3979
54.6975,1.464
54.6975,1.5074
54.6975,1.6189
54.7037,1.6746
54.7037,1.5735
54.7047,1.5711
54.7047,1.5694
54.7057,1.5319
54.7157,1.4434
54.7247,1.399
54.7277,1.3904
54.7277,1.3525
54.7287,1.2749
54.7289,1.3515
54.7289,1.381
54.7300,1.4453
54.7300,1.495
54.7310,1.5291
54.7310,1.5983
54.7320,1.587
54.7320,1.5117
54.7330,1.5345
54.7330,1.5398
54.7330,1.413
54.7342,1.42
54.7342,1.4084
54.7372,1.3915
54.7383,1.3909
54.7392,1.4226
54.7405,1.5269
54.7414,1.509
54.7438,1.5338
54.7448,1.5368
54.7448,1.5122
54.7458,1.4965
54.7513,1.4307
54.7523,1.3785
54.7523,1.2968
54.7533,1.2713
54.7533,1.2964
54.7572,1.3013
54.7584,1.3474
54.7584,1.3275
54.7592,1.4714
54.7646,1.5524
54.7646,1.7762
54.7657,1.7221
54.7657,1.7723
54.7667,1.8996
54.7709,1.8409
54.7709,1.8004
54.7720,1.8205
54.7720,1.8554
54.7730,1.8265
54.7772,1.9039
54.7782,1.9591
54.7782,2.017
54.7794,1.9994
54.7854,2.0057
54.7854,1.9808
54.7864,1.8012
54.7864,1.7087
54.7874,1.6534
54.7915,1.6307
54.7925,1.4654
54.7925,1.4472
54.7935,1.4532
54.7987,1.4693
54.7997,1.4916
54.8001,1.5632
54.8007,1.6628
54.8007,1.6429
54.8052,1.5904
54.8062,1.4657
54.8062,1.4603
54.8072,1.4511
54.8121,1.5327
54.8129,1.4699
54.8129,1.431
54.8139,1.5717
54.8139,1.5304
54.8211,1.477
54.8324,1.516
54.8354,1.5932
54.8363,1.6109
54.8363,1.6223
54.8373,1.6052
54.8373,1.6144
54.8383,1.6082
54.8383,1.5402
54.8393,1.453
54.8393,1.428
54.8403,1.4217
54.8406,1.431
54.8406,1.4316
54.8419,1.4597
54.8426,1.4985
54.8426,1.6384
54.8436,1.6159
54.8461,1.6034
54.8461,1.632
54.8471,1.5989
54.8471,1.5921
54.8481,1.5209
54.8528,1.4543
54.8538,1.398
54.8538,1.3887
54.8538,1.4211
54.8595,1.4715
54.8605,1.5417
54.8605,1.6056
54.8605,1.7256
54.8617,1.6279
54.8660,1.6452
54.8660,1.561
54.8670,1.6176
54.8670,1.5381
54.8682,1.4789
54.8732,1.4875
54.8732,1.4678
54.8743,1.4322
54.8744,1.4509
54.8803,1.4622
54.8803,1.5184
54.8814,1.6139
54.8814,1.6272
54.8823,1.6433
54.8869,1.7074
54.8879,1.6624
54.8879,1.602
54.8879,1.498
54.8941,1.4809
54.8941,1.4725
54.8952,1.4172
54.8952,1.57
54.8963,1.5683
54.9003,1.5171
54.9013,1.6013
54.9013,1.6711
54.9013,1.6746
54.9074,1.6613
54.9074,1.6274
54.9086,1.5685
54.9086,1.5441
54.9094,1.4845
54.9140,1.432
54.9140,1.4022
54.9150,1.3307
54.9150,1.525
54.9160,1.4995
54.9202,1.6499
54.9212,1.6367
54.9212,1.6005
54.9222,1.6637
54.9278,1.6881
54.9421,1.6482
54.9448,1.5261
54.9458,1.4766
54.9458,1.4627
54.9458,1.4307
54.9468,1.5092
54.9478,1.5171
54.9478,1.5314
54.9488,1.5938
54.9490,1.6028
54.9500,1.6836
54.9510,1.7267
54.9510,1.6864
54.9520,1.6936
54.9530,1.642
54.9540,1.5777
54.9548,1.5368
54.9553,1.4468
54.9563,1.5021
54.9563,1.5209
54.9573,1.5833
54.9585,1.5205
54.9626,1.6107
54.9636,1.7123
54.9636,1.7926
54.9646,1.6919
54.9658,1.6454
54.9699,1.515
54.9699,1.5413
54.9710,1.5914
54.9710,1.5299
54.9764,1.5317
54.9774,1.6
54.9774,1.6388
54.9784,1.6557
54.9784,1.7631
54.9832,1.8001
54.9842,1.7896
54.9842,1.7612
54.9842,1.7513
54.9907,1.6928
54.9907,1.6289
54.9918,1.5884
54.9918,1.5972
54.9929,1.5994
54.9968,1.5987
54.9979,1.708
54.9981,1.7603
54.9981,1.7716
55.0036,1.8188
55.0036,1.8031
55.0046,1.7871
55.0046,1.7678
55.0056,1.7024
55.0102,1.6313
55.0102,1.6549
55.0112,1.6392
55.0112,1.6275
55.0122,1.5951
55.0175,1.548
55.0175,1.5561
55.0185,1.6004
55.0185,1.8751
55.0250,1.8501
55.0257,1.7783
55.0257,1.8518
55.0257,1.8246
55.0269,1.7605
55.0308,1.6017
55.0320,1.5741
55.0365,1.5636
55.0502,1.5794
55.0532,1.5717
55.0532,1.5674
55.0542,1.6373
55.0542,1.6778
55.0552,1.726
55.0552,1.7057
55.0562,1.7507
55.0562,1.7322
55.0572,1.6283
55.0574,1.6334
55.0585,1.5644
55.0585,1.5375
55.0594,1.5102
55.0594,1.536
55.0604,1.5893
55.0604,1.7042
55.0614,1.6784
55.0614,1.5563
55.0624,1.6347
55.0647,1.5908
55.0647,1.5679
55.0657,1.5141
55.0657,1.3632
55.0718,1.5199
55.0718,1.5565
55.0728,1.4489
55.0728,1.3952
55.0738,1.4213
55.0783,1.516
55.0783,1.581
55.0793,1.7177
55.0793,1.6892
55.0856,1.6864
55.0856,1.7136
55.0866,1.5649
55.0866,1.5653
55.0879,1.5702
55.0917,1.5473
55.0927,1.4376
55.0927,1.4262
55.0941,1.4147
55.0992,1.4159
55.0994,1.5381
55.0994,1.5512
55.1005,1.6245
55.1005,1.6304
55.1049,1.6223
55.1059,1.5773
55.1059,1.5019
55.1059,1.5985
55.1069,1.6118
55.1121,1.5659
55.1121,1.4511
55.1133,1.3013
55.1133,1.3352
55.1195,1.4078
55.1195,1.599
55.1206,1.6517
55.1206,1.6846
55.1218,1.66
55.1258,1.6907
55.1268,1.6617
55.1270,1.5893
55.1270,1.495
55.1331,1.4595
55.1331,1.4865
55.1341,1.4775
55.1341,1.504
55.1351,1.5895
55.1392,1.6341
55.1403,1.6761
55.1495,1.6986
55.1584,1.6403
55.1616,1.6215
55.1616,1.6154
55.1627,1.5681
55.1627,1.5439
55.1637,1.4779
55.1637,1.4267
55.1647,1.3165
55.1647,1.4537
55.1647,1.567
55.1657,1.6283
55.1657,1.6064
55.1668,1.6681
55.1668,1.6681
55.1668,1.7162
55.1679,1.7009
55.1679,1.6356
55.1689,1.572
55.1689,1.552
55.1699,1.5194
55.1737,1.4976
55.1747,1.4646
55.1751,1.5477
55.1757,1.5535
55.1809,1.5636
55.1809,1.6304
55.1819,1.6696
55.1819,1.6448
55.1829,1.6652
55.1866,1.6107
55.1876,1.6208
55.1876,1.579
55.1886,1.5681
55.1938,1.5374
55.1948,1.5104
55.1951,1.479
55.1951,1.5353
55.1961,1.4895
55.2006,1.531
55.2006,1.6397
55.2016,1.7095
55.2016,1.6774
55.2026,1.6161
55.2069,1.5505
55.2078,1.4877
55.2088,1.4725
55.2088,1.434
55.2151,1.576
55.2151,1.6394
55.2161,1.5852
55.2161,1.6032
55.2171,1.5833
55.2213,1.6551
55.2223,1.6951
55.2223,1.69
55.2223,1.7172
55.2286,1.6823
55.2286,1.5889
55.2296,1.465
55.2296,1.5822
55.2309,1.5934
55.2347,1.5109
55.2347,1.5143
55.2357,1.552
55.2357,1.5351
55.2420,1.6133
55.2423,1.7174
55.2423,1.7374
55.2433,1.7569
