33.7562,1.957
33.7562,1.929
33.7562,1.898
33.7570,1.869
33.7570,1.804
33.7570,1.746
33.7570,1.741
33.7570,1.722
33.7570,1.692
33.7570,1.717
33.7580,1.779
33.7580,1.807
33.7580,1.868
33.7580,1.949
33.7580,1.958
33.7580,1.952
33.7590,1.902
33.7590,1.88
33.7590,1.854
33.7590,1.821
33.7590,1.754
33.7590,1.714
33.7590,1.707
33.7600,1.723
33.7600,1.748
33.7600,1.774
33.7600,1.801
33.7600,1.851
33.7610,1.966
33.7610,1.965
33.7610,1.935
33.7619,1.906
33.7619,1.868
33.7619,1.82
33.7619,1.752
33.7619,1.744
33.7619,1.717
33.7619,1.705
33.7619,1.724
33.7630,1.782
33.7630,1.811
33.7630,1.865
33.7630,1.921
33.7630,1.977
33.7630,1.97
33.7630,1.905
33.7640,1.882
33.7640,1.85
33.7640,1.831
33.7640,1.771
33.7640,1.725
33.7640,1.7
33.7649,1.715
33.7649,1.738
33.7649,1.775
33.7649,1.796
33.7649,1.907
33.7649,1.95
33.7649,1.946
33.7659,1.912
33.7659,1.882
33.7659,1.859
33.7659,1.798
33.7659,1.736
33.7659,1.716
33.7659,1.714
33.7659,1.69
33.7669,1.73
33.7669,1.749
33.7669,1.791
33.7669,1.847
33.7669,1.898
33.7669,1.942
33.7669,1.927
33.7679,1.9
33.7679,1.866
33.7679,1.829
33.7679,1.805
33.7679,1.751
33.7679,1.668
33.7679,1.674
33.7689,1.687
33.7689,1.715
33.7689,1.741
33.7689,1.76
33.7689,1.881
33.7689,1.937
33.7689,1.925
33.7689,1.884
33.7699,1.855
33.7699,1.831
33.7699,1.778
33.7699,1.733
33.7699,1.704
33.7699,1.677
33.7709,1.659
33.7709,1.704
33.7709,1.735
33.7709,1.773
33.7709,1.82
33.7709,1.879
33.7709,1.953
33.7709,1.943
33.7719,1.907
33.7719,1.883
33.7719,1.851
33.7719,1.827
33.7729,1.762
33.7729,1.701
33.7729,1.688
33.7729,1.697
33.7729,1.725
33.7729,1.764
33.7729,1.797
33.7729,1.913
33.7739,1.973
33.7739,1.979
33.7739,1.958
33.7739,1.937
33.7739,1.894
33.7749,1.823
33.7749,1.776
33.7749,1.751
33.7749,1.72
33.7749,1.699
33.7749,1.702
33.7749,1.768
33.7749,1.799
33.7759,1.843
33.7759,1.912
33.7759,2.015
33.7759,2.0
33.7759,1.93
33.7759,1.901
33.7759,1.867
33.7769,1.835
33.7769,1.784
33.7769,1.749
33.7769,1.703
33.7769,1.715
33.7779,1.74
33.7779,1.779
33.7779,1.811
33.7779,1.846
33.7779,1.973
33.7779,2.002
33.7779,1.961
33.7779,1.931
33.7789,1.897
33.7789,1.871
33.7789,1.803
33.7789,1.754
33.7799,1.732
33.7799,1.718
33.7799,1.719
33.7799,1.742
33.7809,1.805
33.7809,1.85
33.7809,1.908
33.7809,1.94
33.7809,1.993
33.7819,1.955
33.7819,1.889
33.7819,1.845
33.7819,1.806
33.7829,1.776
33.7829,1.724
33.7829,1.708
33.7829,1.659
33.7829,1.671
33.7839,1.668
33.7839,1.67
33.7839,1.63
33.7839,1.629
33.7839,1.639
33.7839,1.568
33.7839,1.501
33.7849,1.448
33.7849,1.378
33.7849,1.336
33.7849,1.258
33.7849,1.297
33.7849,1.391
33.7849,1.628
33.7859,1.781
33.7859,1.872
33.7859,1.873
33.7859,2.061
33.7859,2.247
33.7859,2.358
33.7859,2.439
33.7869,2.524
33.7869,2.532
33.7869,2.485
33.7869,2.423
33.7869,2.372
33.7869,2.334
33.7869,2.27
33.7879,2.273
33.7879,2.29
33.7879,2.296
33.7879,2.29
33.7879,2.312
33.7879,2.357
33.7879,2.282
33.7889,2.233
33.7889,2.147
33.7889,2.07
33.7889,2.008
33.7889,1.927
33.7889,1.835
33.7889,1.782
33.7899,1.768
33.7899,1.777
33.7899,1.798
33.7899,1.859
33.7899,1.918
33.7899,1.996
33.7899,2.011
33.7909,1.968
33.7909,1.952
33.7909,1.864
33.7909,1.822
33.7909,1.79
33.7909,1.734
33.7909,1.714
33.7919,1.678
33.7919,1.684
33.7919,1.721
33.7919,1.75
33.7919,1.789
33.7919,1.846
33.7919,1.938
33.7929,1.924
33.7929,1.888
33.7929,1.871
33.7929,1.831
33.7929,1.792
33.7929,1.71
33.7939,1.685
33.7948,1.646
33.7958,1.647
33.8008,1.678
33.8008,1.704
33.8068,1.763
33.8078,1.822
33.8108,1.911
33.8108,1.922
33.8108,1.901
33.8118,1.881
33.8118,1.811
33.8118,1.779
33.8118,1.743
33.8118,1.679
33.8118,1.643
33.8118,1.642
33.8128,1.653
33.8128,1.685
33.8128,1.716
33.8128,1.757
33.8128,1.823
33.8128,1.895
33.8128,1.906
33.8138,1.879
33.8138,1.847
33.8138,1.82
33.8138,1.774
33.8138,1.694
33.8138,1.665
33.8138,1.635
33.8148,1.626
33.8148,1.649
33.8148,1.685
33.8148,1.751
33.8148,1.81
33.8148,1.892
33.8148,1.926
33.8158,1.902
33.8158,1.869
33.8158,1.809
33.8158,1.778
33.8158,1.74
33.8158,1.693
33.8158,1.678
33.8168,1.646
33.8168,1.635
33.8168,1.672
33.8168,1.715
33.8168,1.742
33.8168,1.797
33.8168,1.875
33.8168,1.911
33.8178,1.866
33.8178,1.836
33.8178,1.801
33.8178,1.767
33.8178,1.726
33.8178,1.669
33.8178,1.638
33.8188,1.609
33.8188,1.632
33.8188,1.671
33.8188,1.741
33.8188,1.798
33.8188,1.862
33.8188,1.93
33.8198,1.905
33.8198,1.858
33.8198,1.802
33.8198,1.758
33.8198,1.717
33.8198,1.655
33.8208,1.652
33.8208,1.641
33.8208,1.602
33.8208,1.647
33.8208,1.667
33.8208,1.706
33.8208,1.758
33.8218,1.831
33.8218,1.874
33.8218,1.831
33.8218,1.786
33.8218,1.749
33.8218,1.73
33.8218,1.683
33.8228,1.601
33.8228,1.584
33.8228,1.558
33.8228,1.575
33.8228,1.601
33.8228,1.633
33.8228,1.713
33.8238,1.768
33.8238,1.822
33.8238,1.83
33.8238,1.782
33.8238,1.718
33.8238,1.673
33.8238,1.643
33.8248,1.574
33.8248,1.527
33.8248,1.522
33.8248,1.527
33.8248,1.545
33.8248,1.583
33.8248,1.621
33.8258,1.674
33.8258,1.74
33.8258,1.794
33.8258,1.758
33.8258,1.736
33.8258,1.697
33.8258,1.663
33.8268,1.646
33.8268,1.533
33.8268,1.528
33.8268,1.526
33.8278,1.524
33.8278,1.546
33.8278,1.586
33.8287,1.677
33.8287,1.751
33.8287,1.801
33.8287,1.802
33.8287,1.779
33.8287,1.758
33.8287,1.685
33.8287,1.672
33.8298,1.625
33.8298,1.592
33.8298,1.57
33.8298,1.564
33.8298,1.61
33.8298,1.649
33.8298,1.679
33.8308,1.737
33.8308,1.814
33.8308,1.871
33.8308,1.842
33.8308,1.82
33.8308,1.788
33.8308,1.76
33.8318,1.73
33.8318,1.678
33.8318,1.63
33.8318,1.608
33.8318,1.64
33.8318,1.669
33.8318,1.702
33.8318,1.779
33.8328,1.861
33.8328,1.936
33.8328,1.923
33.8328,1.903
33.8328,1.876
33.8328,1.82
33.8328,1.783
33.8338,1.737
33.8338,1.7
33.8338,1.686
33.8338,1.673
33.8338,1.708
33.8338,1.742
33.8348,1.767
33.8348,1.822
33.8348,1.889
33.8348,1.959
33.8348,1.926
33.8348,1.903
33.8348,1.87
33.8358,1.828
33.8358,1.799
33.8358,1.707
33.8358,1.681
33.8358,1.672
33.8368,1.675
33.8368,1.701
33.8368,1.739
33.8368,1.812
33.8368,1.874
33.8368,1.947
33.8378,1.96
33.8378,1.914
33.8378,1.861
33.8378,1.828
33.8378,1.809
33.8378,1.746
33.8378,1.696
33.8388,1.678
33.8388,1.673
33.8388,1.706
33.8388,1.738
33.8388,1.76
33.8388,1.812
33.8388,1.865
33.8397,1.956
33.8397,1.924
33.8397,1.901
33.8397,1.863
33.8397,1.828
33.8397,1.796
33.8397,1.698
33.8408,1.68
33.8408,1.651
33.8408,1.661
33.8408,1.685
33.8408,1.713
33.8408,1.796
33.8408,1.856
33.8417,1.935
33.8417,1.95
33.8417,1.911
33.8417,1.858
33.8417,1.82
33.8417,1.787
33.8417,1.746
33.8427,1.706
33.8427,1.674
33.8427,1.66
33.8427,1.682
33.8427,1.713
33.8427,1.747
33.8427,1.792
33.8437,1.854
33.8437,1.948
33.8437,1.911
33.8447,1.885
33.8447,1.848
33.8447,1.822
33.8447,1.778
33.8447,1.693
33.8447,1.661
33.8457,1.638
33.8457,1.644
33.8457,1.668
33.8457,1.707
33.8457,1.796
33.8457,1.855
33.8457,1.936
33.8467,1.936
33.8467,1.922
33.8467,1.863
33.8467,1.829
33.8467,1.791
33.8467,1.761
33.8467,1.713
33.8477,1.685
33.8477,1.653
33.8477,1.681
33.8477,1.718
33.8477,1.785
33.8477,1.947
33.8477,1.952
33.8487,1.921
34.4383,1.894
34.4393,1.867
34.4393,1.831
34.4393,1.744
34.4403,1.716
34.4403,1.681
34.4403,1.654
34.4413,1.66
34.4413,1.722
34.4413,1.748
34.4413,1.774
34.4413,1.85
34.4413,1.935
34.4413,1.943
34.4423,1.903
34.4423,1.862
34.4423,1.833
34.4423,1.808
34.4423,1.759
34.4423,1.722
34.4423,1.67
34.4433,1.658
34.4433,1.688
34.4433,1.722
34.4433,1.753
34.4433,1.781
34.4443,1.936
34.4443,1.943
34.4443,1.928
34.4443,1.904
34.4453,1.872
34.4453,1.84
34.4453,1.783
34.4463,1.716
34.4463,1.688
34.4463,1.661
34.4463,1.666
34.4463,1.724
34.4473,1.754
34.4473,1.79
34.4473,1.843
34.4483,1.92
34.4483,1.95
34.4483,1.906
34.4483,1.878
34.4493,1.833
34.4493,1.811
34.4493,1.781
34.4503,1.721
34.4503,1.669
34.4503,1.66
34.4513,1.683
34.4513,1.719
34.4513,1.752
34.4513,1.789
34.4523,1.93
34.4523,1.951
34.4523,1.939
34.4523,1.909
34.4533,1.891
34.4533,1.821
34.4533,1.788
34.4533,1.727
34.4533,1.696
34.4533,1.664
34.4543,1.665
34.4543,1.712
34.4553,1.745
34.4563,1.786
34.4613,1.843
34.4672,1.92
34.4682,1.946
34.4702,1.913
34.4702,1.874
34.4712,1.843
34.4712,1.814
34.4712,1.785
34.4712,1.728
34.4712,1.669
34.4722,1.658
34.4722,1.678
34.4722,1.71
34.4722,1.74
34.4722,1.779
34.4722,1.901
34.4722,1.954
34.4732,1.941
34.4732,1.915
34.4732,1.871
34.4732,1.837
34.4732,1.757
34.4732,1.705
34.4732,1.69
34.4732,1.691
34.4742,1.634
34.4742,1.694
34.4742,1.724
34.4742,1.759
34.4742,1.814
34.4742,1.89
34.4752,1.935
34.4752,1.9
34.4752,1.869
34.4752,1.842
34.4752,1.798
34.4752,1.778
34.4752,1.706
34.4762,1.673
34.4762,1.634
34.4762,1.653
34.4762,1.686
34.4762,1.72
34.4772,1.758
34.4772,1.802
34.4772,1.922
34.4782,1.931
34.4782,1.891
34.4782,1.854
34.4782,1.815
34.4782,1.774
34.4782,1.666
34.4792,1.641
34.4792,1.631
34.4792,1.587
34.4792,1.606
34.4792,1.645
34.4792,1.716
34.4802,1.773
34.4802,1.851
34.4802,1.918
34.4802,1.908
34.4802,1.876
34.4802,1.822
34.4802,1.8
34.4812,1.769
34.4812,1.695
34.4812,1.676
34.4812,1.675
34.4812,1.661
34.4812,1.694
34.4812,1.732
34.4822,1.767
34.4822,1.814
34.4822,1.88
34.4822,1.942
34.4822,1.908
34.4822,1.879
34.4822,1.845
34.4832,1.815
34.4832,1.798
34.4832,1.697
34.4832,1.668
34.4832,1.655
34.4832,1.672
34.4832,1.697
34.4842,1.732
34.4842,1.823
34.4842,1.883
34.4842,1.932
34.4842,1.944
34.4842,1.917
34.4852,1.888
34.4852,1.817
34.4852,1.791
34.4852,1.742
34.4852,1.696
34.4852,1.673
34.4852,1.658
34.4862,1.7
34.4862,1.737
34.4862,1.768
34.4862,1.816
34.4862,1.89
34.4862,1.954
34.4862,1.919
34.4872,1.889
34.4872,1.856
34.4872,1.82
34.4872,1.805
34.4872,1.758
34.4872,1.678
34.4872,1.659
34.4882,1.676
34.4882,1.711
34.4882,1.753
34.4882,1.769
34.4882,1.89
34.4882,1.966
34.4882,1.949
34.4882,1.925
34.4892,1.902
34.4892,1.858
34.4892,1.8
34.4892,1.753
34.4892,1.707
34.4892,1.663
34.4892,1.645
34.4902,1.639
34.4902,1.689
34.4902,1.72
34.4902,1.763
34.4902,1.827
34.4902,1.875
34.4902,1.809
34.4912,1.742
34.4912,1.647
34.4912,1.568
34.4912,1.502
34.4912,1.43
34.4912,1.297
34.4912,1.266
34.4912,1.252
34.4922,1.265
34.4922,1.276
34.4922,1.292
34.4922,1.642
34.4922,1.967
34.4922,2.104
34.4922,2.083
34.4932,2.034
34.4932,2.014
34.4932,2.156
34.4932,2.226
34.4942,2.363
34.4942,2.412
34.4942,2.408
34.4942,2.404
34.4952,2.435
34.4952,2.447
34.4952,2.475
34.4952,2.512
34.4952,2.596
34.4952,2.583
34.4962,2.436
34.4962,2.365
34.4962,2.284
34.4962,2.223
34.4962,2.147
34.4962,1.99
34.4962,1.92
34.4972,1.882
34.4972,1.87
34.4972,1.868
34.4972,1.863
34.4972,1.942
34.4972,2.011
34.4972,1.994
34.4972,1.958
34.4982,1.93
34.4982,1.893
34.4982,1.818
34.4982,1.767
34.4982,1.727
34.4982,1.709
34.4982,1.667
34.4991,1.658
34.4991,1.709
34.4991,1.736
34.4991,1.766
34.4991,1.819
34.4991,1.9
34.4991,1.875
34.5001,1.848
34.5001,1.819
34.5001,1.787
34.5001,1.761
34.5001,1.707
34.5001,1.65
34.5001,1.62
34.5011,1.619
34.5011,1.641
34.5011,1.673
34.5011,1.705
34.5011,1.803
34.5011,1.891
34.5011,1.901
34.5021,1.863
34.5021,1.835
34.5021,1.768
34.5021,1.742
34.5021,1.699
34.5021,1.657
34.5021,1.636
34.5031,1.616
34.5031,1.627
34.5031,1.663
34.5031,1.696
34.5031,1.729
34.5031,1.785
34.5031,1.873
34.5041,1.865
34.5041,1.834
34.5041,1.802
34.5041,1.768
34.5041,1.742
34.5041,1.697
34.5041,1.621
34.5051,1.599
34.5051,1.585
34.5051,1.613
34.5051,1.65
34.5051,1.686
34.5051,1.781
34.5051,1.845
34.5061,1.895
34.5061,1.856
34.5061,1.824
34.5061,1.761
34.5061,1.739
34.5061,1.692
34.5061,1.625
34.5071,1.615
34.5071,1.601
34.5071,1.615
34.5071,1.652
34.5071,1.688
34.5071,1.726
34.5071,1.776
34.5081,1.852
34.5081,1.857
34.5081,1.829
34.5081,1.786
34.5081,1.758
34.5081,1.734
34.5081,1.703
34.5081,1.61
34.5091,1.587
34.5091,1.575
34.5091,1.604
34.5091,1.631
34.5091,1.686
34.5091,1.758
34.5091,1.838
34.5101,1.848
34.5101,1.842
34.5101,1.814
34.5101,1.747
34.5101,1.717
34.5101,1.684
34.5111,1.626
34.5111,1.596
34.5111,1.564
34.5111,1.577
34.5111,1.612
34.5121,1.637
34.5121,1.664
34.5121,1.731
34.5121,1.807
34.5121,1.814
34.5121,1.775
34.5121,1.75
34.5131,1.707
34.5131,1.669
34.5131,1.586
34.5131,1.536
34.5131,1.52
34.5131,1.508
34.5131,1.526
34.5141,1.547
34.5141,1.612
34.5141,1.663
34.5141,1.719
34.5141,1.753
34.5141,1.752
34.5151,1.717
34.5151,1.646
34.5151,1.613
34.5151,1.586
34.5151,1.529
34.5151,1.488
34.5151,1.455
34.5161,1.47
34.5161,1.5
34.5161,1.527
34.5161,1.556
34.5161,1.622
34.5161,1.697
34.5161,1.705
34.5171,1.674
34.5171,1.653
34.5171,1.617
34.5171,1.582
34.5171,1.5
34.5171,1.474
34.5171,1.448
34.5171,1.424
34.5181,1.452
34.5181,1.489
34.5181,1.556
34.5181,1.61
34.5181,1.691
34.5181,1.741
34.5181,1.725
34.5191,1.687
34.5191,1.646
34.5191,1.613
34.5191,1.579
34.5191,1.517
34.5191,1.505
34.5191,1.504
34.5201,1.484
34.5201,1.524
34.5201,1.565
34.5201,1.607
34.5201,1.665
34.5201,1.798
34.5201,1.79
34.5211,1.746
34.5211,1.734
34.5211,1.712
34.5211,1.68
34.5211,1.599
34.5211,1.576
34.5211,1.561
34.5211,1.545
34.5221,1.569
34.5221,1.605
34.5221,1.678
34.5221,1.736
34.5221,1.813
34.5221,1.885
34.5221,1.887
34.5231,1.821
34.5231,1.784
34.5231,1.758
34.5231,1.744
34.5231,1.685
34.5231,1.658
34.5231,1.621
34.5241,1.644
34.5241,1.675
34.5241,1.715
34.5241,1.753
34.5241,1.806
34.5241,1.946
34.5241,1.94
34.5251,1.897
34.5251,1.87
34.5251,1.842
34.5251,1.809
34.5251,1.714
34.5251,1.685
34.5251,1.667
34.5261,1.642
34.5261,1.644
34.5261,1.722
34.5261,1.756
34.5261,1.801
34.5261,1.867
34.5271,1.936
34.5271,1.957
34.5271,1.868
34.5271,1.839
34.5271,1.81
34.5271,1.786
34.5281,1.72
34.5281,1.679
34.5281,1.646
34.5281,1.649
34.5281,1.683
34.5281,1.713
34.5281,1.745
34.5291,1.792
34.5291,1.936
34.5291,1.936
34.5291,1.893
34.5291,1.868
34.5291,1.831
34.5291,1.781
34.5301,1.727
34.5301,1.667
34.5301,1.644
34.5301,1.629
34.5301,1.638
34.5301,1.701
34.5301,1.738
34.5301,1.792
34.5311,1.838
34.5311,1.911
34.5311,1.932
34.5311,1.857
34.5311,1.828
34.5311,1.799
34.5311,1.78
34.5321,1.717
34.5321,1.662
34.5321,1.631
34.5321,1.636
34.5321,1.667
34.5321,1.705
34.5321,1.745
34.5331,1.776
34.5331,1.934
34.5331,1.894
34.5331,1.866
34.5331,1.802
35.1207,1.772
35.1207,1.712
35.1207,1.674
35.1207,1.654
35.1207,1.633
35.1217,1.672
35.1217,1.698
35.1217,1.735
35.1217,1.775
35.1217,1.854
35.1217,1.919
35.1227,1.885
35.1227,1.864
35.1227,1.828
35.1227,1.798
35.1227,1.772
35.1237,1.726
35.1237,1.645
35.1237,1.631
35.1237,1.639
35.1247,1.664
35.1247,1.689
35.1247,1.782
35.1247,1.847
35.1247,1.907
35.1257,1.938
35.1257,1.896
35.1257,1.874
35.1267,1.808
35.1267,1.782
35.1277,1.727
35.1277,1.674
35.1287,1.667
35.1287,1.652
35.1287,1.67
35.1287,1.71
35.1287,1.742
35.1287,1.79
35.1297,1.851
35.1297,1.925
35.1297,1.91
35.1297,1.881
35.1297,1.839
35.1307,1.799
35.1307,1.774
35.1307,1.683
35.1307,1.656
35.1307,1.639
35.1317,1.643
35.1317,1.678
35.1317,1.71
35.1317,1.793
35.1317,1.865
35.1327,1.92
35.1327,1.924
35.1327,1.901
35.1327,1.889
35.1327,1.814
35.1337,1.783
35.1337,1.741
35.1337,1.701
35.1337,1.663
35.1337,1.643
35.1347,1.678
35.1347,1.708
35.1347,1.749
35.1347,1.783
35.1347,1.848
35.1357,1.941
35.1357,1.916
35.1357,1.879
35.1357,1.858
35.1357,1.826
35.1367,1.803
35.1367,1.685
35.1367,1.666
35.1367,1.658
35.1367,1.646
35.1367,1.66
35.1377,1.704
35.1377,1.789
35.1377,1.834
35.1377,1.922
35.1377,1.946
35.1387,1.908
35.1387,1.89
35.1387,1.818
35.1387,1.775
35.1387,1.739
35.1397,1.707
35.1397,1.681
35.1397,1.648
35.1407,1.676
35.1407,1.706
35.1407,1.743
35.1407,1.779
35.1407,1.843
35.1417,1.915
35.1417,1.913
35.1417,1.891
35.1417,1.857
35.1417,1.824
35.1417,1.794
35.1427,1.768
35.1427,1.654
35.1427,1.64
35.1427,1.638
35.1437,1.671
35.1437,1.7
35.1446,1.732
35.1446,1.829
35.1446,1.917
35.1446,1.93
35.1456,1.916
35.1456,1.89
35.1456,1.862
35.1456,1.791
35.1456,1.758
35.1456,1.706
35.1466,1.682
35.1466,1.635
35.1466,1.625
35.1466,1.679
35.1466,1.715
35.1466,1.743
35.1466,1.803
35.1476,1.898
35.1476,1.92
35.1476,1.866
35.1476,1.827
35.1476,1.794
35.1476,1.77
35.1486,1.727
35.1486,1.683
35.1486,1.655
35.1486,1.619
35.1486,1.635
35.1486,1.676
35.1486,1.701
35.1496,1.733
35.1496,1.867
35.1496,1.911
35.1496,1.914
35.1496,1.865
35.1496,1.836
35.1496,1.804
35.1506,1.74
35.1506,1.671
35.1506,1.625
35.1506,1.591
35.1506,1.574
35.1506,1.605
35.1516,1.649
35.1516,1.695
35.1516,1.757
35.1516,1.82
35.1516,1.879
35.1516,1.862
35.1516,1.803
35.1526,1.77
35.1526,1.753
35.1526,1.736
35.1526,1.653
35.1526,1.632
35.1526,1.591
35.1536,1.628
35.1536,1.661
35.1536,1.703
35.1536,1.74
35.1536,1.798
35.1536,1.923
35.1536,1.912
35.1546,1.88
35.1546,1.846
35.1546,1.812
35.1546,1.789
35.1546,1.692
35.1546,1.643
35.1556,1.638
35.1556,1.629
35.1556,1.645
35.1556,1.681
35.1556,1.735
35.1556,1.804
35.1566,1.871
35.1566,1.915
35.1566,1.904
35.1566,1.871
35.1566,1.814
35.1566,1.776
35.1566,1.759
35.1576,1.704
35.1576,1.662
35.1576,1.645
35.1576,1.642
35.1576,1.673
35.1576,1.715
35.1586,1.745
35.1586,1.788
35.1586,1.933
35.1586,1.903
35.1586,1.874
35.1586,1.854
35.1586,1.815
35.1596,1.78
35.1596,1.691
35.1596,1.686
35.1596,1.668
35.1596,1.624
35.1596,1.643
35.1606,1.68
35.1606,1.74
35.1606,1.792
35.1606,1.868
35.1606,1.94
35.1606,1.935
35.1606,1.877
35.1616,1.814
35.1616,1.793
35.1616,1.761
35.1616,1.686
35.1616,1.653
35.1616,1.625
35.1616,1.642
35.1626,1.673
35.1626,1.699
35.1626,1.73
35.1626,1.768
35.1626,1.875
35.1626,1.876
35.1626,1.845
35.1636,1.81
35.1636,1.75
35.1636,1.705
35.1636,1.587
35.1636,1.497
35.1636,1.442
35.1636,1.388
35.1646,1.369
35.1646,1.395
35.1646,1.408
35.1646,1.429
35.1646,1.483
35.1646,1.529
35.1646,1.558
35.1646,1.761
35.1656,1.936
35.1656,2.002
35.1656,1.94
35.1656,1.884
35.1656,1.831
35.1656,1.93
35.1656,2.046
35.1666,2.248
35.1666,2.397
35.1666,2.47
35.1666,2.505
35.1666,2.538
35.1666,2.517
35.1666,2.477
35.1676,2.452
35.1676,2.41
35.1676,2.346
35.1676,2.186
35.1676,2.099
35.1676,2.041
35.1676,2.004
35.1686,1.971
35.1686,1.957
35.1686,1.958
35.1686,1.967
35.1686,1.97
35.1686,2.015
35.1686,1.992
35.1686,1.875
35.1696,1.814
35.1696,1.785
35.1696,1.763
35.1696,1.701
35.1696,1.654
35.1696,1.581
35.1696,1.593
35.1706,1.621
35.1706,1.631
35.1706,1.67
35.1706,1.724
35.1706,1.832
35.1706,1.854
35.1706,1.811
35.1716,1.785
35.1716,1.749
35.1716,1.69
35.1716,1.63
35.1716,1.578
35.1726,1.555
35.1726,1.527
35.1726,1.534
35.1726,1.597
35.1726,1.625
35.1726,1.679
35.1726,1.728
35.1726,1.805
35.1736,1.823
35.1736,1.753
35.1736,1.718
35.1736,1.678
35.1736,1.655
35.1736,1.611
35.1746,1.556
35.1746,1.507
35.1746,1.514
35.1746,1.537
35.1746,1.57
35.1746,1.589
35.1746,1.638
35.1756,1.776
35.1756,1.789
35.1756,1.751
35.1756,1.723
35.1756,1.699
35.1756,1.64
35.1756,1.59
35.1766,1.544
35.1766,1.506
35.1766,1.491
35.1766,1.484
35.1766,1.554
35.1766,1.588
35.1766,1.628
35.1776,1.683
35.1776,1.779
35.1776,1.784
35.1776,1.706
35.1776,1.677
35.1776,1.643
35.1776,1.604
35.1786,1.575
35.1786,1.517
35.1786,1.462
35.1786,1.461
35.1786,1.48
35.1786,1.522
35.1786,1.558
35.1795,1.645
35.1795,1.73
35.1795,1.746
35.1795,1.712
35.1795,1.686
35.1795,1.639
35.1795,1.589
35.1805,1.542
35.1805,1.482
35.1805,1.466
35.1805,1.451
35.1805,1.432
35.1805,1.489
35.1805,1.52
35.1805,1.555
35.1815,1.619
35.1815,1.696
35.1815,1.694
35.1815,1.648
35.1815,1.613
35.1815,1.578
35.1815,1.556
35.1825,1.503
35.1825,1.408
35.1825,1.396
35.1825,1.393
35.1825,1.417
35.1825,1.446
35.1825,1.471
35.1835,1.575
35.1835,1.63
35.1835,1.677
35.1835,1.633
35.1835,1.596
35.1835,1.565
35.1835,1.479
35.1845,1.428
35.1845,1.392
35.1845,1.355
35.1845,1.331
35.1845,1.31
35.1845,1.367
35.1845,1.398
35.1845,1.426
35.1855,1.479
35.1855,1.55
35.1855,1.565
35.1855,1.512
35.1855,1.481
35.1855,1.449
35.1865,1.419
35.1865,1.365
35.1865,1.303
35.1865,1.275
35.1865,1.267
35.1865,1.276
35.1865,1.294
35.1865,1.332
35.1875,1.349
35.1875,1.491
35.1875,1.497
35.1875,1.469
35.1875,1.45
35.1875,1.414
35.1885,1.34
35.1885,1.314
35.1885,1.276
35.1885,1.258
35.1885,1.252
35.1885,1.248
35.1885,1.27
35.1895,1.29
35.1895,1.31
35.1895,1.376
35.1895,1.463
35.1895,1.463
35.1895,1.43
35.1895,1.397
35.1905,1.368
35.1905,1.338
35.1905,1.31
35.1905,1.273
35.1905,1.254
35.1905,1.251
35.1905,1.26
35.1905,1.285
35.1915,1.316
35.1915,1.352
35.1915,1.466
35.1915,1.508
35.1915,1.52
35.1915,1.492
35.1915,1.469
35.1925,1.439
35.1925,1.382
35.1925,1.328
35.1925,1.318
35.1925,1.307
35.1925,1.29
35.1925,1.32
35.1935,1.402
35.1935,1.435
35.1935,1.498
35.1935,1.595
35.1935,1.631
35.1935,1.608
35.1945,1.553
35.1945,1.529
35.1945,1.505
35.1945,1.475
35.1945,1.418
35.1945,1.416
35.1945,1.372
35.1955,1.396
35.1955,1.435
35.1955,1.48
35.1955,1.52
35.1955,1.578
35.1955,1.699
35.1955,1.707
35.1955,1.667
35.1965,1.638
35.1965,1.614
35.1965,1.574
35.1965,1.473
35.1965,1.45
35.1965,1.427
35.1965,1.42
35.1975,1.437
35.1975,1.463
35.1975,1.533
35.1975,1.586
35.1975,1.66
35.1975,1.713
35.1975,1.692
35.1985,1.625
35.1985,1.597
35.1985,1.547
35.1985,1.513
35.1985,1.454
35.1985,1.445
35.1985,1.401
35.1985,1.406
35.1995,1.44
35.1995,1.474
35.1995,1.502
35.1995,1.553
35.1995,1.678
35.1995,1.674
35.1995,1.595
35.2005,1.558
35.2005,1.505
35.7989,1.445
35.7989,1.412
35.7989,1.382
35.7989,1.379
35.7989,1.421
35.7999,1.445
35.7999,1.477
35.7999,1.521
35.7999,1.576
35.7999,1.64
35.7999,1.605
35.7999,1.573
35.8009,1.531
35.8009,1.497
35.8009,1.48
35.8009,1.407
35.8009,1.36
35.8009,1.35
35.8009,1.361
35.8019,1.384
35.8019,1.424
35.8019,1.454
35.8019,1.576
35.8019,1.621
35.8019,1.63
35.8019,1.579
35.8029,1.55
35.8029,1.519
35.8029,1.463
35.8029,1.392
35.8029,1.357
35.8029,1.327
35.8029,1.316
35.8039,1.334
35.8039,1.403
35.8039,1.431
35.8039,1.48
35.8039,1.551
35.8039,1.599
35.8039,1.608
35.8049,1.544
35.8049,1.516
35.8049,1.481
35.8049,1.442
35.8049,1.402
35.8049,1.334
35.8049,1.323
35.8049,1.334
35.8059,1.371
35.8059,1.406
35.8059,1.431
35.8059,1.549
35.8059,1.621
35.8059,1.622
35.8059,1.574
35.8069,1.537
35.8069,1.512
35.8069,1.445
35.8069,1.394
35.8069,1.346
35.8069,1.337
35.8069,1.321
35.8079,1.332
35.8079,1.39
35.8079,1.422
35.8079,1.47
35.8079,1.543
35.8079,1.596
35.8089,1.596
35.8089,1.535
35.8089,1.499
35.8089,1.466
35.8089,1.441
35.8089,1.393
35.8099,1.35
35.8099,1.312
35.8099,1.331
35.8099,1.361
35.8099,1.394
35.8099,1.429
35.8099,1.463
35.8109,1.581
35.8109,1.624
35.8109,1.577
35.8109,1.541
35.8109,1.508
35.8109,1.482
35.8109,1.385
35.8119,1.341
35.8119,1.342
35.8119,1.319
35.8119,1.316
35.8119,1.336
35.8119,1.4
35.8119,1.443
35.8129,1.507
35.8129,1.569
35.8129,1.586
35.8129,1.547
35.8129,1.501
35.8129,1.465
35.8129,1.429
35.8138,1.383
35.8138,1.34
35.8138,1.32
35.8138,1.315
35.8138,1.347
35.8138,1.369
35.8138,1.394
35.8148,1.45
35.8148,1.501
35.8148,1.581
35.8148,1.534
35.8148,1.506
35.8148,1.469
35.8148,1.436
35.8158,1.42
35.8158,1.326
35.8158,1.291
35.8158,1.286
35.8158,1.29
35.8158,1.314
35.8158,1.342
35.8168,1.37
35.8168,1.466
35.8168,1.539
35.8168,1.535
35.8168,1.512
35.8168,1.482
35.8168,1.447
35.8168,1.378
35.8178,1.323
35.8178,1.289
35.8178,1.277
35.8178,1.271
35.8178,1.263
35.8178,1.296
35.8178,1.311
35.8188,1.342
35.8188,1.42
35.8188,1.493
35.8188,1.503
35.8188,1.446
35.8188,1.43
35.8188,1.392
35.8198,1.36
35.8198,1.326
35.8198,1.301
35.8198,1.272
35.8198,1.272
35.8198,1.291
35.8198,1.319
35.8208,1.351
35.8208,1.384
35.8208,1.453
35.8208,1.549
35.8208,1.518
35.8208,1.491
35.8208,1.462
35.8208,1.427
35.8218,1.403
35.8218,1.323
35.8218,1.287
35.8218,1.286
35.8218,1.282
35.8218,1.301
35.8228,1.331
35.8228,1.4
35.8228,1.459
35.8228,1.519
35.8228,1.55
35.8228,1.527
35.8238,1.492
35.8238,1.423
35.8238,1.405
35.8238,1.367
35.8238,1.317
35.8238,1.292
35.8238,1.284
35.8248,1.304
35.8248,1.334
35.8248,1.361
35.8248,1.392
35.8248,1.457
35.8248,1.522
35.8248,1.545
35.8248,1.493
35.8258,1.465
35.8258,1.433
35.8258,1.396
35.8258,1.359
35.8258,1.327
35.8258,1.283
35.8268,1.277
35.8268,1.297
35.8268,1.328
35.8268,1.356
35.8268,1.381
35.8268,1.519
35.8268,1.538
35.8278,1.517
35.8278,1.486
35.8278,1.459
35.8278,1.43
35.8278,1.354
35.8278,1.306
35.8278,1.3
35.8288,1.284
35.8288,1.27
35.8288,1.284
35.8288,1.343
35.8288,1.373
35.8288,1.428
35.8288,1.5
35.8298,1.539
35.8298,1.523
35.8298,1.43
35.8298,1.395
35.8298,1.374
35.8298,1.335
35.8298,1.284
35.8298,1.273
35.8308,1.249
35.8308,1.25
35.8308,1.251
35.8308,1.247
35.8308,1.251
35.8308,1.256
35.8308,1.279
35.8318,1.261
35.8318,1.245
35.8318,1.235
35.8318,1.232
35.8318,1.23
35.8318,1.231
35.8318,1.248
35.8328,1.364
35.8328,1.467
35.8328,1.471
35.8328,1.487
35.8328,1.57
35.8328,1.704
35.8328,1.863
35.8338,2.062
35.8338,2.163
35.8338,2.183
35.8338,2.049
35.8338,1.982
35.8338,1.925
35.8338,1.884
35.8348,1.845
35.8348,1.814
35.8348,1.787
35.8348,1.775
35.8348,1.767
35.8348,1.769
35.8348,1.791
35.8358,1.845
35.8358,1.782
35.8358,1.728
35.8358,1.657
35.8358,1.582
35.8358,1.509
35.8358,1.374
35.8368,1.333
35.8368,1.289
35.8368,1.268
35.8368,1.282
35.8368,1.304
35.8368,1.362
35.8368,1.4
35.8368,1.46
35.8378,1.519
35.8378,1.506
35.8378,1.46
35.8378,1.397
35.8378,1.366
35.8378,1.334
35.8378,1.279
35.8388,1.26
35.8388,1.256
35.8388,1.256
35.8388,1.268
35.8388,1.289
35.8388,1.321
35.8398,1.378
35.8398,1.433
35.8398,1.467
35.8398,1.439
35.8398,1.411
35.8398,1.381
35.8398,1.347
35.8408,1.321
35.8408,1.269
35.8408,1.257
35.8408,1.247
35.8408,1.253
35.8408,1.267
35.8408,1.285
35.8418,1.309
35.8418,1.432
35.8418,1.484
35.8418,1.462
35.8418,1.43
35.8418,1.4
35.8418,1.338
35.8418,1.316
35.8428,1.271
35.8428,1.259
35.8428,1.263
35.8428,1.249
35.8428,1.26
35.8428,1.277
35.8438,1.301
35.8438,1.342
35.8438,1.412
35.8438,1.461
35.8438,1.459
35.8438,1.395
35.8448,1.367
35.8448,1.338
35.8448,1.313
35.8448,1.268
35.8448,1.251
35.8448,1.247
35.8448,1.248
35.8458,1.26
35.8458,1.278
35.8458,1.31
35.8458,1.344
35.8458,1.465
35.8458,1.456
35.8458,1.425
35.8458,1.404
35.8468,1.366
35.8468,1.327
35.8468,1.273
35.8468,1.256
35.8468,1.25
35.8468,1.245
35.8468,1.249
35.8478,1.257
35.8478,1.292
35.8478,1.336
35.8478,1.407
35.8478,1.448
35.8478,1.455
35.8478,1.424
35.8488,1.369
35.8488,1.334
35.8488,1.301
35.8488,1.269
35.8488,1.269
35.8488,1.256
35.8488,1.245
35.8488,1.253
35.8498,1.266
35.8498,1.282
35.8498,1.316
35.8498,1.371
35.8498,1.45
35.8498,1.406
35.8508,1.375
35.8508,1.34
35.8508,1.309
35.8508,1.295
35.8508,1.245
35.8508,1.243
35.8508,1.242
35.8508,1.24
35.8518,1.244
35.8518,1.251
35.8518,1.287
35.8518,1.332
35.8518,1.395
35.8518,1.394
35.8518,1.367
35.8528,1.336
35.8528,1.301
35.8528,1.256
35.8528,1.248
35.8528,1.244
35.8528,1.237
35.8528,1.235
35.8538,1.234
35.8538,1.24
35.8538,1.244
35.8538,1.254
35.8538,1.288
35.8538,1.357
35.8538,1.348
35.8548,1.287
35.8548,1.262
35.8548,1.251
35.8548,1.243
35.8557,1.238
35.8557,1.238
35.8557,1.232
35.8567,1.232
35.8567,1.233
35.8567,1.236
35.8567,1.238
35.8567,1.247
35.8577,1.321
35.8577,1.323
35.8577,1.293
35.8577,1.281
35.8577,1.261
35.8577,1.249
35.8587,1.239
35.8587,1.236
35.8587,1.234
35.8587,1.232
35.8587,1.232
35.8587,1.234
35.8587,1.24
35.8597,1.252
35.8597,1.281
35.8597,1.35
35.8597,1.345
35.8597,1.324
35.8597,1.283
35.8607,1.266
35.8607,1.262
35.8607,1.25
35.8607,1.242
35.8607,1.238
35.8607,1.238
35.8607,1.243
35.8617,1.252
35.8617,1.268
35.8617,1.299
35.8617,1.36
35.8617,1.431
35.8617,1.435
35.8617,1.41
35.8617,1.388
35.8627,1.36
35.8627,1.343
35.8627,1.268
35.8627,1.271
35.8627,1.267
35.8627,1.258
35.8627,1.273
35.8637,1.303
35.8637,1.383
35.8637,1.437
35.8637,1.519
35.8637,1.557
35.8637,1.526
35.8637,1.498
35.8647,1.432
35.8647,1.42
35.8647,1.382
35.8647,1.324
35.8647,1.308
35.8647,1.289
35.8647,1.325
35.8657,1.358
35.8657,1.385
35.8657,1.432
35.8657,1.493
35.8657,1.565
35.8657,1.569
35.8657,1.536
35.8667,1.505
35.8667,1.467
35.8667,1.445
35.8667,1.408
35.8667,1.317
35.8667,1.322
35.8667,1.303
35.8677,1.324
35.8677,1.362
35.8677,1.396
35.8677,1.492
35.8677,1.585
35.8677,1.607
35.8677,1.564
35.8677,1.537
35.8687,1.502
35.8687,1.439
35.8687,1.403
35.8687,1.351
35.8687,1.32
35.8687,1.295
35.8687,1.3
35.8697,1.353
35.8697,1.389
35.8697,1.425
35.8697,1.484
35.8697,1.551
35.8697,1.604
35.8697,1.486
35.8707,1.458
36.7093,1.432
36.7093,1.344
36.7103,1.318
36.7113,1.301
36.7113,1.289
36.7123,1.315
36.7123,1.354
36.7123,1.422
36.7133,1.48
36.7133,1.577
36.7143,1.599
36.7143,1.559
36.7153,1.529
36.7163,1.47
36.7163,1.435
36.7172,1.387
36.7172,1.322
36.7182,1.313
36.7182,1.326
36.7182,1.316
36.7192,1.355
36.7192,1.389
36.7202,1.426
36.7202,1.481
36.7213,1.554
36.7213,1.575
36.7213,1.535
36.7223,1.502
36.7223,1.468
36.7223,1.443
36.7233,1.413
36.7233,1.322
36.7233,1.308
36.7243,1.302
36.7243,1.325
36.7243,1.356
36.7253,1.391
36.7253,1.492
36.7253,1.566
36.7253,1.595
36.7263,1.582
36.7263,1.546
36.7272,1.526
36.7272,1.461
36.7272,1.42
36.7272,1.373
36.7283,1.359
36.7283,1.324
36.7283,1.309
36.7283,1.374
36.7283,1.408
36.7292,1.439
36.7292,1.49
36.7292,1.563
36.7292,1.623
36.7292,1.567
36.7302,1.538
36.7302,1.506
36.7302,1.48
36.7302,1.45
36.7302,1.348
36.7312,1.343
36.7312,1.324
36.7312,1.347
36.7312,1.383
36.7322,1.421
36.7322,1.451
36.7322,1.583
36.7322,1.647
36.7322,1.634
36.7332,1.596
36.7332,1.56
36.7332,1.5
36.7332,1.471
36.7332,1.401
36.7332,1.386
36.7342,1.362
36.7342,1.347
36.7342,1.392
36.7342,1.424
36.7342,1.46
36.7342,1.515
36.7352,1.59
36.7352,1.649
36.7352,1.605
36.7352,1.576
36.7352,1.534
36.7352,1.503
36.7362,1.476
36.7362,1.424
36.7362,1.37
36.7362,1.345
36.7362,1.372
36.7362,1.402
36.7372,1.438
36.7372,1.467
36.7372,1.598
36.7372,1.654
36.7372,1.643
36.7372,1.613
36.7372,1.589
36.7382,1.552
36.7382,1.474
36.7382,1.421
36.7382,1.409
36.7382,1.395
36.7382,1.349
36.7382,1.365
36.7392,1.401
36.7392,1.486
36.7392,1.534
36.7392,1.606
36.7392,1.654
36.7392,1.671
36.7392,1.627
36.7402,1.552
36.7402,1.52
36.7402,1.496
36.7402,1.435
36.7402,1.397
36.7402,1.387
36.7402,1.366
36.7402,1.399
36.7412,1.422
36.7412,1.459
36.7412,1.517
36.7412,1.578
36.7412,1.636
36.7412,1.604
36.7412,1.575
36.7422,1.531
36.7422,1.497
36.7422,1.468
36.7422,1.379
36.7422,1.346
36.7422,1.325
36.7422,1.341
36.7432,1.372
36.7432,1.411
36.7432,1.51
36.7432,1.579
36.7432,1.64
36.7432,1.671
36.7432,1.623
36.7442,1.594
36.7442,1.53
36.7442,1.505
36.7442,1.443
36.7442,1.423
36.7442,1.413
36.7442,1.385
36.7452,1.414
36.7452,1.462
36.7452,1.503
36.7452,1.542
36.7452,1.61
36.7452,1.682
36.7452,1.655
36.7462,1.625
36.7462,1.594
36.7462,1.567
36.7462,1.545
36.7462,1.477
36.7462,1.434
36.7472,1.409
36.7482,1.417
36.7492,1.441
36.7501,1.478
36.7541,1.508
36.7541,1.622
36.7591,1.697
36.7611,1.733
36.7621,1.665
36.7631,1.642
36.7631,1.606
36.7631,1.552
36.7631,1.506
36.7631,1.454
36.7631,1.433
36.7641,1.412
36.7641,1.421
36.7641,1.482
36.7641,1.516
36.7641,1.576
36.7641,1.634
36.7641,1.716
36.7651,1.719
36.7651,1.653
36.7651,1.627
36.7651,1.583
36.7651,1.548
36.7651,1.505
36.7661,1.478
36.7661,1.423
36.7661,1.431
36.7661,1.466
36.7661,1.499
36.7661,1.527
36.7661,1.573
36.7671,1.744
36.7671,1.76
36.7671,1.691
36.7671,1.664
36.7671,1.63
36.7671,1.588
36.7671,1.508
36.7681,1.482
36.7681,1.475
36.7681,1.45
36.7681,1.43
36.7681,1.469
36.7681,1.492
36.7681,1.53
36.7681,1.589
36.7691,1.658
36.7691,1.708
36.7691,1.581
36.7691,1.512
36.7691,1.445
36.7691,1.357
36.7691,1.275
36.7701,1.248
36.7701,1.234
36.7701,1.231
36.7701,1.231
36.7701,1.231
36.7701,1.232
36.7701,1.234
36.7711,1.306
36.7711,1.409
36.7711,1.633
36.7711,1.776
36.7711,1.802
36.7711,1.728
36.7711,1.737
36.7721,1.813
36.7721,1.868
36.7721,1.939
36.7721,2.079
36.7721,2.164
36.7721,2.233
36.7721,2.243
36.7731,2.322
36.7731,2.414
36.7731,2.388
36.7731,2.277
36.7731,2.213
36.7731,2.17
36.7731,2.086
36.7731,2.008
36.7741,1.93
36.7741,1.807
36.7741,1.758
36.7741,1.745
36.7741,1.736
36.7741,1.725
36.7751,1.73
36.7751,1.827
36.7751,1.879
36.7751,1.825
36.7751,1.743
36.7751,1.708
36.7751,1.689
36.7751,1.595
36.7761,1.529
36.7761,1.523
36.7761,1.502
36.7771,1.474
36.7771,1.524
36.7771,1.544
36.7771,1.584
36.7781,1.639
36.7781,1.719
36.7781,1.755
36.7781,1.691
36.7781,1.638
36.7781,1.598
36.7781,1.573
36.7791,1.549
36.7791,1.482
36.7791,1.425
36.7791,1.429
36.7791,1.465
36.7791,1.49
36.7801,1.522
36.7801,1.557
36.7801,1.709
36.7801,1.741
36.7801,1.709
36.7801,1.677
36.7801,1.646
36.7811,1.57
36.7811,1.545
36.7811,1.483
36.7811,1.463
36.7811,1.432
36.7811,1.421
36.7811,1.491
36.7821,1.524
36.7821,1.568
36.7821,1.625
36.7821,1.685
36.7821,1.739
36.7821,1.683
36.7821,1.647
36.7831,1.618
36.7831,1.594
36.7831,1.54
36.7831,1.48
36.7831,1.46
36.7831,1.433
36.7831,1.448
36.7841,1.484
36.7841,1.528
36.7841,1.571
36.7841,1.705
36.7841,1.766
36.7841,1.738
36.7841,1.679
36.7851,1.651
36.7851,1.59
36.7851,1.555
36.7851,1.487
36.7851,1.462
36.7851,1.47
36.7851,1.435
36.7851,1.499
36.7861,1.532
36.7861,1.573
36.7861,1.637
36.7861,1.706
36.7861,1.76
36.7861,1.698
36.7861,1.658
36.7870,1.628
36.7870,1.601
36.7870,1.572
36.7870,1.492
36.7870,1.494
36.7870,1.445
36.7870,1.482
36.7880,1.506
36.7880,1.54
36.7880,1.618
36.7880,1.714
36.7880,1.757
36.7880,1.746
36.7880,1.713
36.7880,1.672
36.7890,1.604
36.7890,1.575
36.7890,1.514
36.7890,1.484
36.7890,1.463
36.7890,1.443
36.7890,1.501
36.7900,1.526
36.7900,1.584
36.7900,1.643
36.7900,1.704
36.7900,1.741
36.7900,1.703
36.7900,1.667
36.7910,1.624
36.7910,1.586
36.7910,1.562
36.7910,1.468
36.7910,1.44
36.7910,1.401
36.7910,1.442
36.7910,1.469
36.7920,1.512
36.7920,1.58
36.7920,1.674
36.7920,1.718
36.7920,1.697
36.7920,1.661
36.7930,1.628
36.7930,1.546
36.7930,1.526
36.7930,1.464
36.7930,1.412
36.7940,1.41
36.7940,1.393
36.7940,1.422
36.7940,1.46
36.7951,1.502
36.7951,1.548
36.7951,1.62
36.7951,1.682
36.7951,1.633
36.7951,1.599
36.7961,1.564
36.7961,1.532
36.7961,1.511
36.7961,1.413
36.7961,1.394
36.7961,1.368
36.7961,1.389
36.7961,1.414
36.7971,1.445
36.7971,1.554
36.7971,1.62
36.7971,1.683
36.7971,1.688
36.7971,1.649
36.7971,1.615
36.7981,1.556
36.7981,1.532
36.7981,1.457
36.7981,1.436
36.7981,1.41
36.7981,1.393
36.7981,1.457
36.7991,1.491
36.7991,1.531
36.7991,1.59
36.7991,1.669
36.7991,1.73
36.7991,1.7
36.7991,1.675
36.8001,1.641
36.8001,1.611
36.8001,1.577
36.8001,1.528
36.8001,1.499
36.8001,1.467
36.8001,1.489
36.8001,1.537
36.8010,1.57
36.8010,1.658
36.8010,1.73
36.8010,1.819
36.8010,1.82
36.8010,1.775
36.8010,1.746
36.8020,1.69
36.8020,1.657
36.8020,1.607
36.8020,1.569
36.8020,1.576
36.8020,1.542
36.8020,1.593
36.8030,1.63
36.8030,1.655
36.8030,1.722
36.8030,1.794
36.8030,1.855
36.8030,1.826
36.8030,1.798
36.8030,1.766
36.8040,1.727
36.8040,1.695
36.8040,1.631
36.8040,1.581
36.8040,1.562
36.8040,1.582
36.8050,1.613
36.8050,1.651
36.8050,1.741
36.8050,1.805
36.8050,1.873
36.8050,1.888
36.8050,1.848
36.8050,1.775
36.8060,1.747
36.8060,1.724
36.8060,1.673
36.8060,1.611
36.8060,1.595
36.8060,1.585
36.8060,1.619
36.8070,1.652
36.8070,1.683
36.8070,1.729
36.8070,1.817
36.8070,1.889
36.8070,1.857
36.8070,1.831
36.8080,1.781
36.8080,1.75
36.8080,1.71
36.8080,1.638
36.8080,1.607
36.8080,1.57
36.8080,1.584
36.8090,1.616
36.8090,1.689
36.8090,1.733
36.8090,1.812
36.8090,1.898
36.8090,1.896
36.8100,1.855
36.8100,1.789
36.8100,1.734
36.8100,1.673
36.8100,1.629
36.8100,1.611
36.8110,1.601
36.8110,1.626
36.8110,1.672
36.8110,1.705
36.8110,1.757
36.8110,1.892
36.8110,1.906
36.8120,1.851
36.8120,1.85
36.8120,1.805
36.8120,1.741
36.8120,1.691
36.8120,1.657
36.8120,1.631
36.8130,1.601
36.8130,1.601
36.8130,1.676
36.8130,1.708
36.8130,1.75
36.8130,1.814
36.8130,1.934
36.8140,1.932
36.8140,1.849
36.8140,1.814
36.8140,1.78
36.8140,1.756
36.8140,1.711
36.8140,1.643
36.8150,1.625
36.8150,1.619
36.8150,1.636
36.8150,1.674
36.8150,1.705
36.8150,1.824
36.8150,1.898
36.8160,1.923
36.8160,1.898
36.8160,1.862
36.8160,1.829
36.8160,1.762
36.8160,1.73
36.8160,1.673
36.8170,1.645
36.8170,1.614
36.8170,1.624
36.8170,1.688
36.8170,1.719
36.8170,1.769
36.8180,1.84
36.8180,1.914
36.8180,1.945
36.8180,1.88
36.8180,1.852
36.8180,1.798
36.8180,1.774
36.8190,1.729
36.8190,1.681
36.8190,1.632
36.8190,1.634
36.8190,1.667
36.8190,1.701
36.8190,1.732
36.8200,1.838
36.8200,1.937
36.8200,1.981
36.8200,1.924
36.8200,1.889
36.8200,1.851
36.8200,1.795
36.8210,1.741
36.8210,1.685
36.8210,1.691
36.8210,1.672
36.8210,1.664
36.8210,1.708
36.8210,1.742
36.8210,1.781
36.8220,1.855
36.8220,1.922
36.8220,1.941
36.8220,1.901
36.8220,1.858
36.8220,1.819
36.8220,1.791
36.8230,1.764
36.8230,1.681
36.8230,1.655
36.8230,1.638
36.8230,1.669
36.8230,1.703
36.8230,1.738
36.8240,1.842
36.8240,1.916
36.8240,1.973
36.8240,1.94
36.8240,1.894
36.8240,1.849
36.8240,1.782
36.8250,1.749
36.8250,1.692
36.8250,1.664
36.8250,1.637
36.8250,1.621
36.8250,1.683
36.8250,1.724
36.8260,1.757
36.8260,1.823
36.8260,1.883
36.8260,1.928
36.8270,1.88
36.8270,1.846
36.8270,1.807
36.8270,1.77
36.8270,1.745
36.8270,1.694
36.8270,1.643
36.8280,1.636
36.8280,1.674
36.8280,1.693
36.8280,1.736
36.8280,1.784
36.8280,1.907
36.8280,1.994
36.8280,1.969
36.8290,1.921
36.8290,1.884
36.8290,1.855
36.8290,1.778
36.8290,1.716
36.8290,1.719
36.8290,1.694
36.8300,1.655
36.8300,1.681
36.8300,1.762
36.8300,1.805
36.8300,1.86
36.8300,1.945
36.8300,2.004
36.8310,1.987
36.8310,1.901
36.8310,1.866
36.8310,1.834
36.8310,1.796
36.8310,1.724
36.8310,1.72
36.8310,1.672
36.8320,1.692
36.8320,1.728
36.8320,1.768
36.8320,1.805
36.8320,1.865
36.8320,2.006
36.8320,2.0
36.8330,1.947
36.8330,1.918
36.8330,1.888
36.8330,1.851
36.8330,1.763
36.8330,1.736
36.8330,1.715
36.8340,1.69
36.8340,1.703
36.8340,1.749
36.8340,1.817
37.1640,1.876
37.1640,1.962
37.1640,1.995
37.1640,1.998
37.1640,1.963
37.1650,1.89
37.1650,1.854
37.1650,1.837
37.1650,1.763
37.1650,1.738
37.1650,1.727
37.1660,1.72
37.1660,1.754
37.1660,1.802
37.1660,1.827
37.1660,1.884
37.1660,1.973
37.1660,1.985
37.1660,1.972
37.1670,1.944
37.1670,1.907
37.1670,1.867
37.1670,1.817
37.1670,1.688
37.1670,1.665
37.1670,1.64
37.1680,1.656
37.1680,1.692
37.1680,1.733
37.1680,1.76
37.1680,1.806
37.1680,1.82
37.1680,1.742
37.1690,1.655
37.1690,1.513
37.1690,1.433
37.1690,1.38
37.1690,1.295
37.1690,1.27
37.1690,1.25
37.1700,1.258
37.1700,1.329
37.1700,1.57
37.1700,1.865
37.1700,2.026
37.1700,2.105
37.1700,2.199
37.1710,2.302
37.1710,2.377
37.1710,2.416
37.1710,2.534
37.1710,2.606
37.1710,2.527
37.1710,2.457
37.1710,2.441
37.1720,2.445
37.1720,2.43
37.1720,2.44
37.1720,2.493
37.1720,2.545
37.1720,2.568
37.1720,2.524
37.1730,2.438
37.1730,2.369
37.1730,2.224
37.1730,2.147
37.1730,2.051
37.1730,1.965
37.1730,1.891
37.1740,1.831
37.1740,1.856
37.1740,1.884
37.1740,1.893
37.1740,1.928
37.1740,2.013
37.1740,2.066
37.1750,2.021
37.1750,1.983
37.1750,1.945
37.1750,1.901
37.1750,1.861
37.1750,1.756
37.1760,1.73
37.1760,1.69
37.1760,1.693
37.1760,1.736
37.1760,1.762
37.1760,1.844
37.1770,1.917
37.1770,1.984
37.1770,2.006
37.1770,1.953
37.1770,1.915
37.1770,1.844
37.1770,1.821
37.1780,1.755
37.1780,1.711
37.1780,1.677
37.1780,1.678
37.1780,1.697
37.1780,1.739
37.1780,1.78
37.1790,1.832
37.1790,1.899
37.1790,1.975
37.1790,1.944
37.1790,1.911
37.1790,1.866
37.1790,1.832
37.1800,1.791
37.1800,1.714
37.1800,1.679
37.1800,1.647
37.1800,1.661
37.1800,1.694
37.1800,1.77
37.1810,1.822
37.1810,1.892
37.1810,1.968
37.1810,1.974
37.1810,1.938
37.1810,1.87
37.1810,1.835
37.1820,1.807
37.1820,1.746
37.1820,1.692
37.1820,1.66
37.1820,1.669
37.1820,1.693
37.1820,1.732
37.1830,1.768
37.1830,1.818
37.1830,1.89
37.1830,1.974
37.1830,1.945
37.1830,1.917
37.1830,1.867
37.1840,1.828
37.1840,1.799
37.1840,1.713
37.1840,1.669
37.1840,1.656
37.1840,1.656
37.1840,1.691
37.1850,1.762
37.1850,1.803
37.1850,1.878
37.1850,1.988
37.1850,1.977
37.1850,1.935
37.1850,1.868
37.1850,1.839
37.1860,1.797
37.1860,1.747
37.1860,1.689
37.1860,1.668
37.1860,1.65
37.1860,1.693
37.1860,1.717
37.1870,1.757
37.1870,1.798
37.1870,1.857
37.1870,1.954
37.1870,1.922
37.1870,1.895
37.1870,1.855
37.1880,1.814
37.1880,1.736
37.1880,1.697
37.1880,1.651
37.1880,1.629
37.1880,1.625
37.1880,1.654
37.1890,1.72
37.1890,1.755
37.1890,1.823
37.1890,1.929
37.1890,1.934
37.1890,1.893
37.1890,1.817
37.1900,1.774
37.1900,1.732
37.1900,1.682
37.1900,1.616
37.1900,1.61
37.1900,1.566
37.1900,1.589
37.1910,1.623
37.1930,1.661
37.1950,1.7
37.1979,1.757
37.2029,1.859
37.2049,1.836
37.2059,1.785
37.2069,1.753
37.2069,1.711
37.2069,1.629
37.2069,1.577
37.2069,1.54
37.2069,1.535
37.2080,1.515
37.2080,1.54
37.2080,1.617
37.2080,1.661
37.2080,1.721
37.2080,1.805
37.2080,1.818
37.2090,1.807
37.2090,1.731
37.2090,1.693
37.2090,1.664
37.2090,1.631
37.2090,1.567
37.2100,1.515
37.2100,1.505
37.2100,1.543
37.2109,1.579
37.2109,1.616
37.2109,1.663
37.2109,1.812
37.2109,1.842
37.2119,1.825
37.2119,1.798
37.2119,1.769
37.2119,1.731
37.2119,1.656
37.2119,1.623
37.2119,1.599
37.2129,1.576
37.2129,1.572
37.2129,1.6
37.2129,1.691
37.2129,1.731
37.2129,1.797
37.2129,1.897
37.2129,1.941
37.2139,1.916
37.2139,1.855
37.2139,1.824
37.2139,1.796
37.2139,1.766
37.2139,1.709
37.2149,1.688
37.2149,1.663
37.2149,1.692
37.2149,1.735
37.2149,1.785
37.2149,1.817
37.2149,1.967
37.2159,2.008
37.2159,2.009
37.2159,1.968
37.2159,1.933
37.2159,1.906
37.2159,1.842
37.2159,1.785
37.2159,1.744
37.2169,1.729
37.2169,1.716
37.2169,1.749
37.2169,1.824
37.2169,1.852
37.2169,1.926
37.2169,2.018
37.2179,2.049
37.2179,2.005
37.2179,1.971
37.2179,1.935
37.2179,1.899
37.2179,1.855
37.2179,1.793
37.2189,1.756
37.2189,1.724
37.2189,1.748
37.2189,1.793
37.2189,1.831
37.2189,1.857
37.2189,2.02
37.2199,2.057
37.2199,2.035
37.2199,2.001
37.2199,1.969
37.2199,1.933
37.2199,1.852
37.2199,1.797
37.2209,1.79
37.2209,1.759
37.2209,1.726
37.2209,1.783
37.2209,1.824
37.2209,1.854
37.2209,1.911
37.2209,1.992
37.2219,2.048
37.2219,1.988
37.2219,1.958
37.2219,1.921
37.2219,1.891
37.2219,1.866
37.2219,1.797
37.2229,1.731
37.2229,1.724
37.2229,1.742
37.2229,1.778
37.2229,1.819
37.2229,1.856
37.2239,1.989
37.2239,2.043
37.2239,2.032
37.2239,1.993
37.2239,1.968
37.2239,1.927
37.2239,1.851
37.2249,1.805
37.2249,1.785
37.2249,1.741
37.2249,1.72
37.2249,1.777
37.2249,1.814
37.2249,1.856
37.2259,1.907
37.2259,1.989
37.2259,2.042
37.2259,1.996
37.2259,1.972
37.2259,1.935
37.2269,1.893
37.2269,1.857
37.2269,1.743
37.2279,1.725
37.8472,1.755
37.8492,1.77
37.8492,1.843
37.8492,1.903
37.8492,1.973
37.8492,2.042
37.8502,2.054
37.8502,1.998
37.8502,1.93
37.8502,1.893
37.8502,1.88
37.8502,1.8
37.8502,1.768
37.8512,1.731
37.8512,1.74
37.8512,1.773
37.8512,1.812
37.8512,1.85
37.8512,1.917
37.8512,1.983
37.8522,2.044
37.8522,2.006
37.8522,1.978
37.8522,1.939
37.8522,1.895
37.8522,1.876
37.8522,1.771
37.8532,1.743
37.8532,1.739
37.8532,1.74
37.8532,1.778
37.8532,1.852
37.8532,1.906
37.8532,1.99
37.8532,2.042
37.8542,2.06
37.8542,2.017
37.8542,1.948
37.8542,1.91
37.8542,1.886
37.8542,1.825
37.8552,1.786
37.8552,1.745
37.8552,1.753
37.8552,1.783
37.8552,1.825
37.8552,1.86
37.8552,1.916
37.8552,1.983
37.8562,2.056
37.8562,2.03
37.8562,1.993
37.8562,1.95
37.8562,1.911
37.8562,1.842
37.8562,1.78
37.8572,1.755
37.8572,1.733
37.8572,1.739
37.8572,1.771
37.8572,1.855
37.8572,1.89
37.8572,1.978
37.8582,2.057
37.8582,2.053
37.8582,2.011
37.8582,1.955
37.8582,1.915
37.8582,1.874
37.8582,1.826
37.8582,1.795
37.8592,1.761
37.8592,1.734
37.8592,1.765
37.8602,1.796
37.8602,1.83
37.8602,1.875
37.8602,2.04
37.8602,2.035
37.8602,1.99
37.8602,1.956
37.8612,1.918
37.8612,1.881
37.8612,1.784
37.8612,1.727
37.8612,1.71
37.8612,1.705
37.8612,1.697
37.8622,1.733
37.8622,1.816
37.8622,1.869
37.8622,1.929
37.8622,2.023
37.8622,2.026
37.8622,2.005
37.8622,1.948
37.8632,1.908
37.8632,1.88
37.8632,1.832
37.8632,1.775
37.8632,1.743
37.8632,1.736
37.8632,1.766
37.8642,1.81
37.8642,1.856
37.8642,1.883
37.8642,1.957
37.8642,2.069
37.8642,2.022
37.8652,1.99
37.8652,1.961
37.8652,1.922
37.8652,1.89
37.8652,1.781
37.8652,1.772
37.8652,1.756
37.8652,1.747
37.8662,1.783
37.8662,1.819
37.8662,1.9
37.8662,1.967
37.8662,2.058
37.8662,2.085
37.8662,2.041
37.8672,2.007
37.8672,1.937
37.8672,1.91
37.8672,1.857
37.8672,1.803
37.8672,1.763
37.8672,1.764
37.8682,1.783
37.8682,1.818
37.8682,1.854
37.8682,1.906
37.8682,1.968
37.8682,2.053
37.8682,2.042
37.8682,2.012
37.8692,1.974
37.8692,1.933
37.8692,1.9
37.8692,1.859
37.8692,1.774
37.8692,1.745
37.8692,1.748
37.8702,1.783
37.8702,1.821
37.8702,1.853
37.8702,1.958
37.8702,2.067
37.8702,2.08
37.8702,2.044
37.8712,2.009
37.8712,1.975
37.8712,1.907
37.8712,1.856
37.8712,1.791
37.8712,1.774
37.8712,1.774
37.8712,1.748
37.8722,1.805
37.8722,1.831
37.8722,1.856
37.8722,1.905
37.8722,1.988
37.8722,2.007
37.8722,1.962
37.8732,1.916
37.8732,1.856
37.8732,1.794
37.8732,1.719
37.8732,1.589
37.8732,1.424
37.8732,1.394
37.8742,1.388
37.8742,1.376
37.8742,1.381
37.8742,1.396
37.8742,1.517
37.8742,1.533
37.8752,1.597
37.8752,1.696
37.8752,1.918
37.8752,2.049
37.8752,1.976
37.8752,1.947
37.8761,2.012
37.8761,2.122
37.8761,2.225
37.8761,2.408
37.8771,2.611
37.8771,2.609
37.8771,2.62
37.8771,2.646
37.8781,2.643
37.8781,2.652
37.8781,2.614
37.8781,2.558
37.8781,2.493
37.8781,2.423
37.8781,2.317
37.8791,2.234
37.8791,2.139
37.8791,2.128
37.8791,2.114
37.8791,2.107
37.8791,2.104
37.8791,2.127
37.8801,2.189
37.8801,2.156
37.8801,2.102
37.8801,2.049
37.8801,1.999
37.8801,1.899
37.8801,1.828
37.8811,1.82
37.8811,1.796
37.8811,1.763
37.8811,1.785
37.8811,1.842
37.8811,1.868
37.8811,1.923
37.8811,1.993
37.8821,2.042
37.8821,2.03
37.8821,1.939
37.8821,1.899
37.8821,1.868
37.8821,1.835
37.8821,1.761
37.8831,1.736
37.8831,1.69
37.8831,1.718
37.8831,1.754
37.8831,1.786
37.8831,1.819
37.8831,1.961
37.8841,2.004
37.8841,1.997
37.8841,1.953
37.8841,1.922
37.8841,1.88
37.8841,1.799
37.8841,1.751
37.8851,1.726
37.8851,1.687
37.8851,1.669
37.8851,1.697
37.8851,1.766
37.8851,1.795
37.8851,1.859
37.8851,1.946
37.8861,2.013
37.8861,1.987
37.8861,1.902
37.8861,1.876
37.8861,1.834
37.8861,1.784
37.8861,1.733
37.8871,1.676
37.8871,1.655
37.8871,1.679
37.8871,1.722
37.8871,1.753
37.8871,1.793
37.8881,1.949
37.8881,1.983
37.8881,1.978
37.8881,1.938
37.8881,1.912
37.8881,1.873
37.8881,1.794
37.8891,1.732
37.8891,1.725
37.8891,1.695
37.8891,1.657
37.8891,1.676
37.8891,1.76
37.8891,1.789
37.8901,1.843
37.8901,1.932
37.8901,1.987
37.8901,1.936
37.8901,1.9
37.8901,1.859
37.8901,1.826
37.8901,1.802
37.8911,1.727
37.8911,1.675
37.8911,1.655
37.8911,1.669
37.8911,1.697
37.8921,1.736
37.8921,1.771
37.8921,1.91
37.8921,1.965
37.8921,1.952
37.8921,1.915
37.8921,1.885
37.8931,1.841
37.8931,1.778
37.8931,1.704
37.8931,1.678
37.8931,1.658
37.8931,1.625
37.8941,1.642
37.8941,1.707
37.8941,1.739
37.8941,1.798
37.8941,1.867
37.8941,1.921
37.8941,1.888
37.8951,1.852
37.8951,1.806
37.8951,1.773
37.8951,1.743
37.8951,1.669
37.8951,1.587
37.8951,1.574
37.8961,1.582
37.8961,1.615
37.8961,1.65
37.8961,1.676
37.8961,1.806
37.8961,1.867
37.8961,1.86
37.8971,1.811
37.8971,1.781
37.8971,1.737
37.8971,1.655
37.8971,1.603
37.8971,1.547
37.8981,1.524
37.8981,1.505
37.8981,1.548
37.8981,1.579
37.8981,1.613
37.8981,1.667
37.8981,1.742
37.8981,1.812
37.8991,1.767
37.8991,1.743
37.8991,1.699
37.8991,1.659
37.8991,1.628
37.8991,1.578
37.8991,1.494
37.9001,1.475
37.9001,1.488
37.9001,1.526
37.9001,1.558
37.9001,1.596
37.9001,1.741
37.9001,1.805
37.9011,1.806
37.9011,1.776
37.9011,1.743
37.9011,1.676
37.9011,1.641
37.9011,1.584
37.9011,1.552
37.9011,1.543
37.9021,1.514
37.9021,1.558
37.9021,1.605
37.9021,1.648
37.9021,1.699
37.9021,1.779
37.9021,1.884
37.9031,1.841
37.9031,1.817
37.9031,1.788
37.9031,1.762
37.9031,1.736
37.9031,1.678
37.9031,1.61
37.9041,1.621
37.9041,1.622
37.9041,1.66
37.9041,1.704
37.9041,1.743
37.9041,1.881
37.9051,1.965
37.9051,1.969
37.9051,1.946
37.9051,1.926
37.9051,1.859
37.9051,1.824
37.9051,1.786
37.9061,1.741
37.9061,1.697
37.9061,1.696
37.9061,1.728
37.9061,1.772
37.9061,1.803
37.9061,1.864
37.9061,1.929
37.9071,2.024
37.9071,1.996
37.9071,1.972
37.9071,1.931
37.9071,1.899
37.9080,1.867
37.9080,1.813
37.9080,1.731
37.9080,1.73
37.9080,1.724
37.9080,1.75
37.9080,1.786
37.9090,1.813
37.9090,1.935
37.9090,2.018
37.9090,2.025
37.9090,2.01
37.9090,1.982
37.9100,1.905
37.9100,1.878
37.9100,1.825
37.9100,1.767
37.9100,1.733
37.9100,1.729
37.9100,1.732
37.9110,1.769
37.9110,1.816
37.9110,1.867
37.9110,1.929
37.9110,2.017
37.9110,2.002
37.9110,1.986
37.9110,1.936
37.9120,1.9
37.9120,1.865
37.9120,1.827
37.9120,1.724
37.9120,1.704
37.9120,1.703
37.9120,1.733
37.9130,1.775
37.9130,1.807
37.9130,1.926
37.9130,2.024
37.9130,2.026
37.9130,1.995
37.9130,1.958
37.9140,1.887
37.9140,1.853
37.9140,1.807
37.9140,1.745
37.9140,1.735
37.9140,1.718
37.9140,1.72
37.9150,1.761
37.9150,1.804
37.9150,1.846
37.9150,1.915
37.9150,2.001
37.9150,2.004
37.9150,1.966
37.9150,1.92
37.9160,1.883
37.9160,1.85
37.9160,1.819
37.9160,1.72
37.9160,1.689
37.9160,1.69
37.9160,1.735
37.9170,1.76
37.9170,1.797
37.9170,1.911
37.9170,2.014
37.9170,2.025
37.9170,1.995
37.9170,1.966
37.9180,1.889
37.9180,1.853
37.9180,1.811
37.9180,1.761
37.9180,1.746
37.9180,1.715
37.9180,1.72
37.9180,1.757
37.9190,1.799
37.9190,1.842
37.9190,1.898
37.9190,1.973
37.9190,2.005
37.9190,1.962
37.9190,1.928
37.9200,1.886
37.9200,1.858
37.9200,1.757
37.9200,1.725
37.9200,1.703
37.9200,1.722
38.7567,1.795
38.7567,1.838
38.7567,1.904
38.7577,1.986
38.7577,2.017
38.7577,2.018
38.7577,1.931
38.7577,1.898
38.7587,1.87
38.7587,1.84
38.7587,1.763
38.7587,1.728
38.7597,1.699
38.7597,1.72
38.7597,1.752
38.7607,1.786
38.7607,1.83
38.7617,1.985
38.7617,2.019
38.7617,2.006
38.7617,1.976
38.7617,1.937
38.7627,1.903
38.7627,1.834
38.7627,1.773
38.7627,1.728
38.7627,1.704
38.7637,1.69
38.7637,1.723
38.7637,1.783
38.7637,1.818
38.7637,1.88
38.7647,1.986
38.7647,2.016
38.7647,1.995
38.7647,1.932
38.7647,1.893
38.7657,1.853
38.7657,1.817
38.7657,1.754
38.7657,1.744
38.7657,1.682
38.7667,1.705
38.7667,1.742
38.7667,1.784
38.7677,1.824
38.7677,1.953
38.7677,2.028
38.7677,2.006
38.7677,1.957
38.7687,1.922
38.7687,1.883
38.7687,1.806
38.7687,1.736
38.7687,1.7
38.7697,1.694
38.7697,1.661
38.7697,1.687
38.7697,1.742
38.7697,1.786
38.7707,1.844
38.7707,1.915
38.7707,1.967
38.7707,1.961
38.7717,1.889
38.7717,1.849
38.7717,1.816
38.7717,1.799
38.7717,1.738
38.7726,1.679
38.7726,1.653
38.7726,1.69
38.7726,1.727
38.7726,1.757
38.7736,1.793
38.7736,1.951
38.7736,2.008
38.7736,2.005
38.7736,1.961
38.7746,1.936
38.7746,1.894
38.7746,1.816
38.7746,1.772
38.7756,1.732
38.7756,1.699
38.7756,1.669
38.7756,1.71
38.7766,1.785
38.7766,1.808
38.7766,1.866
38.7766,1.961
38.7766,2.022
38.7766,1.971
38.7776,1.941
38.7776,1.911
38.7776,1.865
38.7776,1.818
38.7776,1.767
38.7776,1.707
38.7776,1.69
38.7786,1.703
38.7786,1.739
38.7786,1.778
38.7786,1.813
38.7786,1.937
38.7786,2.038
38.7796,2.012
38.7796,1.963
38.7796,1.937
38.7796,1.9
38.7796,1.819
38.7796,1.774
38.7806,1.754
38.7806,1.742
38.7806,1.695
38.7806,1.7
38.7806,1.786
38.7806,1.814
38.7806,1.861
38.7816,1.934
38.7816,2.009
38.7816,2.024
38.7816,1.938
38.7816,1.896
38.7816,1.864
38.7816,1.831
38.7826,1.768
38.7826,1.721
38.7826,1.69
38.7826,1.698
38.7826,1.728
38.7826,1.768
38.7836,1.809
38.7836,1.862
38.7836,1.917
38.7836,2.011
38.7836,1.969
38.7836,1.943
38.7836,1.896
38.7836,1.855
38.7846,1.821
38.7846,1.706
38.7846,1.684
38.7846,1.664
38.7846,1.662
38.7846,1.706
38.7846,1.737
38.7856,1.785
38.7856,1.844
38.7856,1.861
38.7856,1.848
38.7856,1.759
38.7856,1.637
38.7856,1.594
38.7866,1.545
38.7866,1.426
38.7866,1.363
38.7866,1.34
38.7866,1.324
38.7866,1.512
38.7866,1.806
38.7876,1.996
38.7876,2.041
38.7876,2.098
38.7876,2.18
38.7876,2.241
38.7876,2.298
38.7876,2.42
38.7886,2.522
38.7886,2.557
38.7886,2.499
38.7886,2.355
38.7886,2.296
38.7886,2.278
38.7886,2.301
38.7886,2.337
38.7896,2.381
38.7896,2.411
38.7896,2.457
38.7896,2.442
38.7896,2.338
38.7896,2.265
38.7896,2.199
38.7906,2.053
38.7906,1.971
38.7906,1.897
38.7906,1.831
38.7906,1.771
38.7906,1.742
38.7906,1.764
38.7916,1.789
38.7916,1.823
38.7916,1.883
38.7916,1.993
38.7916,2.006
38.7916,1.913
38.7916,1.873
38.7916,1.826
38.7926,1.793
38.7926,1.73
38.7926,1.645
38.7926,1.627
38.7926,1.61
38.7936,1.641
38.7936,1.673
38.7936,1.713
38.7936,1.821
38.7936,1.889
38.7936,1.925
38.7936,1.884
38.7946,1.853
38.7946,1.816
38.7946,1.734
38.7946,1.685
38.7946,1.636
38.7946,1.591
38.7946,1.569
38.7956,1.577
38.7956,1.642
38.7956,1.683
38.7956,1.732
38.7956,1.799
38.7956,1.861
38.7956,1.891
38.7966,1.828
38.7966,1.783
38.7966,1.76
38.7966,1.731
38.7966,1.685
38.7966,1.605
38.7966,1.585
38.7966,1.566
38.7976,1.591
38.7976,1.618
38.7976,1.661
38.7976,1.764
38.7976,1.836
38.7976,1.87
38.7976,1.844
38.7986,1.818
38.7986,1.772
38.7986,1.711
38.7986,1.671
38.7986,1.592
38.7986,1.572
38.7996,1.564
38.7996,1.543
38.7996,1.6
38.7996,1.642
38.7996,1.678
38.7996,1.744
38.7996,1.817
38.8006,1.872
38.8006,1.787
38.8006,1.748
38.8006,1.723
38.8006,1.687
38.8006,1.651
38.8006,1.544
38.8006,1.529
38.8016,1.515
38.8016,1.548
38.8016,1.583
38.8016,1.611
38.8016,1.719
38.8016,1.795
38.8016,1.831
38.8026,1.809
38.8026,1.774
38.8026,1.736
38.8026,1.658
38.8026,1.621
38.8026,1.56
38.8026,1.532
38.8036,1.497
38.8036,1.496
38.8036,1.557
38.8036,1.589
38.8036,1.617
38.8036,1.685
38.8036,1.77
38.8046,1.797
38.8046,1.724
38.8046,1.695
38.8046,1.646
38.8046,1.607
38.8046,1.57
38.8046,1.519
38.8046,1.459
38.8056,1.443
38.8056,1.466
38.8056,1.496
38.8056,1.534
38.8056,1.612
38.8056,1.698
38.8056,1.735
38.8066,1.708
38.8066,1.666
38.8066,1.634
38.8066,1.546
38.8066,1.493
38.8066,1.435
38.8066,1.416
38.8076,1.39
38.8076,1.341
38.8076,1.398
38.8076,1.434
38.8076,1.456
38.8076,1.511
38.8076,1.606
38.8086,1.667
38.8086,1.578
38.8086,1.539
38.8086,1.495
38.8086,1.459
38.8086,1.423
38.8086,1.335
38.8095,1.34
38.8095,1.296
38.8095,1.313
38.8095,1.348
38.8095,1.385
38.8095,1.467
38.8095,1.557
38.8105,1.623
38.8105,1.575
38.8105,1.551
38.8105,1.516
38.8105,1.446
38.8105,1.421
38.8115,1.36
38.8115,1.333
38.8115,1.31
38.8115,1.289
38.8115,1.352
38.8115,1.386
38.8115,1.422
38.8115,1.476
38.8125,1.568
38.8125,1.628
38.8125,1.572
38.8125,1.55
38.8125,1.523
38.8125,1.492
38.8125,1.454
38.8135,1.394
38.8135,1.389
38.8135,1.353
38.8135,1.382
38.8135,1.421
38.8135,1.465
38.8135,1.509
38.8145,1.647
38.8145,1.728
38.8145,1.734
38.8145,1.689
38.8145,1.659
38.8145,1.628
38.8155,1.586
38.8155,1.529
38.8155,1.498
38.8155,1.475
38.8155,1.469
38.8155,1.541
38.8155,1.581
38.8155,1.62
38.8165,1.679
38.8165,1.77
38.8165,1.833
38.8165,1.786
38.8165,1.761
38.8165,1.724
38.8165,1.701
38.8175,1.666
38.8175,1.603
38.8175,1.581
38.8175,1.545
38.8175,1.557
38.8175,1.593
38.8175,1.634
38.8185,1.722
38.8185,1.785
38.8185,1.868
38.8185,1.879
38.8185,1.824
38.8185,1.792
38.8185,1.713
38.8195,1.691
38.8195,1.624
38.8195,1.576
38.8195,1.56
38.8195,1.543
38.8195,1.587
38.8195,1.623
38.8205,1.662
38.8205,1.718
38.8205,1.783
38.8205,1.844
38.8205,1.804
38.8205,1.775
38.8205,1.734
38.8215,1.697
38.8215,1.671
38.8215,1.61
38.8215,1.563
38.8215,1.527
38.8215,1.53
38.8215,1.562
38.8215,1.605
38.8225,1.677
38.8225,1.749
38.8225,1.845
38.8225,1.836
38.8225,1.778
38.8225,1.75
38.8225,1.681
38.8235,1.639
38.8235,1.582
38.8235,1.533
38.8235,1.534
38.8235,1.511
38.8235,1.541
38.8235,1.582
38.8245,1.615
38.8245,1.663
38.8245,1.716
38.8245,1.795
38.8245,1.762
38.8245,1.732
38.8245,1.69
38.8255,1.654
38.8255,1.635
38.8255,1.569
38.8255,1.504
38.8255,1.48
38.8255,1.49
38.8255,1.52
38.8265,1.553
38.8265,1.643
38.8265,1.71
38.8265,1.786
38.8265,1.792
38.8265,1.751
38.8265,1.722
38.8275,1.651
38.8275,1.622
38.8275,1.574
38.8275,1.538
38.8275,1.514
38.8275,1.471
38.8275,1.528
38.8285,1.565
38.8285,1.597
38.8285,1.637
38.8285,1.709
38.8285,1.806
38.8285,1.759
38.8285,1.732
38.8295,1.694
38.8295,1.658
38.8295,1.621
38.8295,1.538
38.8295,1.523
38.8295,1.489
38.8295,1.492
38.8305,1.521
38.8325,1.559
38.8335,1.627
38.8345,1.697
38.8385,1.798
38.8385,1.821
38.8445,1.76
38.8455,1.725
38.8475,1.656
38.8484,1.627
38.8484,1.577
38.8484,1.529
38.8484,1.505
38.8484,1.494
38.8484,1.516
38.8484,1.557
38.8495,1.588
38.8495,1.625
38.8495,1.7
38.8495,1.811
38.8495,1.762
38.8495,1.731
38.8495,1.695
38.8505,1.653
38.8505,1.618
38.8505,1.544
38.8505,1.518
38.8505,1.477
38.8505,1.476
38.8505,1.505
38.8515,1.611
38.8515,1.676
38.8515,1.767
38.8515,1.782
38.8515,1.709
38.8515,1.673
38.8515,1.637
38.8515,1.602
38.8525,1.549
38.8525,1.506
38.8525,1.469
38.8525,1.448
38.8525,1.476
38.8525,1.513
38.8525,1.544
38.8535,1.579
38.8535,1.727
38.8535,1.763
38.8535,1.718
38.8535,1.681
38.8535,1.641
38.8535,1.606
38.8545,1.536
38.8545,1.482
38.8545,1.455
38.8545,1.446
38.8545,1.442
38.8545,1.472
38.8545,1.549
38.8555,1.598
38.8555,1.666
38.8555,1.75
38.8555,1.785
38.8555,1.725
38.8555,1.682
38.8555,1.64
38.8565,1.609
38.8565,1.575
38.8565,1.526
38.8565,1.478
38.8565,1.464
38.8565,1.497
38.8565,1.535
38.8575,1.567
38.8575,1.601
38.8575,1.761
38.8575,1.788
38.8575,1.758
38.8575,1.723
38.8575,1.69
38.8585,1.65
38.8585,1.583
38.8585,1.53
38.8585,1.505
38.8585,1.48
38.8585,1.469
38.8594,1.5
38.8594,1.566
38.8594,1.603
38.8594,1.663
38.8604,1.763
38.8604,1.808
38.8604,1.73
38.8604,1.698
38.8614,1.659
38.8614,1.625
38.8614,1.586
38.8614,1.538
38.8614,1.472
38.8614,1.466
38.8614,1.495
38.8624,1.522
38.8624,1.557
38.8624,1.604
38.8624,1.738
38.8624,1.792
38.8624,1.771
38.8634,1.723
38.8634,1.692
38.8634,1.655
38.8634,1.599
38.8634,1.527
38.8634,1.498
38.8634,1.476
38.8644,1.46
38.8644,1.492
38.8644,1.556
38.8644,1.601
38.8644,1.661
38.8644,1.736
38.8644,1.768
38.8654,1.722
38.8654,1.685
38.8654,1.649
38.8654,1.617
38.8654,1.585
38.8654,1.526
38.8654,1.455
38.8654,1.42
38.8664,1.449
38.8664,1.491
38.8664,1.518
38.8664,1.553
38.8664,1.678
38.8664,1.696
38.8664,1.657
38.8674,1.571
38.8674,1.498
38.8674,1.418
38.8674,1.289
38.8674,1.259
38.8674,1.254
38.8674,1.238
38.8684,1.231
38.8684,1.232
38.8684,1.235
38.8684,1.306
38.8684,1.614
38.8684,1.894
38.8684,1.993
38.8694,1.909
38.8694,1.865
38.8694,1.908
38.8694,1.963
38.8694,2.058
38.8694,2.166
38.8694,2.216
38.8694,2.174
38.8704,2.066
38.8704,2.091
38.8704,2.128
38.8704,2.136
38.8704,2.199
38.8704,2.268
38.8704,2.264
38.8714,2.181
38.8714,2.112
38.8714,2.039
38.8714,1.964
38.8714,1.901
38.8714,1.728
38.8714,1.694
38.8724,1.622
38.8724,1.598
38.8724,1.593
38.8724,1.604
38.8724,1.65
38.8724,1.732
38.8724,1.781
38.8724,1.768
38.8734,1.706
38.8734,1.68
38.8734,1.598
38.8734,1.554
38.8734,1.5
38.8734,1.475
38.8734,1.435
38.8744,1.399
38.8744,1.453
38.8744,1.48
38.8744,1.507
38.8744,1.556
38.8744,1.643
38.8744,1.699
38.8754,1.639
38.8754,1.608
38.8754,1.571
39.2113,1.533
39.2113,1.499
39.2113,1.449
39.2123,1.402
39.2123,1.361
39.2123,1.384
39.2123,1.421
39.2123,1.457
39.2133,1.492
39.2133,1.631
39.2133,1.67
39.2133,1.671
39.2133,1.63
39.2143,1.603
39.2143,1.563
39.2143,1.501
39.2143,1.438
39.2153,1.4
39.2153,1.375
39.2153,1.358
39.2153,1.375
39.2153,1.43
39.2163,1.465
39.2163,1.526
39.2163,1.595
39.2163,1.66
39.2163,1.642
39.2173,1.584
39.2173,1.542
39.2173,1.504
39.2173,1.47
39.2173,1.427
39.2183,1.401
39.2183,1.344
39.2183,1.352
39.2183,1.39
39.2183,1.429
39.2193,1.459
39.2193,1.51
39.2193,1.672
39.2193,1.664
39.2193,1.607
39.2203,1.574
39.2203,1.537
39.2203,1.475
39.2203,1.409
39.2203,1.363
39.2213,1.365
39.2213,1.345
39.2213,1.348
39.2213,1.411
39.2213,1.449
39.2223,1.5
39.2223,1.571
39.2223,1.635
39.2223,1.646
39.2223,1.573
39.2233,1.532
39.2233,1.496
39.2233,1.466
39.2233,1.402
39.2243,1.375
39.2243,1.323
39.2243,1.325
39.2243,1.361
39.2253,1.397
39.2253,1.432
39.2253,1.475
39.2253,1.631
39.2263,1.623
39.2263,1.586
39.2263,1.557
39.2263,1.513
39.2263,1.436
39.2263,1.386
39.2273,1.364
39.2273,1.325
39.2273,1.299
39.2273,1.304
39.2273,1.373
39.2273,1.403
39.2283,1.44
39.2283,1.52
39.2283,1.596
39.2283,1.583
39.2283,1.51
39.2283,1.473
39.2293,1.437
39.2293,1.401
39.2293,1.334
39.2293,1.3
39.2293,1.269
39.2293,1.264
39.2293,1.277
39.2303,1.303
39.2303,1.329
39.2303,1.373
39.2303,1.508
39.2303,1.536
39.2303,1.483
39.2313,1.443
39.2313,1.407
39.2313,1.362
39.2313,1.295
39.2313,1.261
39.2313,1.253
39.2313,1.249
39.2323,1.248
39.2323,1.253
39.2323,1.285
39.2323,1.323
39.2323,1.386
39.2323,1.462
39.2323,1.485
39.2333,1.437
39.2333,1.375
39.2333,1.335
39.2333,1.308
39.2333,1.28
39.2333,1.264
39.2333,1.251
39.2343,1.246
39.2343,1.248
39.2343,1.26
39.2343,1.276
39.2343,1.305
39.2343,1.367
39.2353,1.462
39.2353,1.43
39.2353,1.399
39.2353,1.374
39.2353,1.35
39.2353,1.322
39.2362,1.288
39.2362,1.264
39.2362,1.265
39.2362,1.252
39.2362,1.263
39.2362,1.284
39.2362,1.323
39.2372,1.438
39.2372,1.533
39.2372,1.571
39.2372,1.528
39.2372,1.498
39.2372,1.469
39.2372,1.402
39.2382,1.362
39.2382,1.339
39.2382,1.324
39.2382,1.292
39.2382,1.295
39.2382,1.368
39.2382,1.409
39.2382,1.451
39.2392,1.514
39.2392,1.63
39.2392,1.65
39.2392,1.577
39.2392,1.543
39.2392,1.515
39.2402,1.487
39.2402,1.436
39.2402,1.4
39.2402,1.366
39.2402,1.343
39.2402,1.371
39.2402,1.412
39.2412,1.454
39.2412,1.564
39.2412,1.645
39.2412,1.698
39.2412,1.649
39.2412,1.616
39.2412,1.579
39.2422,1.519
39.2422,1.477
39.2422,1.414
39.2422,1.385
39.2422,1.381
39.2432,1.365
39.2432,1.424
39.2432,1.463
39.2432,1.505
39.2432,1.557
39.2432,1.629
39.2432,1.661
39.2432,1.611
39.2442,1.577
39.2442,1.537
39.2442,1.503
39.2442,1.472
39.2442,1.412
39.2442,1.361
39.2452,1.343
39.2452,1.375
39.2452,1.406
39.2452,1.433
39.2452,1.47
39.2452,1.617
39.2452,1.641
39.2452,1.622
39.2462,1.59
39.2462,1.549
39.2462,1.507
39.2462,1.445
39.2462,1.388
39.2462,1.367
39.2462,1.343
39.2472,1.318
39.2472,1.389
39.2472,1.423
39.2472,1.452
39.2472,1.519
39.2472,1.619
39.2482,1.648
39.2482,1.583
39.2482,1.55
39.2482,1.512
39.2482,1.471
39.2482,1.442
39.2482,1.388
39.2482,1.333
39.2492,1.322
39.2492,1.346
39.2492,1.379
39.2492,1.413
39.2492,1.451
39.2492,1.577
39.2492,1.624
39.2502,1.612
39.2502,1.576
39.2502,1.54
39.2502,1.504
39.2502,1.444
39.2502,1.378
39.2502,1.344
39.2512,1.332
39.2512,1.314
39.2512,1.339
39.2512,1.398
39.2512,1.438
39.2512,1.495
39.2512,1.576
39.2512,1.618
39.2522,1.599
39.2522,1.536
39.2522,1.5
39.2522,1.471
39.2522,1.453
39.2522,1.398
39.2522,1.367
39.2532,1.316
39.2532,1.337
39.2532,1.379
39.2532,1.412
39.2532,1.449
39.2532,1.511
39.2542,1.643
39.2542,1.626
39.2542,1.59
39.2542,1.562
39.2542,1.52
39.2542,1.455
39.2542,1.397
39.2552,1.384
39.2552,1.349
39.2552,1.316
39.2552,1.337
39.2552,1.413
39.2562,1.442
39.2562,1.5
39.2562,1.588
39.2562,1.65
39.2562,1.627
39.2562,1.556
39.2562,1.521
39.2572,1.478
39.2572,1.444
39.2572,1.392
39.2572,1.37
39.2572,1.305
39.2572,1.324
39.2572,1.361
39.2582,1.399
39.2582,1.433
39.2582,1.492
39.2582,1.646
39.2582,1.633
39.2582,1.585
39.2582,1.558
39.2592,1.526
39.2592,1.491
39.2592,1.397
39.2592,1.378
39.2592,1.334
39.2592,1.32
39.2602,1.342
39.2602,1.375
39.2602,1.447
39.2602,1.502
39.2602,1.575
39.2602,1.618
39.2602,1.631
39.2612,1.558
39.2612,1.519
39.2612,1.48
39.2612,1.458
39.2612,1.395
39.2612,1.348
39.2622,1.323
39.2622,1.33
39.2622,1.361
39.2622,1.388
39.2622,1.415
39.2622,1.466
39.2632,1.61
39.2632,1.599
39.2632,1.551
39.2632,1.52
39.2632,1.488
39.2632,1.447
39.2632,1.363
39.2632,1.335
39.2662,1.325
39.2672,1.286
39.2722,1.295
39.2732,1.328
39.2781,1.405
39.2791,1.516
40.1189,1.598
40.1189,1.561
40.1189,1.533
40.1189,1.499
40.1189,1.472
40.1189,1.443
40.1189,1.377
40.1199,1.343
40.1199,1.321
40.1199,1.325
40.1199,1.361
40.1199,1.399
40.1199,1.43
40.1199,1.557
40.1209,1.646
40.1209,1.633
40.1209,1.589
40.1209,1.558
40.1209,1.521
40.1209,1.448
40.1209,1.403
40.1219,1.371
40.1219,1.341
40.1219,1.318
40.1219,1.33
40.1219,1.395
40.1219,1.43
40.1219,1.484
40.1219,1.551
40.1229,1.62
40.1229,1.635
40.1229,1.555
40.1229,1.521
40.1229,1.481
40.1229,1.441
40.1229,1.396
40.1239,1.372
40.1239,1.323
40.1239,1.338
40.1239,1.371
40.1239,1.411
40.1239,1.451
40.1249,1.499
40.1249,1.627
40.1249,1.663
40.1249,1.611
40.1249,1.578
40.1249,1.544
40.1249,1.513
40.1259,1.426
40.1259,1.383
40.1259,1.378
40.1259,1.346
40.1259,1.342
40.1259,1.373
40.1269,1.448
40.1269,1.491
40.1269,1.556
40.1269,1.658
40.1269,1.653
40.1269,1.609
40.1269,1.543
40.1269,1.509
40.1279,1.472
40.1279,1.417
40.1279,1.391
40.1279,1.375
40.1279,1.34
40.1279,1.37
40.1279,1.409
40.1289,1.447
40.1289,1.484
40.1289,1.55
40.1289,1.623
40.1289,1.563
40.1289,1.527
40.1289,1.486
40.1299,1.449
40.1299,1.379
40.1299,1.322
40.1299,1.277
40.1299,1.257
40.1299,1.24
40.1299,1.236
40.1309,1.234
40.1309,1.235
40.1309,1.235
40.1309,1.243
40.1309,1.243
40.1309,1.236
40.1309,1.232
40.1319,1.23
40.1319,1.233
40.1319,1.264
40.1319,1.405
40.1319,1.487
40.1319,1.451
40.1319,1.537
40.1328,1.697
40.1328,1.819
40.1328,1.928
40.1328,2.151
40.1328,2.325
40.1328,2.338
40.1328,2.273
40.1328,2.242
40.1338,2.187
40.1338,2.115
40.1338,2.033
40.1338,1.949
40.1338,1.886
40.1338,1.84
40.1348,1.835
40.1348,1.833
40.1348,1.831
40.1348,1.856
40.1348,1.898
40.1348,1.89
40.1348,1.803
40.1358,1.728
40.1358,1.665
40.1358,1.565
40.1358,1.505
40.1358,1.432
40.1358,1.424
40.1358,1.383
40.1368,1.366
40.1368,1.432
40.1368,1.463
40.1368,1.499
40.1368,1.567
40.1368,1.653
40.1368,1.662
40.1368,1.597
40.1378,1.552
40.1378,1.505
40.1378,1.474
40.1378,1.435
40.1378,1.375
40.1378,1.333
40.1378,1.313
40.1388,1.335
40.1388,1.371
40.1388,1.408
40.1388,1.447
40.1388,1.503
40.1388,1.618
40.1388,1.595
40.1398,1.555
40.1398,1.514
40.1398,1.484
40.1398,1.409
40.1398,1.347
40.1398,1.347
40.1398,1.32
40.1398,1.294
40.1408,1.316
40.1408,1.354
40.1408,1.417
40.1408,1.477
40.1408,1.58
40.1408,1.606
40.1408,1.577
40.1418,1.535
40.1418,1.474
40.1418,1.442
40.1418,1.403
40.1418,1.36
40.1418,1.341
40.1428,1.31
40.1428,1.314
40.1428,1.356
40.1428,1.387
40.1428,1.419
40.1428,1.482
40.1428,1.566
40.1438,1.585
40.1458,1.544
40.1468,1.511
40.1508,1.478
40.1518,1.447
40.1558,1.416
40.1568,1.332
40.1578,1.318
40.1608,1.299
40.1608,1.315
40.1608,1.346
40.1608,1.389
40.1608,1.426
40.1618,1.556
40.1618,1.595
40.1618,1.599
40.1618,1.553
40.1618,1.522
40.1618,1.45
40.1618,1.435
40.1618,1.364
40.1628,1.328
40.1628,1.307
40.1628,1.294
40.1628,1.34
40.1628,1.376
40.1628,1.417
40.1628,1.478
40.1638,1.542
40.1638,1.584
40.1638,1.545
40.1638,1.514
40.1638,1.482
40.1638,1.447
40.1638,1.429
40.1648,1.368
40.1648,1.317
40.1648,1.301
40.1648,1.327
40.1648,1.357
40.1648,1.389
40.1648,1.417
40.1648,1.561
40.1658,1.598
40.1658,1.588
40.1658,1.549
40.1658,1.517
40.1658,1.477
40.1658,1.402
40.1658,1.353
40.1668,1.332
40.1668,1.295
40.1668,1.278
40.1668,1.29
40.1668,1.355
40.1668,1.383
40.1668,1.435
40.1678,1.511
40.1678,1.578
40.1678,1.554
40.1678,1.472
40.1678,1.434
40.1678,1.389
40.1678,1.369
40.1678,1.301
40.1688,1.271
40.1688,1.256
40.1688,1.26
40.1688,1.272
40.1688,1.297
40.1688,1.327
40.1688,1.375
40.1698,1.502
40.1698,1.511
40.1698,1.464
40.1698,1.432
40.1698,1.397
40.1698,1.359
40.1698,1.285
40.1708,1.266
40.1708,1.256
40.1708,1.249
40.1708,1.252
40.1708,1.263
40.1708,1.311
40.1708,1.362
40.1718,1.449
40.1718,1.499
40.1718,1.499
40.1718,1.46
40.1718,1.394
40.1718,1.359
40.1718,1.33
40.1728,1.285
40.1728,1.283
40.1728,1.271
40.1728,1.257
40.1728,1.277
40.1728,1.306
40.1728,1.341
40.1728,1.388
40.1738,1.464
40.1738,1.559
40.1738,1.508
40.1738,1.486
40.1738,1.452
40.1738,1.424
40.1738,1.398
40.1748,1.32
40.1748,1.304
40.1748,1.285
40.1757,1.292
40.1757,1.331
40.1767,1.366
40.1767,1.46
40.1777,1.556
40.1777,1.631
40.1777,1.645
40.1777,1.6
40.1777,1.579
40.1777,1.514
40.1788,1.488
40.1788,1.443
40.1788,1.412
40.1788,1.379
40.1788,1.359
40.1788,1.407
40.1788,1.45
40.1788,1.495
40.1798,1.549
40.1798,1.619
40.1798,1.684
40.1798,1.671
40.1798,1.638
40.1798,1.6
40.1798,1.564
40.1808,1.543
40.1808,1.488
40.1808,1.42
40.1808,1.416
40.1808,1.413
40.1808,1.443
40.1808,1.484
40.1818,1.565
40.1818,1.628
40.1818,1.711
40.1818,1.733
40.1818,1.678
40.1818,1.645
40.1818,1.571
40.1818,1.547
40.1827,1.491
40.1827,1.446
40.1827,1.421
40.1827,1.422
40.1827,1.458
40.1827,1.494
40.1827,1.533
40.1837,1.58
40.1837,1.642
40.1837,1.722
40.1837,1.693
40.1837,1.666
40.1837,1.63
40.1837,1.591
40.1847,1.556
40.1847,1.465
40.1847,1.436
40.1847,1.416
40.1847,1.424
40.1847,1.459
40.1847,1.496
40.1857,1.569
40.1857,1.643
40.1857,1.734
40.1857,1.732
40.1857,1.698
40.1857,1.665
40.1857,1.593
40.1867,1.561
40.1867,1.504
40.1867,1.463
40.1867,1.459
40.1867,1.429
40.1867,1.448
40.1867,1.487
40.1877,1.524
40.1877,1.567
40.1877,1.633
40.1877,1.73
40.1877,1.705
40.1877,1.67
40.1877,1.637
40.1887,1.602
40.1887,1.566
40.1887,1.442
40.1887,1.437
40.1887,1.427
40.1887,1.415
40.1887,1.45
40.1887,1.501
40.1897,1.591
40.1897,1.642
40.1897,1.718
40.1897,1.759
40.1897,1.717
40.1897,1.68
40.1897,1.612
40.1907,1.579
40.1907,1.523
40.1907,1.487
40.1907,1.463
40.1907,1.432
40.1907,1.468
40.1907,1.502
40.1917,1.538
40.1917,1.577
40.1917,1.655
40.1917,1.759
40.1917,1.718
40.1917,1.689
40.1917,1.652
40.1927,1.613
40.1927,1.593
40.1927,1.503
40.1938,1.457
40.1938,1.458
40.1938,1.437
40.1938,1.464
40.1947,1.506
40.1947,1.583
40.1947,1.641
40.1947,1.72
40.1947,1.769
40.1947,1.724
40.1947,1.682
40.1957,1.626
40.1957,1.608
40.1957,1.568
40.1957,1.506
40.1957,1.479
40.1957,1.454
40.1957,1.48
40.1967,1.517
40.1967,1.553
40.1967,1.59
40.1967,1.663
40.1967,1.766
40.1967,1.745
40.1967,1.718
40.1967,1.689
40.1977,1.652
40.1977,1.618
40.1977,1.532
40.1977,1.513
40.1977,1.477
40.1977,1.465
40.1977,1.489
40.1987,1.531
40.1987,1.602
40.1987,1.663
40.1987,1.743
40.1987,1.806
40.1987,1.772
40.1987,1.696
40.1997,1.656
40.1997,1.622
40.1997,1.572
40.1997,1.534
40.1997,1.515
40.1997,1.466
40.1997,1.487
40.1997,1.528
40.2007,1.562
40.2007,1.6
40.2007,1.664
40.2007,1.801
40.2007,1.753
40.2007,1.72
40.2007,1.683
40.2017,1.647
40.2017,1.618
40.2017,1.523
40.2017,1.494
40.2017,1.501
40.2017,1.474
40.2017,1.496
40.2027,1.532
40.2027,1.609
40.2027,1.661
40.2027,1.744
40.2027,1.77
40.2027,1.771
40.2027,1.688
40.2037,1.646
40.2037,1.61
40.2037,1.587
40.2037,1.522
40.2037,1.48
40.2037,1.448
40.2047,1.479
40.2047,1.512
40.2047,1.544
40.2047,1.578
40.2047,1.633
40.2047,1.767
40.2047,1.742
40.2057,1.707
40.2057,1.673
40.2057,1.642
40.2057,1.611
40.2057,1.519
40.2057,1.516
40.2067,1.509
40.2067,1.468
40.2067,1.498
40.2067,1.533
40.2067,1.607
40.2067,1.669
40.2067,1.79
40.2067,1.751
40.2076,1.715
40.2076,1.678
40.2076,1.648
40.2076,1.632
40.2076,1.568
40.2076,1.512
40.2076,1.497
40.2086,1.527
40.2086,1.558
40.2086,1.59
40.2086,1.629
40.2086,1.779
40.2096,1.811
40.2096,1.807
40.2096,1.774
40.2096,1.744
40.2096,1.711
40.2096,1.64
40.2096,1.582
40.2106,1.576
40.2106,1.553
40.2106,1.514
40.2106,1.574
40.2106,1.614
40.2106,1.649
40.2106,1.705
40.2116,1.79
40.2116,1.831
40.2116,1.79
40.2116,1.763
40.2116,1.727
40.2116,1.686
40.2116,1.65
40.2126,1.592
40.2126,1.55
40.2126,1.516
40.2126,1.532
40.2126,1.564
40.2126,1.606
40.2126,1.646
40.2126,1.777
40.2136,1.853
40.2136,1.838
40.2136,1.795
40.2136,1.766
40.2136,1.698
40.2136,1.67
40.2146,1.603
40.2146,1.567
40.2146,1.548
40.2146,1.534
40.2146,1.579
40.2146,1.616
40.2146,1.651
40.2156,1.708
40.2156,1.78
40.2156,1.841
40.2156,1.809
40.2156,1.778
40.2156,1.737
40.2156,1.681
40.2166,1.635
40.2166,1.579
40.2166,1.51
40.2166,1.477
40.2166,1.497
40.2166,1.52
40.2166,1.535
40.2176,1.545
40.2176,1.572
40.2176,1.591
40.2176,1.511
40.2176,1.442
40.2176,1.367
40.2176,1.256
40.2186,1.241
40.2186,1.234
40.2186,1.232
40.2186,1.235
40.2186,1.235
40.2186,1.475
40.2186,1.694
40.2196,1.778
40.2196,1.801
40.2196,1.916
40.2196,2.064
40.2196,2.253
40.2196,2.339
40.2196,2.427
40.2196,2.433
40.2206,2.429
40.2206,2.346
40.2206,2.258
40.2206,2.214
40.2206,2.179
40.2206,2.196
40.2206,2.222
40.2216,2.233
40.2216,2.282
40.2216,2.305
40.2216,2.277
40.2216,2.202
40.2216,2.145
40.2216,2.067
40.2226,1.902
40.2226,1.824
40.2226,1.732
40.2226,1.686
40.2226,1.645
40.2226,1.647
40.2226,1.679
40.2226,1.701
40.2236,1.754
40.2236,1.811
40.2236,1.882
40.2236,1.885
40.2236,1.813
40.2246,1.769
40.2246,1.728
40.2246,1.682
40.2246,1.628
40.2246,1.589
40.2246,1.508
40.2246,1.507
40.2256,1.547
40.2256,1.591
40.2256,1.628
40.2256,1.674
40.2256,1.837
40.2266,1.833
40.2266,1.787
40.2266,1.757
40.2266,1.716
40.2266,1.68
40.2266,1.656
40.2266,1.552
40.2266,1.512
40.2276,1.506
40.2276,1.508
40.2276,1.534
40.2276,1.606
40.2276,1.659
40.2276,1.722
40.2276,1.805
40.2286,1.805
40.2286,1.781
40.2286,1.715
40.2286,1.68
40.2286,1.649
40.2286,1.606
40.2286,1.553
40.2296,1.514
40.2296,1.5
40.2296,1.539
40.2296,1.569
40.2296,1.604
40.2296,1.647
40.2296,1.716
40.2306,1.817
40.2306,1.782
40.2306,1.746
40.2306,1.711
40.2306,1.67
40.2306,1.632
41.0289,1.539
41.0300,1.532
41.0300,1.511
41.0310,1.506
41.0310,1.538
41.0310,1.575
41.0319,1.606
41.0319,1.708
41.0329,1.784
41.0329,1.814
41.0329,1.791
41.0339,1.759
41.0349,1.723
41.0349,1.655
41.0359,1.62
41.0359,1.562
41.0369,1.527
41.0369,1.509
41.0379,1.536
41.0379,1.57
41.0379,1.602
41.0379,1.646
41.0389,1.715
41.0389,1.801
41.0389,1.791
41.0389,1.755
41.0399,1.718
41.0399,1.683
41.0399,1.653
41.0399,1.614
41.0409,1.548
41.0409,1.504
41.0409,1.49
41.0409,1.514
41.0419,1.551
41.0419,1.59
41.0429,1.69
41.0429,1.773
41.0439,1.798
41.0439,1.789
41.0439,1.743
41.0449,1.706
41.0449,1.635
41.0449,1.603
41.0449,1.533
41.0449,1.492
41.0449,1.487
41.0459,1.465
41.0459,1.524
41.0459,1.561
41.0459,1.602
41.0459,1.661
41.0469,1.744
41.0469,1.763
41.0469,1.706
41.0469,1.666
41.0469,1.626
41.0479,1.585
41.0479,1.551
41.0479,1.491
41.0479,1.431
41.0479,1.41
41.0489,1.441
41.0489,1.471
41.0489,1.502
41.0489,1.59
41.0489,1.69
41.0489,1.708
41.0489,1.678
41.0498,1.635
41.0498,1.596
41.0498,1.518
41.0498,1.474
41.0498,1.407
41.0498,1.402
41.0508,1.395
41.0508,1.369
41.0508,1.44
41.0508,1.479
41.0508,1.517
41.0518,1.573
41.0518,1.644
41.0518,1.69
41.0518,1.638
41.0518,1.603
41.0518,1.565
41.0518,1.532
41.0528,1.505
41.0528,1.438
41.0528,1.387
41.0528,1.375
41.0528,1.401
41.0528,1.44
41.0528,1.475
41.0538,1.583
41.0538,1.655
41.0538,1.707
41.0538,1.691
41.0538,1.663
41.0538,1.637
41.0548,1.566
41.0548,1.545
41.0548,1.495
41.0548,1.469
41.0548,1.44
41.0548,1.426
41.0548,1.496
41.0558,1.539
41.0558,1.583
41.0558,1.647
41.0558,1.729
41.0558,1.802
41.0558,1.758
41.0558,1.736
41.0558,1.704
41.0568,1.67
41.0568,1.651
41.0568,1.578
41.0568,1.559
41.0568,1.535
41.0568,1.56
41.0568,1.601
41.0578,1.641
41.0578,1.751
41.0578,1.82
41.0578,1.876
41.0578,1.873
41.0578,1.838
41.0578,1.813
41.0588,1.741
41.0588,1.716
41.0588,1.665
41.0588,1.631
41.0588,1.603
41.0588,1.583
41.0598,1.65
41.0598,1.684
41.0598,1.721
41.0598,1.774
41.0608,1.863
41.0608,1.92
41.0608,1.861
41.0608,1.828
41.0608,1.795
41.0608,1.753
41.0608,1.715
41.0618,1.658
41.0618,1.65
41.0618,1.603
41.0618,1.617
41.0618,1.651
41.0618,1.69
41.0618,1.735
41.0628,1.849
41.0628,1.913
41.0628,1.927
41.0628,1.877
41.0628,1.844
41.0628,1.774
41.0628,1.751
41.0628,1.687
41.0638,1.639
41.0638,1.616
41.0638,1.601
41.0638,1.646
41.0638,1.687
41.0638,1.726
41.0638,1.783
41.0648,1.855
41.0648,1.918
41.0648,1.874
41.0648,1.844
41.0648,1.806
41.0648,1.766
41.0648,1.73
41.0658,1.68
41.0658,1.627
41.0658,1.59
41.0658,1.614
41.0658,1.649
41.0658,1.689
41.0658,1.77
41.0668,1.849
41.0668,1.935
41.0668,1.914
41.0668,1.873
41.0668,1.85
41.0668,1.772
41.0678,1.745
41.0678,1.694
41.0678,1.641
41.0678,1.609
41.0678,1.601
41.0678,1.653
41.0678,1.685
41.0688,1.726
41.0688,1.772
41.0688,1.847
41.0688,1.919
41.0688,1.877
41.0688,1.85
41.0688,1.811
41.0698,1.771
41.0698,1.742
41.0698,1.658
41.0698,1.618
41.0698,1.595
41.0698,1.611
41.0698,1.642
41.0708,1.672
41.0708,1.753
41.0708,1.836
41.0708,1.933
41.0708,1.941
41.0708,1.892
41.0708,1.864
41.0708,1.791
41.0718,1.754
41.0718,1.701
41.0718,1.669
41.0718,1.655
41.0718,1.611
41.0718,1.651
41.0718,1.695
41.0728,1.725
41.0728,1.769
41.0728,1.841
41.0728,1.964
41.0728,1.901
41.0728,1.865
41.0728,1.828
41.0738,1.797
41.0738,1.769
41.0738,1.657
41.0738,1.656
41.0738,1.631
41.0738,1.627
41.0738,1.655
41.0748,1.695
41.0748,1.787
41.0748,1.84
41.0748,1.926
41.0748,1.958
41.0748,1.903
41.0748,1.877
41.0758,1.805
41.0758,1.782
41.0758,1.738
41.0758,1.678
41.0758,1.652
41.0758,1.641
41.0768,1.673
41.0768,1.71
41.0768,1.745
41.0768,1.8
41.0768,1.859
41.0768,1.96
41.0768,1.906
41.0768,1.885
41.0778,1.854
41.0778,1.813
41.0778,1.783
41.0778,1.69
41.0778,1.65
41.0778,1.644
41.0788,1.648
41.0788,1.681
41.0788,1.715
41.0788,1.803
41.0788,1.853
41.0788,1.949
41.0788,1.978
41.0798,1.927
41.0798,1.853
41.0798,1.815
41.0798,1.794
41.0798,1.741
41.0798,1.686
41.0798,1.661
41.0808,1.643
41.0808,1.669
41.0808,1.7
41.0808,1.738
41.0808,1.8
41.0808,1.863
41.0808,1.972
41.0808,1.937
41.0818,1.905
41.0818,1.867
41.0818,1.834
41.0818,1.807
41.0818,1.701
41.0818,1.685
41.0818,1.659
41.0828,1.651
41.0828,1.68
41.0828,1.712
41.0828,1.786
41.0828,1.856
41.0828,1.922
41.0838,1.952
41.0838,1.924
41.0838,1.856
41.0838,1.823
41.0838,1.794
41.0838,1.759
41.0838,1.707
41.0848,1.671
41.0848,1.64
41.0848,1.665
41.0848,1.698
41.0848,1.73
41.0848,1.776
41.0848,1.838
41.0858,1.947
41.0858,1.907
41.0858,1.877
41.0858,1.847
41.0858,1.817
41.0858,1.779
41.0858,1.686
41.0868,1.663
41.0868,1.63
41.0868,1.618
41.0868,1.648
41.0868,1.715
41.0868,1.749
41.0868,1.818
41.0878,1.921
41.0878,1.951
41.0878,1.823
41.0878,1.795
41.0878,1.764
41.0878,1.716
41.0878,1.665
41.0878,1.648
41.0888,1.62
41.0888,1.646
41.0888,1.695
41.0888,1.733
41.0888,1.775
41.0888,1.934
41.0888,1.994
41.0898,1.951
41.0898,1.905
41.0898,1.875
41.0898,1.803
41.0898,1.769
41.0898,1.72
41.0898,1.686
41.0908,1.653
41.0908,1.642
41.0908,1.718
41.0908,1.751
41.0908,1.785
41.0908,1.852
41.0908,1.938
41.0908,1.98
41.0918,1.929
41.0918,1.893
41.0918,1.853
41.0918,1.817
41.0918,1.79
41.0927,1.733
41.0927,1.682
41.0927,1.658
41.0927,1.687
41.0927,1.725
41.0927,1.766
41.0927,1.796
41.0938,1.964
41.0938,1.985
41.0938,1.977
41.0938,1.934
41.0938,1.901
41.0938,1.832
41.0948,1.799
41.0948,1.745
41.0948,1.728
41.0948,1.696
41.0948,1.669
41.0948,1.735
41.0948,1.76
41.0958,1.799
41.0958,1.865
41.0958,1.95
41.0958,1.983
41.0958,1.932
41.0958,1.893
41.0968,1.853
41.0968,1.821
41.0968,1.784
41.0968,1.739
41.0968,1.693
41.0968,1.669
41.0968,1.697
41.0968,1.742
41.0978,1.766
41.0978,1.802
41.0978,1.965
41.0978,2.017
41.0978,1.988
41.0978,1.951
41.0978,1.914
41.0988,1.874
41.0988,1.749
41.0988,1.713
41.0988,1.701
41.0988,1.675
41.0988,1.629
41.0997,1.679
41.0997,1.696
41.0997,1.704
41.0997,1.728
41.0997,1.762
41.0997,1.773
41.0997,1.638
41.0997,1.595
41.1007,1.511
41.1007,1.437
41.1007,1.37
41.1007,1.322
41.1007,1.293
41.1007,1.309
41.1007,1.55
41.1017,1.822
41.1017,1.937
41.1017,1.938
41.1017,2.05
41.1017,2.221
41.1017,2.352
41.1017,2.415
41.1027,2.568
41.1027,2.611
41.1027,2.511
41.1027,2.425
41.1027,2.374
41.1027,2.341
41.1027,2.296
41.1037,2.302
41.1037,2.315
41.1037,2.327
41.1037,2.345
41.1037,2.387
41.1037,2.39
41.1037,2.374
41.1047,2.233
41.1047,2.15
41.1047,2.064
41.1047,2.002
41.1047,1.909
41.1047,1.836
41.1047,1.731
41.1057,1.734
41.1057,1.756
41.1057,1.77
41.1057,1.801
41.1057,1.855
41.1057,2.01
41.1057,1.998
41.1057,1.957
41.1067,1.927
41.1067,1.882
41.1067,1.843
41.1067,1.742
41.1067,1.721
41.1067,1.694
41.1067,1.643
41.1077,1.654
41.1077,1.691
41.1077,1.763
41.1077,1.8
41.1077,1.876
41.1077,1.966
41.1077,1.961
41.1087,1.896
41.1087,1.826
41.1087,1.796
41.1087,1.772
41.1087,1.702
41.1097,1.661
41.1097,1.658
41.1097,1.629
41.1097,1.658
41.1097,1.695
41.1097,1.729
41.1097,1.785
41.1107,1.847
41.1107,1.939
41.1107,1.877
41.1107,1.859
41.1107,1.816
41.1107,1.778
41.1107,1.747
41.1107,1.65
41.1117,1.633
41.1117,1.607
41.1117,1.614
41.1117,1.655
41.1117,1.697
41.1117,1.778
41.1117,1.847
41.1127,1.901
41.1127,1.936
41.1127,1.886
41.1127,1.861
41.1127,1.787
41.1127,1.761
41.1127,1.685
41.1137,1.653
41.1137,1.64
41.1137,1.618
41.1137,1.639
41.1137,1.682
41.1137,1.725
41.1147,1.767
41.1147,1.819
41.1147,1.919
41.1147,1.876
41.1147,1.849
41.1147,1.809
41.1157,1.775
41.1157,1.749
41.1157,1.693
41.1157,1.616
41.1157,1.597
41.1157,1.599
41.1157,1.625
41.1157,1.666
41.1167,1.697
41.1167,1.805
41.1167,1.896
41.1167,1.919
41.1167,1.869
41.1167,1.839
41.1167,1.76
41.1177,1.739
41.1177,1.692
41.1177,1.631
41.1177,1.597
41.1177,1.574
41.1177,1.614
41.1177,1.647
41.1187,1.675
41.1187,1.717
41.1187,1.787
41.1187,1.867
41.1187,1.837
41.1187,1.802
41.1187,1.77
41.1197,1.735
41.1197,1.69
41.1197,1.646
41.1197,1.583
41.1197,1.545
41.1197,1.545
41.1197,1.573
41.1207,1.603
41.1207,1.627
41.1207,1.74
41.1207,1.832
41.1207,1.85
41.1207,1.798
41.1207,1.757
41.1207,1.715
41.1217,1.647
41.1217,1.575
41.1217,1.529
41.1217,1.516
41.1217,1.474
41.1217,1.496
41.1217,1.53
41.1227,1.571
41.1227,1.601
41.1227,1.657
41.1227,1.746
41.1227,1.726
41.1227,1.685
41.1227,1.646
41.1237,1.608
41.1237,1.575
41.1256,1.529
41.1266,1.46
41.1306,1.414
41.1356,1.41
41.1366,1.444
41.1396,1.476
41.1396,1.523
41.1396,1.619
41.1396,1.711
41.1406,1.718
41.1406,1.702
41.1406,1.676
41.1406,1.608
41.1406,1.579
41.1406,1.539
41.1406,1.485
41.1406,1.445
41.1416,1.439
41.1416,1.454
41.1416,1.495
41.1416,1.541
41.1416,1.583
41.1416,1.647
41.1426,1.723
41.1426,1.746
41.1426,1.714
41.1436,1.689
41.1436,1.652
41.1436,1.615
41.1436,1.595
41.1446,1.503
41.1446,1.509
41.1446,1.496
41.1446,1.534
41.1446,1.575
41.1446,1.67
41.1446,1.736
41.1446,1.838
41.1456,1.861
41.1456,1.84
41.1456,1.817
41.1456,1.752
41.1456,1.723
41.1466,1.699
41.1466,1.652
41.1466,1.638
41.1466,1.6
41.1466,1.634
41.1466,1.675
41.1466,1.722
41.1466,1.763
41.1476,1.823
41.1476,1.927
41.1476,1.947
41.1476,1.911
41.1476,1.891
41.1476,1.844
41.1486,1.809
41.1486,1.714
41.1486,1.716
41.1486,1.705
41.1486,1.667
41.1486,1.691
41.1486,1.733
41.1486,1.803
41.1496,1.873
41.1496,1.938
41.1496,2.006
41.1496,1.995
41.1496,1.937
41.1496,1.867
41.1496,1.831
41.1506,1.792
41.1506,1.73
41.1506,1.724
41.1506,1.71
41.1506,1.703
41.1506,1.735
41.1506,1.775
41.1516,1.804
41.9402,1.87
41.9411,1.957
41.9411,1.975
41.9411,1.938
41.9421,1.905
41.9421,1.864
41.9431,1.821
41.9431,1.732
41.9441,1.718
41.9441,1.676
41.9451,1.656
41.9451,1.682
41.9451,1.721
41.9451,1.796
41.9461,1.846
41.9461,1.928
41.9461,1.987
41.9471,1.982
41.9471,1.928
41.9481,1.851
41.9481,1.83
41.9491,1.791
41.9491,1.719
41.9491,1.704
41.9491,1.66
41.9501,1.685
41.9501,1.713
41.9501,1.748
41.9511,1.788
41.9511,1.856
41.9511,1.926
41.9511,1.956
41.9521,1.925
41.9521,1.9
41.9521,1.853
41.9521,1.816
41.9531,1.725
41.9531,1.7
41.9531,1.666
41.9531,1.645
41.9541,1.679
41.9541,1.718
41.9551,1.78
41.9551,1.833
41.9551,1.929
41.9551,1.988
41.9561,1.962
41.9561,1.926
41.9561,1.858
41.9571,1.822
41.9571,1.786
41.9571,1.717
41.9571,1.693
41.9581,1.65
41.9581,1.671
41.9581,1.703
41.9591,1.75
41.9591,1.78
41.9591,1.833
41.9591,1.976
41.9601,1.988
41.9601,1.936
41.9601,1.902
41.9601,1.867
41.9601,1.84
41.9611,1.733
41.9611,1.69
41.9611,1.689
41.9611,1.662
41.9611,1.675
41.9621,1.706
41.9621,1.782
41.9621,1.844
41.9621,1.928
41.9621,1.997
41.9631,1.999
41.9631,1.95
41.9631,1.876
41.9631,1.843
41.9631,1.806
41.9631,1.735
41.9641,1.71
41.9641,1.661
41.9641,1.677
41.9641,1.72
41.9641,1.76
41.9641,1.791
41.9651,1.844
41.9651,2.015
41.9651,1.992
41.9651,1.946
41.9651,1.924
41.9651,1.885
41.9661,1.847
41.9661,1.745
41.9661,1.698
41.9661,1.701
41.9661,1.676
41.9661,1.679
41.9661,1.718
41.9671,1.8
41.9671,1.849
41.9671,1.922
41.9671,1.987
41.9671,1.998
41.9671,1.963
41.9681,1.877
41.9681,1.848
41.9681,1.826
41.9681,1.764
41.9681,1.716
41.9681,1.675
41.9690,1.688
41.9690,1.72
41.9690,1.752
41.9690,1.788
41.9690,1.845
41.9690,1.998
41.9690,1.991
41.9690,1.947
41.9700,1.919
41.9700,1.881
41.9700,1.842
41.9700,1.76
41.9700,1.731
41.9700,1.701
41.9700,1.676
41.9710,1.685
41.9710,1.715
41.9710,1.787
41.9710,1.828
41.9710,1.896
41.9710,2.01
41.9710,2.009
41.9720,1.924
41.9720,1.883
41.9720,1.848
41.9720,1.813
41.9720,1.75
41.9720,1.701
41.9720,1.679
41.9720,1.667
41.9730,1.695
41.9730,1.726
41.9730,1.769
41.9730,1.816
41.9730,1.948
41.9730,1.98
41.9730,1.93
41.9740,1.9
41.9740,1.863
41.9740,1.826
41.9740,1.739
41.9740,1.68
41.9740,1.673
41.9750,1.652
41.9750,1.636
41.9750,1.668
41.9750,1.742
41.9750,1.781
41.9760,1.846
41.9760,1.952
41.9760,1.991
41.9760,1.891
41.9760,1.863
41.9760,1.792
41.9760,1.756
41.9770,1.673
41.9770,1.661
41.9770,1.663
41.9770,1.716
41.9770,1.724
41.9770,1.833
41.9770,1.898
41.9770,1.977
41.9780,1.996
41.9780,1.957
41.9780,1.919
41.9780,1.856
41.9780,1.822
41.9780,1.776
41.9780,1.732
41.9790,1.694
41.9790,1.671
41.9790,1.704
41.9790,1.752
41.9790,1.782
41.9790,1.825
41.9790,1.891
41.9800,1.986
41.9800,1.97
41.9800,1.939
41.9800,1.907
41.9800,1.87
41.9800,1.836
41.9800,1.778
41.9800,1.709
41.9810,1.707
41.9810,1.688
41.9810,1.714
41.9810,1.752
41.9810,1.842
41.9810,1.899
41.9810,1.987
41.9820,2.009
41.9820,1.98
41.9820,1.942
41.9820,1.871
41.9820,1.83
41.9820,1.79
41.9820,1.739
41.9830,1.705
41.9830,1.693
41.9830,1.716
41.9830,1.753
41.9830,1.789
41.9830,1.829
41.9830,1.898
41.9830,2.007
41.9840,1.982
41.9840,1.946
41.9840,1.904
41.9840,1.872
41.9840,1.838
41.9840,1.74
41.9850,1.731
41.9850,1.711
41.9850,1.683
41.9850,1.712
41.9850,1.748
41.9850,1.841
41.9850,1.893
41.9860,1.994
41.9860,2.031
41.9860,1.977
41.9860,1.928
41.9860,1.855
41.9860,1.813
41.9860,1.781
41.9870,1.732
41.9870,1.701
41.9870,1.64
41.9870,1.609
41.9870,1.603
41.9870,1.619
41.9870,1.62
41.9880,1.649
41.9880,1.704
41.9880,1.699
41.9880,1.627
41.9880,1.574
41.9880,1.518
41.9880,1.516
41.9890,1.69
41.9890,1.848
41.9890,1.939
41.9890,1.908
41.9890,1.923
41.9890,1.929
41.9890,2.118
41.9900,2.286
41.9900,2.524
41.9900,2.597
41.9900,2.615
41.9900,2.614
41.9900,2.493
41.9910,2.424
41.9910,2.392
41.9910,2.322
41.9910,2.294
41.9910,2.255
41.9910,2.181
41.9910,2.176
41.9920,2.178
41.9920,2.169
41.9920,2.198
41.9920,2.252
41.9920,2.223
41.9920,2.148
41.9930,2.072
41.9930,2.0
41.9930,1.934
41.9930,1.871
41.9930,1.747
41.9930,1.729
41.9930,1.68
41.9930,1.713
41.9940,1.75
41.9940,1.785
41.9940,1.857
41.9940,1.942
41.9940,2.002
41.9940,1.976
41.9950,1.919
41.9950,1.882
41.9950,1.809
41.9950,1.76
41.9950,1.686
41.9950,1.667
41.9950,1.652
41.9960,1.623
41.9960,1.679
41.9960,1.713
41.9960,1.758
41.9960,1.808
41.9960,1.879
41.9960,1.954
41.9970,1.889
41.9970,1.846
41.9970,1.801
41.9970,1.773
41.9970,1.748
41.9970,1.671
41.9970,1.638
41.9970,1.597
41.9980,1.624
41.9980,1.663
41.9980,1.697
41.9980,1.725
41.9980,1.869
41.9980,1.912
41.9980,1.908
41.9990,1.871
41.9990,1.847
41.9990,1.809
41.9990,1.724
41.9990,1.674
41.9990,1.653
41.9990,1.613
42.0000,1.588
42.0000,1.609
42.0000,1.685
42.0000,1.722
42.0000,1.772
42.0000,1.838
42.0000,1.922
42.0000,1.921
42.0010,1.835
42.0010,1.793
42.0010,1.759
42.0010,1.723
42.0010,1.66
42.0010,1.627
42.0010,1.582
42.0020,1.597
42.0020,1.633
42.0020,1.665
42.0020,1.708
42.0020,1.772
42.0020,1.906
42.0020,1.907
42.0030,1.851
42.0030,1.812
42.0030,1.779
42.0030,1.748
42.0030,1.64
42.0030,1.612
42.0030,1.587
42.0040,1.566
42.0040,1.584
42.0059,1.613
42.0109,1.695
42.0119,1.754
42.0159,1.809
42.0169,1.87
42.0189,1.894
42.0189,1.818
42.0199,1.777
42.0199,1.734
42.0199,1.707
42.0199,1.655
42.0209,1.603
42.0209,1.558
42.0209,1.569
42.0209,1.599
42.0209,1.628
42.0209,1.663
42.0219,1.712
42.0219,1.853
42.0219,1.852
42.0219,1.807
42.0219,1.775
42.0219,1.735
42.0219,1.693
42.0229,1.605
42.0229,1.559
42.0229,1.532
42.0229,1.497
42.0229,1.514
42.0229,1.545
42.0229,1.611
42.0239,1.658
42.0239,1.73
42.0239,1.794
42.0239,1.784
42.0239,1.711
42.0239,1.665
42.0239,1.626
42.0249,1.599
42.0249,1.53
42.0249,1.474
42.0249,1.445
42.0249,1.434
42.0249,1.459
42.0259,1.495
42.0259,1.528
42.0269,1.57
42.0269,1.727
42.0269,1.752
42.0269,1.682
42.0269,1.652
42.0269,1.613
42.0269,1.568
42.0279,1.468
42.0279,1.418
42.0279,1.417
42.0279,1.398
42.0279,1.388
42.0279,1.457
42.0289,1.496
42.0289,1.544
42.0289,1.607
42.0289,1.696
42.0289,1.704
42.0289,1.634
42.0289,1.599
42.0289,1.562
42.0299,1.541
42.0299,1.495
42.0299,1.434
42.0299,1.401
42.0299,1.41
42.0299,1.441
42.0299,1.486
42.0308,1.535
42.0308,1.582
42.0308,1.736
42.0308,1.752
42.0308,1.719
42.0308,1.702
42.0308,1.667
42.0318,1.634
42.0318,1.575
42.0318,1.539
42.0318,1.508
42.0318,1.494
42.0318,1.496
42.0318,1.54
42.0318,1.625
42.0328,1.682
42.0328,1.756
42.0328,1.855
42.0328,1.863
42.0328,1.815
42.0328,1.787
42.0328,1.753
42.0338,1.728
42.0338,1.692
42.0338,1.653
42.0338,1.618
42.0338,1.618
42.0338,1.648
42.0348,1.694
42.0348,1.73
42.0348,1.785
42.0348,1.967
42.0348,1.988
42.0348,1.934
42.0348,1.908
42.0358,1.876
42.0358,1.84
42.0358,1.752
42.0358,1.708
42.0358,1.698
42.0358,1.667
42.0358,1.667
42.0368,1.74
42.0368,1.777
42.0368,1.819
42.0368,1.885
42.0368,1.967
42.0368,2.012
42.0368,1.934
42.0378,1.896
42.0378,1.862
42.0378,1.833
42.0378,1.787
42.0378,1.72
42.0378,1.676
42.0378,1.669
42.0388,1.695
42.0388,1.733
42.0388,1.764
42.0388,1.814
42.0388,1.974
42.0388,1.994
42.0388,1.959
42.0398,1.93
42.0398,1.894
42.0398,1.852
42.0398,1.765
42.0398,1.719
42.0398,1.705
42.0398,1.664
42.0398,1.646
42.0408,1.714
42.0408,1.756
42.0408,1.795
42.0408,1.858
42.0408,1.952
42.0408,2.002
42.0408,1.907
42.0418,1.869
42.0418,1.83
42.0418,1.8
42.0418,1.754
42.0418,1.684
42.0418,1.665
42.0428,1.64
42.0428,1.665
42.0428,1.701
42.0428,1.742
42.0438,1.849
42.0438,1.925
42.0438,1.956
42.0438,1.935
42.0438,1.898
42.0438,1.856
42.0448,1.788
42.0448,1.759
42.0448,1.684
42.0448,1.643
42.0448,1.633
42.0448,1.625
42.0448,1.689
42.0448,1.723
42.0458,1.766
42.0458,1.839
42.0458,1.914
42.0458,1.956
42.0458,1.899
42.0458,1.869
42.0468,1.827
42.0468,1.792
42.0468,1.762
42.0468,1.65
42.0468,1.637
42.0468,1.632
42.0468,1.665
42.0468,1.703
42.0478,1.741
42.0478,1.838
42.0478,1.909
42.0478,1.965
42.0478,1.952
42.0478,1.909
42.0478,1.87
42.0488,1.802
42.0488,1.764
42.0488,1.688
42.0488,1.689
42.0488,1.669
42.0488,1.633
42.0488,1.697
42.0498,1.743
42.0498,1.786
42.0498,1.846
42.0498,1.924
42.0498,1.967
42.0498,1.916
42.0498,1.881
42.0508,1.852
42.0508,1.819
42.0508,1.778
42.0508,1.67
42.0508,1.676
42.0508,1.64
42.0508,1.663
42.0508,1.703
42.0518,1.745
42.0518,1.839
42.0518,1.918
42.0518,1.987
42.0518,1.97
42.0518,1.919
42.0528,1.885
42.0528,1.817
42.0528,1.783
42.0528,1.712
42.0528,1.681
42.0528,1.685
42.0528,1.653
42.0538,1.714
42.0538,1.749
42.0538,1.789
42.0538,1.845
42.0538,1.922
42.0538,1.975
42.0538,1.926
42.0548,1.891
42.0548,1.855
42.0548,1.822
42.0548,1.797
42.0548,1.682
42.0548,1.671
42.0548,1.65
42.0558,1.671
42.0558,1.706
42.0558,1.747
42.0558,1.847
42.0558,1.923
42.0558,1.978
42.0558,1.978
42.0568,1.942
42.0568,1.893
42.0568,1.818
42.0568,1.805
42.0568,1.738
42.0568,1.684
42.0568,1.673
42.0568,1.677
42.0578,1.705
42.0578,1.745
42.0578,1.78
42.0578,1.845
42.0578,1.923
42.0578,1.972
42.0588,1.935
42.0588,1.909
42.0588,1.865
42.0588,1.828
42.0588,1.8
42.0588,1.705
42.0598,1.679
42.0598,1.66
42.0598,1.68
42.0598,1.707
42.0598,1.748
42.0598,1.834
42.0598,1.908
42.0598,1.996
42.0608,1.987
42.0608,1.929
42.0608,1.892
42.0608,1.825
42.0608,1.787
42.0608,1.722
42.0608,1.695
42.0618,1.69
42.0618,1.66
42.0618,1.698
42.0618,1.745
42.0618,1.782
42.0618,1.826
42.0618,1.904
42.0628,1.986
42.0628,1.929
42.0628,1.9
42.0628,1.857
42.0628,1.816
42.0628,1.78
42.0628,1.648
42.8517,1.634
42.8517,1.638
42.8526,1.71
42.8526,1.756
42.8526,1.798
42.8536,1.864
42.8536,1.939
42.8536,1.949
42.8536,1.868
42.8536,1.828
42.8546,1.792
42.8546,1.764
42.8546,1.696
42.8546,1.663
42.8556,1.622
42.8556,1.631
42.8556,1.672
42.8556,1.715
42.8556,1.751
42.8566,1.803
42.8566,1.956
42.8566,1.98
42.8566,1.926
42.8566,1.899
42.8577,1.865
42.8577,1.829
42.8596,1.73
42.8606,1.715
42.8606,1.681
42.8606,1.653
42.8616,1.659
42.8616,1.699
42.8616,1.768
42.8616,1.817
42.8616,1.899
42.8616,1.979
42.8626,1.97
42.8626,1.9
42.8626,1.856
42.8636,1.818
42.8636,1.797
42.8636,1.754
42.8636,1.715
42.8636,1.668
42.8636,1.673
42.8646,1.702
42.8646,1.745
42.8646,1.785
42.8656,1.831
42.8656,1.971
42.8656,2.011
42.8656,1.952
42.8656,1.918
42.8666,1.884
42.8666,1.814
42.8666,1.754
42.8666,1.705
42.8676,1.698
42.8676,1.67
42.8676,1.669
42.8676,1.746
42.8686,1.779
42.8686,1.824
42.8696,1.898
42.8696,1.985
42.8696,1.985
42.8696,1.918
42.8696,1.888
42.8706,1.847
42.8706,1.813
42.8706,1.754
42.8716,1.71
42.8716,1.665
42.8716,1.665
42.8716,1.69
42.8726,1.736
42.8726,1.769
42.8726,1.818
42.8726,1.985
42.8726,2.006
42.8736,1.951
42.8836,1.922
42.8846,1.887
42.8975,1.82
42.8985,1.763
42.8995,1.681
42.8995,1.633
42.9035,1.636
42.9035,1.628
42.9035,1.688
42.9035,1.721
42.9045,1.751
42.9045,1.796
42.9045,1.843
42.9045,1.815
42.9055,1.651
42.9055,1.561
42.9055,1.494
42.9055,1.421
42.9055,1.347
42.9065,1.278
42.9065,1.25
42.9065,1.243
42.9065,1.268
42.9075,1.346
42.9075,1.575
42.9075,1.857
42.9075,2.129
42.9075,2.113
42.9085,2.11
42.9085,2.176
42.9095,2.234
42.9095,2.269
42.9105,2.414
42.9105,2.379
42.9105,2.375
42.9115,2.312
42.9115,2.296
42.9115,2.315
42.9115,2.323
42.9115,2.362
42.9125,2.417
42.9125,2.463
42.9125,2.483
42.9125,2.398
42.9135,2.321
42.9135,2.19
42.9135,2.128
42.9135,2.042
42.9135,1.93
42.9145,1.866
42.9145,1.809
42.9145,1.782
42.9145,1.808
42.9155,1.828
42.9155,1.854
42.9155,1.917
42.9155,1.994
42.9155,1.992
42.9165,1.948
42.9165,1.912
42.9165,1.87
42.9165,1.834
42.9165,1.72
42.9175,1.669
42.9175,1.666
42.9175,1.643
42.9175,1.667
42.9185,1.698
42.9185,1.768
42.9185,1.827
42.9185,1.924
42.9185,1.966
42.9195,1.925
42.9195,1.882
42.9195,1.805
42.9205,1.769
42.9205,1.719
42.9205,1.669
42.9205,1.641
42.9205,1.622
42.9215,1.636
42.9215,1.677
42.9215,1.709
42.9215,1.751
42.9215,1.815
42.9225,1.897
42.9225,1.913
42.9225,1.866
42.9225,1.838
42.9225,1.8
42.9235,1.767
42.9235,1.722
42.9235,1.651
42.9235,1.619
42.9245,1.6
42.9245,1.629
42.9245,1.671
42.9245,1.706
42.9245,1.807
42.9255,1.895
42.9255,1.935
42.9255,1.903
42.9255,1.873
42.9265,1.84
42.9265,1.764
42.9265,1.737
42.9265,1.666
42.9274,1.632
42.9274,1.61
42.9274,1.599
42.9274,1.663
42.9274,1.697
42.9284,1.733
42.9284,1.804
42.9284,1.88
42.9284,1.927
42.9294,1.865
42.9294,1.825
42.9294,1.781
42.9294,1.748
42.9294,1.718
42.9304,1.67
42.9304,1.611
42.9304,1.603
42.9304,1.629
42.9314,1.668
42.9314,1.703
42.9314,1.796
42.9314,1.886
42.9314,1.937
42.9324,1.919
42.9324,1.873
42.9324,1.839
42.9324,1.767
42.9334,1.729
42.9334,1.668
42.9334,1.66
42.9334,1.627
42.9334,1.597
42.9344,1.656
42.9344,1.696
42.9344,1.728
42.9344,1.787
42.9354,1.862
42.9354,1.94
42.9354,1.871
42.9354,1.836
42.9354,1.794
42.9364,1.761
42.9364,1.737
42.9364,1.626
42.9364,1.606
42.9364,1.591
42.9374,1.609
42.9374,1.636
42.9374,1.669
42.9374,1.768
42.9374,1.848
42.9384,1.885
42.9384,1.873
42.9384,1.842
42.9384,1.808
42.9384,1.726
42.9394,1.706
42.9394,1.641
42.9394,1.592
42.9394,1.575
42.9394,1.54
42.9404,1.601
42.9404,1.629
42.9404,1.663
42.9404,1.722
42.9404,1.805
42.9414,1.838
42.9414,1.798
42.9414,1.768
42.9414,1.731
42.9414,1.688
42.9424,1.647
42.9424,1.555
42.9424,1.533
42.9424,1.494
42.9424,1.513
42.9434,1.547
42.9434,1.589
42.9434,1.675
42.9434,1.745
42.9434,1.801
42.9444,1.818
42.9444,1.768
42.9444,1.733
42.9444,1.655
42.9444,1.629
42.9454,1.568
42.9454,1.53
42.9454,1.502
42.9454,1.496
42.9454,1.526
42.9464,1.565
42.9464,1.597
42.9464,1.651
42.9464,1.738
42.9464,1.805
42.9474,1.764
42.9474,1.739
42.9474,1.709
42.9474,1.674
42.9484,1.633
42.9484,1.551
42.9484,1.525
42.9484,1.502
42.9484,1.528
42.9494,1.566
42.9494,1.604
42.9494,1.707
42.9494,1.793
42.9494,1.849
42.9504,1.865
42.9504,1.826
42.9504,1.767
42.9504,1.737
42.9504,1.698
42.9514,1.65
42.9514,1.633
42.9514,1.596
42.9514,1.593
42.9514,1.633
42.9524,1.676
42.9524,1.709
42.9524,1.76
42.9524,1.85
42.9524,1.922
42.9534,1.879
42.9534,1.847
42.9534,1.81
42.9534,1.772
42.9534,1.74
42.9544,1.674
42.9544,1.655
42.9544,1.623
42.9544,1.642
42.9544,1.678
42.9554,1.757
42.9554,1.808
42.9554,1.88
42.9554,1.948
42.9554,1.987
42.9564,1.929
42.9564,1.855
42.9564,1.821
42.9564,1.794
42.9574,1.731
42.9574,1.684
42.9574,1.639
42.9574,1.647
42.9584,1.673
42.9584,1.71
42.9584,1.749
42.9584,1.803
42.9584,1.871
42.9594,1.955
42.9594,1.918
42.9594,1.892
42.9594,1.853
42.9604,1.812
42.9604,1.739
42.9604,1.683
42.9604,1.65
42.9604,1.634
42.9614,1.638
42.9614,1.671
42.9614,1.742
42.9614,1.784
42.9614,1.86
42.9624,1.916
42.9624,1.968
42.9624,1.915
42.9624,1.848
42.9624,1.818
42.9634,1.783
42.9634,1.724
42.9634,1.671
42.9634,1.674
42.9634,1.637
42.9644,1.666
42.9644,1.705
42.9644,1.738
42.9644,1.776
42.9653,1.868
42.9653,1.951
42.9653,1.918
42.9653,1.886
42.9653,1.847
42.9663,1.814
42.9663,1.729
42.9663,1.68
42.9663,1.678
42.9663,1.636
42.9673,1.628
42.9673,1.665
42.9673,1.739
42.9673,1.779
42.9683,1.858
42.9683,1.937
42.9683,1.939
42.9683,1.911
42.9683,1.845
42.9693,1.807
42.9693,1.779
42.9693,1.726
42.9693,1.664
42.9693,1.631
42.9703,1.612
42.9703,1.636
42.9703,1.675
42.9703,1.722
42.9703,1.769
42.9713,1.945
42.9713,1.946
42.9713,1.914
42.9713,1.885
42.9713,1.849
42.9983,1.812
42.9993,1.739
43.0062,1.682
43.0082,1.638
43.0112,1.653
43.0122,1.634
43.0122,1.661
43.0122,1.735
43.0122,1.772
43.0132,1.854
43.0132,1.937
43.0132,1.941
43.0132,1.928
43.0132,1.854
43.0142,1.819
43.0142,1.785
43.0142,1.732
43.0142,1.69
43.0142,1.631
43.0152,1.624
43.0152,1.657
43.0152,1.696
43.0152,1.735
43.0152,1.767
43.0162,1.925
43.0162,1.95
43.0162,1.917
43.0162,1.888
43.0172,1.85
43.0172,1.803
43.0172,1.733
43.0172,1.679
43.0172,1.63
43.0182,1.649
43.0182,1.633
43.0182,1.655
43.0182,1.735
43.0182,1.777
43.0192,1.841
43.0192,1.955
43.0192,1.96
43.0192,1.899
43.0192,1.864
43.0202,1.823
43.0202,1.792
43.0202,1.752
43.0202,1.684
43.0212,1.66
43.0212,1.626
43.0212,1.653
43.0212,1.698
43.0222,1.734
43.0222,1.769
43.0222,1.93
43.0222,1.946
43.0222,1.925
43.0232,1.899
43.0232,1.86
43.0232,1.82
43.0232,1.752
43.0232,1.693
43.0242,1.66
43.0242,1.659
43.0242,1.623
43.0242,1.675
43.0242,1.719
43.0252,1.765
43.0252,1.826
43.0252,1.94
43.0262,1.948
43.0262,1.894
43.0272,1.866
43.0272,1.829
43.0272,1.787
43.0272,1.745
43.0282,1.706
43.0282,1.649
43.0282,1.626
43.0292,1.659
43.0292,1.693
43.0292,1.727
43.0292,1.828
43.0302,1.917
43.0302,1.934
43.0302,1.95
43.0302,1.903
43.0312,1.869
43.0312,1.795
43.0312,1.753
43.0312,1.689
43.0322,1.682
43.0322,1.651
43.0322,1.684
43.0332,1.719
43.0332,1.753
43.0332,1.809
43.0332,1.902
43.0342,1.921
43.0342,1.878
43.0342,1.851
43.0342,1.808
43.0352,1.779
43.0352,1.694
43.0352,1.647
43.0352,1.624
43.0352,1.602
43.0362,1.64
43.0362,1.667
43.0362,1.747
43.0362,1.813
43.0362,1.89
43.0372,1.919
43.0372,1.947
43.0372,1.877
43.0372,1.812
43.0382,1.777
43.0382,1.744
43.0382,1.668
43.0382,1.653
43.0382,1.621
43.0391,1.611
43.0391,1.64
43.0391,1.689
43.0391,1.723
43.0402,1.778
43.0402,1.844
43.0402,1.903
43.0402,1.847
43.0402,1.817
43.0411,1.782
43.0411,1.75
43.0411,1.643
43.0411,1.633
43.0421,1.593
43.0421,1.585
43.0421,1.613
43.0421,1.651
43.0432,1.73
43.0432,1.784
43.0432,1.88
43.0441,1.952
43.0441,1.922
43.0441,1.892
43.0441,1.833
43.0441,1.79
43.0451,1.753
43.0451,1.706
43.0451,1.676
43.0451,1.628
43.0451,1.641
43.0461,1.672
43.0461,1.713
43.0461,1.749
43.0461,1.817
43.0471,1.893
43.0471,1.937
43.0471,1.905
43.0471,1.876
43.0471,1.839
43.0481,1.798
43.0481,1.714
43.0481,1.667
43.0481,1.637
43.0491,1.616
43.0491,1.641
43.0491,1.676
43.0491,1.752
43.0491,1.811
43.0501,1.881
43.0501,1.93
43.0501,1.95
43.0501,1.91
43.0511,1.837
43.0511,1.809
43.0511,1.771
43.0511,1.712
43.0511,1.703
43.0521,1.654
43.0521,1.644
43.0521,1.69
43.0521,1.712
43.0521,1.745
43.0531,1.808
43.0531,1.892
43.0531,1.942
43.0531,1.915
43.0541,1.884
43.0541,1.846
43.0541,1.809
43.0541,1.784
43.0541,1.673
43.0551,1.652
43.0551,1.633
43.0551,1.641
43.0551,1.685
43.0561,1.705
43.0561,1.805
43.0561,1.879
43.0561,1.936
43.0561,1.97
43.0571,1.915
43.0571,1.879
43.0571,1.773
43.0571,1.72
43.0571,1.659
43.0581,1.636
43.0581,1.6
43.0581,1.564
43.0581,1.595
43.0591,1.598
43.0591,1.603
43.0591,1.601
43.0591,1.612
43.0591,1.647
43.0601,1.524
43.0601,1.453
43.0601,1.384
43.0601,1.321
43.0611,1.288
43.0611,1.257
43.0611,1.244
43.0611,1.259
43.0611,1.407
43.0621,1.678
43.0621,1.832
43.0621,1.87
43.0621,2.03
43.0621,2.237
43.0631,2.327
43.0631,2.356
43.0631,2.475
43.0631,2.535
43.0641,2.515
43.0641,2.422
43.0641,2.365
43.0641,2.321
43.0641,2.266
43.0651,2.238
43.0651,2.269
43.0651,2.283
43.0651,2.296
43.0651,2.328
43.0661,2.358
43.0661,2.331
43.0661,2.203
43.0661,2.129
43.0671,2.042
43.0671,1.963
43.0671,1.864
43.0671,1.792
43.0671,1.719
43.0681,1.705
43.0681,1.721
43.0681,1.754
43.0681,1.774
43.0691,1.815
43.0691,1.969
43.0691,1.956
43.7602,1.944
43.7602,1.9
43.7612,1.853
43.7612,1.813
43.7612,1.706
43.7612,1.65
43.7622,1.633
43.7622,1.606
43.7622,1.592
43.7622,1.623
43.7632,1.7
43.7632,1.737
43.7632,1.807
43.7632,1.891
43.7642,1.895
43.7642,1.864
43.7642,1.796
43.7642,1.761
43.7652,1.744
43.7652,1.672
43.7652,1.612
43.7652,1.62
43.7662,1.572
43.7662,1.602
43.7662,1.641
43.7662,1.668
43.7662,1.713
43.7672,1.788
43.7672,1.878
43.7672,1.867
43.7672,1.823
43.7682,1.784
43.7682,1.75
43.7682,1.658
43.7682,1.622
43.7692,1.577
43.7692,1.548
43.7692,1.549
43.7692,1.581
43.7692,1.658
43.7702,1.705
43.7702,1.773
43.7702,1.88
43.7712,1.894
43.7712,1.86
43.7712,1.787
43.7712,1.749
43.7712,1.713
43.7722,1.677
43.7722,1.624
43.7722,1.57
43.7722,1.556
43.7732,1.586
43.7732,1.619
43.7732,1.657
43.7732,1.695
43.7742,1.868
43.7742,1.87
43.7742,1.841
43.7742,1.818
43.7742,1.782
43.7752,1.746
43.7752,1.67
43.7752,1.597
43.7752,1.599
43.7762,1.569
43.7762,1.55
43.7762,1.579
43.7772,1.644
43.7772,1.687
43.7772,1.758
43.7772,1.846
43.7782,1.853
43.7782,1.855
43.7782,1.777
43.7782,1.749
43.7792,1.699
43.7792,1.647
43.7792,1.618
43.7792,1.559
43.7792,1.538
43.7802,1.568
43.7802,1.603
43.7802,1.642
43.7802,1.691
43.7802,1.812
43.7812,1.878
43.7812,1.858
43.7812,1.802
43.7812,1.768
43.7822,1.734
43.7822,1.643
43.7822,1.608
43.7822,1.556
43.7832,1.536
43.7832,1.515
43.7832,1.544
43.7832,1.611
43.7842,1.655
43.7842,1.715
43.7842,1.79
43.7842,1.851
43.7842,1.804
43.7852,1.725
43.7852,1.684
43.7852,1.639
43.7852,1.603
43.7862,1.543
43.7862,1.48
43.7862,1.453
43.7862,1.476
43.7862,1.519
43.7871,1.556
43.7871,1.584
43.7871,1.734
43.7871,1.764
43.7881,1.759
43.7881,1.71
43.7881,1.667
43.7881,1.631
43.7881,1.541
43.7891,1.495
43.7891,1.468
43.7891,1.437
43.7891,1.406
43.7901,1.437
43.7901,1.515
43.7901,1.551
43.7901,1.619
43.7901,1.691
43.7911,1.737
43.7911,1.684
43.7911,1.645
43.7911,1.618
43.7921,1.577
43.7921,1.536
43.7921,1.493
43.7921,1.434
43.7931,1.406
43.7931,1.435
43.7931,1.474
43.7931,1.504
43.7931,1.547
43.7941,1.686
43.7941,1.77
43.7941,1.749
43.7941,1.711
43.7951,1.683
43.7951,1.643
43.7951,1.584
43.7951,1.523
43.7951,1.496
43.7961,1.454
43.7961,1.464
43.7961,1.494
43.7961,1.567
43.7961,1.615
43.7971,1.679
43.7971,1.791
43.7971,1.819
43.7971,1.783
43.7971,1.752
43.7981,1.72
43.7981,1.689
43.7981,1.662
43.7981,1.594
43.7991,1.574
43.7991,1.542
43.7991,1.552
43.7991,1.601
43.7991,1.638
43.8001,1.671
43.8001,1.836
43.8001,1.864
43.8001,1.889
43.8011,1.846
43.8011,1.824
43.8011,1.774
43.8011,1.719
43.8011,1.668
43.8021,1.642
43.8021,1.608
43.8021,1.583
43.8021,1.645
43.8031,1.682
43.8031,1.72
43.8031,1.776
43.8031,1.872
43.8031,1.928
43.8041,1.871
43.8041,1.85
43.8041,1.808
43.8041,1.767
43.8041,1.744
43.8051,1.686
43.8051,1.593
43.8051,1.592
43.8051,1.607
43.8061,1.643
43.8061,1.685
43.8061,1.722
43.8061,1.864
43.8061,1.933
43.8071,1.922
43.8071,1.881
43.8071,1.85
43.8071,1.778
43.8071,1.737
43.8081,1.687
43.8081,1.661
43.8081,1.603
43.8081,1.601
43.8091,1.639
43.8091,1.677
43.8091,1.712
43.8091,1.764
43.8091,1.861
43.8101,1.927
43.8101,1.865
43.8101,1.838
43.8101,1.808
43.8101,1.769
43.8111,1.736
43.8111,1.643
43.8111,1.594
43.8111,1.587
43.8111,1.6
43.8121,1.635
43.8121,1.676
43.8121,1.761
43.8121,1.83
43.8121,1.92
43.8131,1.926
43.8131,1.872
43.8131,1.837
43.8131,1.764
43.8141,1.729
43.8141,1.665
43.8141,1.645
43.8141,1.613
43.8151,1.575
43.8151,1.621
43.8151,1.657
43.8151,1.688
43.8161,1.744
43.8161,1.822
43.8161,1.896
43.8161,1.874
43.8171,1.851
43.8171,1.811
43.8171,1.768
43.8171,1.741
43.8181,1.677
43.8181,1.595
43.8181,1.598
43.8181,1.591
43.8181,1.618
43.8191,1.661
43.8191,1.741
43.8191,1.828
43.8191,1.901
43.8201,1.91
43.8201,1.871
43.8201,1.844
43.8201,1.762
43.8211,1.742
43.8211,1.689
43.8211,1.637
43.8211,1.586
43.8221,1.584
43.8221,1.637
43.8221,1.655
43.8221,1.696
43.8221,1.742
43.8231,1.814
43.8231,1.904
43.8231,1.869
43.8231,1.835
43.8241,1.804
43.8241,1.761
43.8241,1.73
43.8241,1.683
43.8241,1.612
43.8250,1.583
43.8250,1.586
43.8250,1.622
43.8260,1.66
43.8260,1.746
43.8260,1.816
43.8260,1.877
43.8260,1.929
43.8270,1.889
43.8270,1.853
43.8270,1.777
43.8270,1.747
43.8280,1.686
43.8280,1.65
43.8280,1.626
43.8280,1.589
43.8290,1.619
43.8290,1.661
43.8290,1.695
43.8290,1.736
43.8290,1.818
43.8300,1.9
43.8300,1.882
43.8300,1.853
43.8300,1.813
43.8310,1.77
43.8310,1.751
43.8310,1.631
43.8310,1.616
43.8320,1.605
43.8320,1.587
43.8320,1.616
43.8320,1.658
43.8320,1.718
43.8330,1.805
43.8330,1.905
43.8330,1.906
43.8330,1.879
43.8340,1.849
43.8340,1.776
43.8340,1.742
43.8340,1.71
43.8340,1.647
43.8350,1.617
43.8350,1.586
43.8350,1.626
43.8350,1.658
43.8360,1.742
43.8360,1.807
43.8360,1.895
43.8360,1.885
43.8360,1.852
43.8370,1.819
43.8370,1.775
43.8370,1.709
43.8370,1.65
43.8380,1.616
43.8380,1.583
43.8380,1.589
43.8380,1.617
43.8380,1.681
43.8390,1.732
43.8390,1.798
43.8390,1.871
43.8390,1.912
43.8400,1.897
43.8400,1.807
43.8400,1.774
43.8400,1.743
43.8400,1.703
43.8410,1.644
43.8410,1.595
43.8410,1.576
43.8410,1.605
43.8420,1.643
43.8420,1.679
43.8420,1.724
43.8420,1.786
43.8430,1.878
43.8430,1.88
43.8430,1.836
43.8430,1.801
43.8430,1.76
43.8440,1.706
43.8440,1.639
43.8440,1.597
43.8440,1.564
43.8450,1.571
43.8450,1.595
43.8450,1.667
43.8450,1.705
43.8460,1.772
43.8460,1.849
43.8460,1.883
43.8460,1.858
43.8470,1.792
43.8470,1.752
43.8470,1.706
43.8470,1.678
43.8470,1.612
43.8480,1.58
43.8480,1.549
43.8480,1.576
43.8480,1.603
43.8490,1.634
43.8490,1.67
43.8490,1.798
43.8490,1.872
43.8490,1.839
43.8500,1.79
43.8500,1.756
43.8500,1.724
43.8500,1.651
43.8510,1.607
43.8510,1.572
43.8510,1.552
43.8510,1.532
43.8520,1.572
43.8520,1.652
43.8520,1.702
43.8520,1.759
43.8520,1.848
43.8530,1.868
43.8530,1.884
43.8530,1.805
43.8530,1.77
43.8540,1.733
43.8540,1.704
43.8540,1.637
43.8540,1.604
43.8550,1.566
43.8550,1.589
43.8550,1.628
43.8550,1.666
43.8550,1.704
43.8560,1.847
43.8560,1.909
43.8560,1.881
43.8560,1.841
43.8560,1.818
43.8570,1.778
43.8570,1.705
43.8570,1.654
43.8570,1.609
43.8580,1.581
43.8580,1.568
43.8580,1.592
43.8580,1.663
43.8590,1.694
43.8590,1.759
43.8590,1.841
43.8590,1.892
43.8590,1.875
43.8600,1.812
43.8600,1.778
43.8600,1.749
43.8600,1.713
43.8610,1.659
43.8639,1.617
43.8639,1.568
43.8709,1.599
43.8719,1.63
43.8809,1.663
43.8819,1.694
43.8849,1.763
43.8849,1.877
43.8859,1.883
43.8859,1.848
43.8859,1.816
43.8859,1.777
43.8869,1.74
43.8869,1.645
43.8869,1.627
43.8869,1.585
43.8879,1.563
43.8879,1.589
43.8879,1.625
43.8879,1.691
43.8879,1.741
43.8889,1.835
43.8889,1.9
43.8889,1.88
43.8889,1.84
43.8899,1.744
43.8899,1.685
43.8899,1.633
43.8899,1.583
43.8899,1.558
43.8909,1.501
43.8909,1.494
43.8909,1.512
43.8909,1.52
43.8919,1.514
43.8919,1.509
43.8919,1.566
43.8919,1.539
43.8929,1.452
43.8939,1.378
43.8939,1.313
43.8939,1.264
43.8939,1.255
43.8939,1.237
43.8949,1.236
43.8949,1.277
43.8949,1.507
43.8949,1.71
43.8959,1.779
43.8959,1.871
43.8959,2.014
43.8959,2.19
43.8959,2.326
43.8969,2.385
43.8969,2.475
43.8969,2.448
43.8969,2.392
43.8979,2.315
43.8979,2.307
43.8979,2.234
43.8979,2.168
43.8979,2.179
43.8988,2.193
43.8988,2.189
43.8988,2.204
43.8988,2.235
43.8988,2.249
43.8998,2.152
43.8998,2.078
43.8998,1.993
43.8998,1.923
43.9008,1.841
43.9008,1.745
43.9008,1.646
43.9008,1.617
43.9008,1.606
43.9018,1.624
43.9018,1.65
43.9018,1.667
43.9018,1.73
43.9018,1.848
43.9028,1.866
43.9028,1.827
43.9028,1.784
43.9028,1.737
43.9038,1.653
43.9038,1.59
43.9038,1.542
43.9038,1.485
43.9048,1.475
43.9048,1.483
43.9048,1.544
43.9048,1.585
43.9048,1.634
43.9058,1.706
43.9058,1.766
43.9058,1.767
43.9058,1.712
43.9068,1.677
43.9068,1.631
43.9068,1.598
43.9068,1.545
43.9068,1.489
43.9078,1.432
43.9078,1.446
43.9078,1.475
43.9078,1.511
43.9088,1.539
43.9088,1.67
43.9088,1.745
43.9098,1.742
43.9098,1.729
43.9098,1.691
43.9098,1.649
43.9278,1.589
43.9278,1.529
43.9278,1.47
43.9278,1.43
43.9278,1.416
43.9288,1.436
43.9288,1.49
43.9288,1.523
43.9288,1.577
43.9288,1.647
43.9298,1.722
43.9298,1.72
43.9298,1.665
43.9298,1.625
43.9308,1.589
43.9308,1.555
43.9308,1.514
43.9308,1.425
43.9308,1.394
43.9318,1.401
43.9407,1.427
43.9407,1.469
43.9407,1.496
43.9417,1.621
43.9417,1.691
43.9417,1.712
43.9417,1.679
43.9427,1.65
43.9427,1.607
43.9427,1.526
43.9427,1.487
43.9437,1.45
43.9437,1.396
43.9437,1.373
43.9437,1.374
43.9437,1.44
43.9447,1.475
43.9447,1.514
43.9447,1.593
43.9447,1.673
43.9457,1.68
43.9457,1.618
43.9457,1.584
43.9457,1.541
43.9457,1.497
43.9467,1.451
43.9467,1.421
43.9467,1.354
43.9467,1.349
43.9477,1.372
43.9477,1.403
43.9477,1.436
43.9477,1.544
43.9477,1.636
43.9487,1.642
43.9487,1.616
43.9487,1.577
43.9487,1.543
43.9487,1.457
43.9497,1.406
43.9497,1.368
43.9497,1.329
43.9497,1.298
43.9507,1.285
43.9507,1.349
43.9507,1.376
43.9507,1.408
43.9507,1.48
43.9517,1.574
43.9517,1.563
43.9517,1.512
43.9517,1.471
43.9527,1.425
43.9527,1.385
43.9527,1.331
43.9527,1.297
43.9537,1.256
43.9537,1.25
43.9537,1.26
43.9537,1.276
43.9537,1.294
43.9547,1.318
43.9547,1.488
43.9547,1.504
43.9547,1.461
43.9557,1.418
43.9557,1.383
43.9557,1.346
43.9557,1.273
43.9557,1.255
43.9567,1.244
43.9567,1.242
43.9567,1.237
43.9567,1.242
43.9577,1.258
43.9577,1.283
43.9577,1.332
43.9577,1.405
43.9587,1.449
43.9587,1.434
43.9587,1.347
43.9587,1.314
43.9597,1.296
43.9597,1.265
43.9597,1.252
43.9597,1.244
43.9886,1.236
43.9906,1.241
43.9916,1.246
43.9946,1.257
43.9946,1.28
43.9946,1.327
43.9956,1.433
43.9956,1.431
43.9956,1.399
43.9956,1.364
43.9956,1.324
43.9966,1.313
43.9966,1.251
43.9966,1.253
43.9966,1.256
43.9976,1.242
43.9976,1.248
43.9976,1.262
43.9976,1.289
43.9976,1.379
43.9986,1.496
43.9986,1.533
43.9986,1.499
43.9986,1.474
43.9986,1.437
43.9996,1.37
43.9996,1.342
43.9996,1.294
43.9996,1.307
44.0006,1.274
44.0006,1.262
44.0006,1.309
44.0006,1.34
44.0006,1.37
44.0016,1.443
44.0016,1.542
44.0016,1.57
44.0016,1.529
44.0016,1.498
44.0026,1.467
44.0026,1.42
44.0026,1.397
44.0026,1.342
44.0026,1.291
44.0036,1.279
44.0036,1.302
44.0036,1.328
44.0046,1.363
44.0046,1.414
44.0046,1.533
44.0046,1.559
44.0056,1.569
44.0056,1.53
44.0056,1.503
44.0056,1.466
44.0056,1.4
44.0066,1.311
44.0066,1.305
44.0066,1.309
44.0066,1.274
44.0076,1.282
44.0076,1.353
44.0076,1.379
44.0076,1.431
44.0086,1.511
44.0086,1.576
44.0086,1.545
44.0096,1.472
44.0096,1.438
44.0106,1.403
44.0106,1.361
44.0106,1.303
44.0106,1.282
44.0106,1.257
44.0115,1.264
44.0115,1.278
44.0115,1.31
44.0115,1.346
44.0115,1.391
44.0125,1.51
44.0125,1.523
44.0125,1.464
44.0125,1.445
44.0135,1.412
44.0135,1.381
44.0135,1.283
44.0135,1.277
44.0135,1.266
44.0145,1.249
44.0145,1.252
44.0145,1.265
44.0145,1.313
44.0145,1.361
44.0155,1.446
44.0155,1.521
44.0155,1.49
44.0155,1.454
44.0165,1.376
44.0165,1.344
44.0165,1.304
44.0165,1.271
44.0175,1.269
44.0175,1.249
44.0175,1.244
44.0175,1.256
44.0175,1.277
44.0185,1.298
44.0185,1.337
44.0185,1.398
44.0185,1.475
44.0195,1.437
44.0195,1.393
44.0195,1.358
44.0195,1.318
44.0205,1.283
44.0205,1.256
44.0205,1.244
44.0205,1.238
44.0215,1.24
44.0215,1.247
44.0215,1.258
44.0215,1.313
44.0215,1.387
44.0225,1.474
44.0225,1.445
44.0225,1.408
44.0225,1.37
44.0235,1.308
44.0235,1.276
44.0235,1.257
44.0235,1.248
44.0245,1.245
44.0245,1.238
44.0245,1.242
44.0245,1.253
44.0255,1.264
44.0255,1.302
44.0255,1.359
44.0265,1.425
44.0265,1.388
44.0265,1.356
44.0275,1.319
44.0275,1.283
44.0275,1.272
44.0285,1.249
44.0285,1.243
44.0285,1.24
44.0285,1.236
44.0295,1.239
44.0295,1.246
44.0295,1.258
44.0295,1.351
44.0305,1.426
44.0305,1.415
44.0305,1.366
44.0305,1.342
44.0305,1.311
44.0315,1.256
44.0315,1.247
44.0315,1.241
44.0315,1.237
44.0325,1.233
44.0325,1.235
44.0325,1.237
44.0325,1.25
44.6638,1.316
44.6638,1.371
44.6648,1.352
44.6648,1.322
44.6648,1.287
44.6648,1.27
44.6658,1.252
44.6658,1.241
44.6658,1.236
44.6658,1.233
44.6658,1.233
44.6668,1.236
44.6668,1.24
44.6668,1.244
44.6678,1.252
44.6678,1.353
44.6678,1.37
44.6678,1.326
44.6678,1.297
44.6688,1.275
44.6688,1.256
44.6688,1.241
44.6688,1.238
44.6698,1.232
44.6698,1.234
44.6698,1.232
44.6698,1.233
44.6698,1.241
44.6708,1.248
44.6708,1.273
44.6708,1.329
44.6708,1.363
44.6718,1.31
44.6718,1.262
44.6718,1.252
44.6718,1.242
44.6718,1.235
44.6728,1.237
44.6728,1.233
44.6728,1.231
44.6728,1.232
44.6738,1.235
44.6738,1.236
44.6738,1.241
44.6748,1.254
44.6748,1.307
44.6748,1.288
44.6758,1.269
44.6758,1.251
44.6758,1.242
44.6758,1.239
44.6758,1.234
44.6768,1.233
44.6768,1.231
44.6768,1.23
44.6768,1.231
44.6778,1.232
44.6778,1.234
44.6778,1.245
44.6778,1.275
44.6778,1.265
44.6788,1.266
44.6788,1.251
44.6788,1.243
44.6788,1.234
44.6798,1.232
44.6798,1.233
44.6798,1.232
44.6798,1.23
44.6798,1.229
44.6808,1.231
44.6808,1.231
44.6808,1.234
44.6808,1.238
44.6818,1.25
44.6818,1.254
44.6818,1.246
44.6828,1.239
44.6828,1.235
44.6828,1.234
44.6828,1.232
44.6828,1.23
44.6837,1.232
44.6837,1.229
44.6837,1.23
44.6837,1.231
44.6847,1.232
44.6847,1.235
44.6847,1.241
44.6847,1.286
44.6847,1.262
44.6857,1.249
44.6857,1.245
44.6857,1.239
44.6857,1.235
44.6867,1.233
44.6867,1.233
44.6867,1.23
44.6867,1.23
44.6877,1.23
44.6877,1.231
44.6877,1.234
44.6877,1.242
44.6877,1.265
44.6887,1.264
44.6887,1.272
44.6887,1.249
44.6887,1.244
44.6897,1.236
44.6897,1.233
44.6897,1.231
44.6897,1.234
44.6907,1.231
44.6907,1.23
44.6907,1.231
44.6907,1.232
44.6917,1.235
44.6917,1.241
44.6917,1.265
44.6917,1.28
44.6927,1.253
44.6927,1.244
44.6927,1.239
44.6927,1.236
44.6937,1.235
44.6937,1.232
44.6937,1.23
44.6947,1.23
44.6947,1.23
44.6947,1.231
44.6947,1.232
44.6947,1.234
44.6957,1.24
44.6957,1.276
44.6957,1.273
44.6967,1.252
44.6967,1.242
44.6967,1.239
44.6967,1.236
44.6967,1.23
44.6977,1.232
44.6977,1.231
44.6977,1.229
44.6977,1.23
44.6987,1.231
44.6987,1.232
44.6987,1.239
44.6987,1.272
44.6987,1.271
44.6997,1.26
44.6997,1.244
44.6997,1.241
44.6997,1.234
44.7007,1.232
44.7007,1.231
44.7007,1.23
44.7007,1.229
44.7007,1.229
44.7017,1.229
44.7017,1.229
44.7017,1.229
44.7017,1.229
44.7027,1.231
44.7027,1.23
44.7027,1.23
44.7027,1.229
44.7037,1.229
44.7037,1.229
44.7037,1.229
44.7047,1.232
44.7047,1.248
44.7047,1.249
44.7047,1.248
44.7057,1.248
44.7057,1.305
44.7057,1.392
44.7057,1.552
44.7067,1.906
44.7067,1.932
44.7067,1.898
44.7067,1.833
44.7067,1.751
44.7077,1.691
44.7077,1.588
44.7077,1.557
44.7077,1.517
44.7087,1.476
44.7087,1.445
44.7087,1.43
44.7087,1.426
44.7097,1.445
44.7097,1.464
44.7097,1.473
44.7097,1.442
44.7107,1.38
44.7107,1.309
44.7107,1.245
44.7107,1.238
44.7107,1.233
44.7117,1.231
44.7117,1.231
44.7117,1.229
44.7127,1.23
44.7127,1.231
44.7127,1.232
44.7127,1.235
44.7127,1.243
44.7137,1.249
44.7137,1.24
44.7137,1.237
44.7147,1.234
44.7147,1.232
44.7147,1.231
44.7147,1.23
44.7147,1.229
44.7157,1.229
44.7157,1.229
44.7157,1.229
44.7157,1.23
44.7167,1.23
44.7167,1.238
44.7167,1.241
44.7167,1.24
44.7177,1.235
44.7177,1.234
44.7177,1.232
44.7187,1.231
44.7187,1.23
44.7187,1.231
44.7187,1.229
44.7187,1.229
44.7197,1.229
44.7197,1.229
44.7197,1.23
44.7197,1.231
44.7207,1.236
44.7207,1.239
44.7207,1.237
44.7207,1.234
44.7207,1.231
44.7217,1.23
44.7217,1.23
44.7217,1.229
44.7217,1.23
44.7226,1.228
44.7226,1.229
44.7226,1.229
44.7226,1.229
44.7236,1.23
44.7236,1.23
44.7236,1.231
44.7236,1.238
44.7246,1.233
44.7246,1.232
44.7246,1.231
44.7256,1.23
44.7256,1.229
44.7256,1.229
44.7256,1.229
44.7266,1.229
44.7266,1.229
44.7266,1.229
44.7266,1.229
44.7276,1.23
44.7276,1.232
44.7276,1.235
44.7276,1.233
44.7286,1.232
44.7286,1.231
44.7286,1.23
44.7286,1.23
44.7286,1.229
44.7296,1.228
44.7296,1.229
44.7296,1.229
44.7296,1.229
44.7306,1.229
44.7306,1.229
44.7306,1.229
44.7306,1.231
44.7306,1.235
44.7316,1.233
44.7316,1.23
44.7316,1.23
44.7316,1.229
44.7326,1.229
44.7326,1.229
44.7326,1.229
44.7336,1.228
44.7366,1.229
44.7376,1.229
44.7456,1.229
44.7486,1.229
44.7546,1.229
44.7556,1.23
44.7596,1.235
44.7615,1.23
44.7615,1.23
44.7625,1.229
44.7625,1.229
44.7625,1.229
44.7635,1.229
44.7635,1.229
44.7635,1.229
44.7635,1.229
44.7645,1.229
44.7645,1.229
44.7645,1.229
44.7645,1.229
44.7645,1.23
44.7655,1.23
44.7655,1.229
44.7655,1.229
44.7655,1.229
44.7665,1.229
44.7665,1.229
44.7665,1.229
44.7665,1.229
44.7675,1.229
44.7675,1.229
44.7675,1.229
44.7675,1.229
44.7675,1.229
44.7685,1.229
44.7685,1.229
44.7685,1.229
44.7685,1.229
44.7695,1.229
44.7695,1.229
44.7705,1.229
44.7705,1.229
44.7705,1.229
44.7705,1.229
44.7705,1.229
44.7715,1.229
44.7715,1.229
44.7715,1.229
44.7715,1.229
44.7715,1.229
44.7725,1.23
44.7725,1.229
44.7725,1.229
44.7725,1.229
44.7725,1.229
44.7735,1.229
44.7735,1.229
44.7735,1.229
44.7735,1.229
44.7745,1.229
44.7745,1.229
44.7745,1.229
44.7745,1.229
44.7755,1.229
44.7755,1.229
44.7765,1.23
44.7765,1.229
44.7765,1.229
44.7775,1.229
44.7775,1.229
44.7775,1.229
44.7775,1.229
44.7775,1.229
44.7785,1.229
44.7785,1.229
44.7785,1.229
44.7785,1.229
44.7785,1.23
44.7795,1.234
44.7795,1.233
44.7795,1.232
44.7795,1.232
44.7795,1.231
44.7805,1.229
44.7805,1.23
44.7805,1.229
44.7805,1.229
44.7815,1.229
44.7815,1.229
44.7815,1.229
44.7815,1.23
44.7815,1.231
44.7825,1.233
44.7825,1.235
44.7825,1.245
44.7825,1.238
44.7825,1.235
44.7835,1.234
44.7835,1.232
44.7835,1.231
44.7845,1.231
44.7855,1.23
44.7855,1.229
44.7855,1.23
44.7865,1.231
44.7865,1.231
44.7865,1.233
44.7865,1.237
44.7865,1.243
44.7875,1.251
44.7875,1.241
44.7875,1.237
44.7875,1.235
44.7875,1.234
44.7885,1.23
44.7885,1.23
44.7885,1.232
44.7885,1.229
44.7885,1.23
44.7895,1.231
44.7895,1.233
44.7895,1.236
44.7895,1.241
44.7905,1.254
44.7905,1.247
44.7905,1.241
44.7905,1.235
44.7905,1.233
44.7915,1.232
44.7915,1.232
44.7915,1.231
44.7915,1.23
44.7925,1.23
44.7925,1.23
44.7925,1.231
44.7935,1.232
44.7935,1.235
44.7935,1.237
44.7935,1.246
44.7945,1.239
44.7945,1.237
44.7945,1.235
44.7945,1.232
44.7955,1.231
44.7955,1.231
44.7955,1.23
44.7955,1.229
44.7955,1.23
44.7964,1.23
44.7964,1.23
44.7964,1.231
44.7964,1.239
44.7974,1.24
44.7974,1.241
44.7974,1.238
44.7974,1.235
44.7974,1.234
44.7984,1.232
44.7984,1.23
44.7984,1.23
44.7984,1.231
44.7994,1.229
44.7994,1.229
44.7994,1.231
44.7994,1.231
44.7994,1.234
44.8004,1.24
44.8004,1.244
44.8004,1.241
44.8004,1.237
44.8014,1.235
44.8014,1.233
44.8014,1.233
44.8014,1.231
44.8014,1.23
44.8024,1.229
44.8024,1.23
44.8024,1.23
44.8024,1.231
44.8034,1.232
44.8034,1.236
44.8034,1.25
44.8034,1.245
44.8034,1.244
44.8044,1.239
44.8044,1.236
44.8044,1.234
44.8044,1.232
44.8054,1.231
44.8054,1.23
44.8054,1.23
44.8054,1.23
44.8064,1.231
44.8074,1.232
44.8074,1.236
44.8074,1.244
44.8074,1.246
44.8074,1.258
44.8084,1.247
44.8084,1.242
44.8084,1.236
44.8084,1.236
44.8094,1.232
44.8094,1.231
44.8094,1.232
44.8094,1.231
44.8104,1.231
45.3440,1.235
45.3440,1.238
45.3440,1.259
45.3440,1.269
45.3450,1.25
45.3450,1.245
45.3450,1.241
45.3450,1.238
45.3450,1.236
45.3460,1.231
45.3460,1.232
45.3460,1.231
45.3460,1.231
45.3460,1.232
45.3470,1.233
45.3470,1.239
45.3470,1.246
45.3470,1.258
45.3470,1.275
45.3480,1.256
45.3480,1.249
45.3480,1.241
45.3480,1.238
45.3490,1.234
45.3490,1.232
45.3490,1.231
45.3490,1.232
45.3490,1.232
45.3500,1.234
45.3500,1.236
45.3500,1.241
45.3500,1.253
45.3500,1.265
45.3510,1.262
45.3510,1.254
45.3510,1.248
45.3510,1.243
45.3510,1.241
45.3520,1.235
45.3520,1.232
45.3520,1.232
45.3520,1.232
45.3530,1.233
45.3530,1.235
45.3530,1.237
45.3530,1.253
45.3530,1.268
45.3540,1.268
45.3540,1.263
45.3540,1.256
45.3540,1.25
45.3540,1.24
45.3550,1.237
45.3550,1.233
45.3550,1.233
45.3550,1.232
45.3560,1.232
45.3560,1.233
45.3560,1.237
45.3560,1.242
45.3560,1.261
45.3569,1.28
45.3569,1.277
45.3569,1.265
45.3569,1.248
45.3569,1.241
45.3579,1.238
45.3579,1.237
45.3579,1.233
45.3579,1.232
45.3589,1.231
45.3589,1.232
45.3599,1.234
45.3599,1.237
45.3599,1.239
45.3599,1.247
45.3609,1.277
45.3609,1.258
45.3609,1.252
45.3609,1.246
45.3609,1.242
45.3619,1.239
45.3619,1.234
45.3619,1.235
45.3619,1.233
45.3619,1.232
45.3629,1.234
45.3629,1.237
45.3629,1.244
45.3629,1.255
45.3629,1.284
45.3639,1.311
45.3639,1.288
45.3639,1.274
45.3639,1.262
45.3649,1.25
45.3649,1.24
45.3649,1.236
45.3649,1.238
45.3649,1.238
45.3659,1.235
45.3659,1.24
45.3659,1.246
45.3659,1.251
45.3659,1.274
45.3669,1.309
45.3669,1.339
45.3669,1.317
45.3669,1.282
45.3679,1.271
45.3679,1.261
45.3679,1.249
45.3679,1.241
45.3679,1.237
45.3689,1.238
45.3689,1.241
45.3689,1.246
45.3689,1.253
45.3689,1.265
45.3699,1.289
45.3699,1.339
45.3699,1.348
45.3699,1.334
45.3699,1.313
45.3709,1.29
45.3709,1.282
45.3709,1.264
45.3709,1.243
45.3719,1.239
45.3719,1.241
45.3719,1.245
45.3719,1.252
45.3719,1.26
45.3729,1.31
45.3729,1.362
45.3729,1.365
45.3729,1.364
45.3729,1.342
45.3739,1.32
45.3739,1.3
45.3739,1.269
45.3739,1.251
45.3749,1.246
45.3749,1.253
45.3749,1.245
45.3759,1.249
45.3759,1.273
45.3759,1.291
45.3769,1.326
45.3769,1.388
45.3769,1.418
45.3769,1.389
45.3779,1.353
45.3779,1.336
45.3779,1.309
45.3789,1.277
45.3789,1.256
45.3789,1.247
45.3789,1.24
45.3789,1.243
45.3799,1.249
45.3799,1.256
45.3799,1.262
45.3799,1.273
45.3809,1.304
45.3809,1.255
45.3809,1.238
45.3809,1.233
45.3819,1.231
45.3819,1.23
45.3819,1.229
45.3819,1.229
45.3829,1.229
45.3829,1.229
45.3829,1.229
45.3829,1.229
45.3829,1.234
45.3839,1.324
45.3839,1.573
45.3839,1.55
45.3839,1.565
45.3849,1.606
45.3849,1.672
45.3849,1.695
45.3849,1.866
45.3859,1.865
45.3859,1.876
45.3859,1.823
45.3859,1.818
45.3869,1.823
45.3869,1.803
45.3869,1.821
45.3869,1.865
45.3879,1.917
45.3879,1.916
45.3879,1.863
45.3879,1.759
45.3889,1.71
45.3889,1.646
45.3889,1.578
45.3889,1.491
45.3899,1.441
45.3899,1.337
45.3899,1.342
45.3899,1.358
45.3909,1.368
45.3939,1.371
45.3968,1.411
45.4018,1.507
45.4028,1.494
45.4128,1.462
