28.5776,2.64
28.5816,2.477
28.5874,2.147
28.5924,1.731
28.5924,1.349
28.5934,1.252
28.5944,1.24
28.5944,1.24
28.6174,1.244
28.6293,1.262
28.6474,1.391
28.6484,1.781
28.6505,2.186
28.6575,2.643
28.6624,2.633
28.6654,2.63
28.6910,2.493
28.6963,2.116
28.7003,1.667
28.7189,1.244
28.7329,1.237
28.7389,1.234
28.7419,1.234
28.7432,1.235
28.7439,1.238
28.7439,1.249
28.7449,1.532
28.7460,1.871
28.7460,2.321
28.7469,2.619
28.7469,2.628
28.7479,2.453
28.7479,1.671
28.7489,1.34
28.7499,1.258
28.7509,1.251
28.7519,1.256
28.7529,1.267
28.7538,1.295
28.7538,1.731
28.7548,2.121
28.7562,2.52
28.7568,2.665
28.7578,2.71
28.7588,2.71
28.7598,2.682
28.7598,2.569
28.7608,2.178
28.7618,1.729
28.7628,1.346
28.7628,1.256
28.7638,1.246
28.7648,1.25
28.7658,1.272
28.7658,1.427
28.7678,1.799
28.7688,2.191
28.7698,2.506
28.7708,2.629
28.7708,2.655
28.7798,2.551
28.7898,2.242
28.8017,1.836
28.8187,1.427
28.8217,1.256
28.8267,1.239
28.8287,1.238
28.8296,1.242
28.8296,1.255
28.8306,1.338
28.8316,2.407
28.8316,2.615
28.8326,2.643
28.8326,2.649
28.8346,2.529
28.8359,2.216
28.8366,1.416
28.8376,1.255
28.8376,1.242
28.8386,1.239
28.8386,1.238
28.8396,1.241
28.8406,1.252
28.8406,1.609
28.8416,2.022
28.8426,2.366
28.8426,2.597
28.8436,2.658
28.8436,2.64
28.8446,2.218
28.8456,1.814
28.8456,1.404
28.8466,1.254
28.8466,1.242
28.8476,1.238
28.8476,1.237
28.8486,1.249
28.8496,1.296
28.8506,1.559
28.8516,1.959
28.8526,2.32
28.8536,2.565
28.8536,2.64
28.8546,2.514
28.8556,2.23
28.8556,1.839
28.8566,1.421
28.8566,1.255
28.8576,1.242
28.8586,1.238
28.8586,1.24
28.8596,1.249
28.8596,1.297
28.8606,1.567
28.8606,1.973
28.8616,2.327
28.8616,2.645
28.8626,2.658
28.8626,2.538
28.8626,2.252
28.8636,1.853
28.8636,1.437
28.8636,1.257
28.8646,1.238
28.8646,1.237
28.8646,1.24
28.8656,1.248
28.8656,1.292
28.8665,1.545
28.8672,2.313
28.8675,2.567
28.8675,2.649
28.8685,2.656
28.8685,2.536
28.8685,2.257
28.8695,1.865
28.8695,1.256
28.8705,1.243
28.8705,1.238
28.8705,1.237
28.8705,1.239
28.8715,1.247
28.8715,1.283
28.8715,1.915
28.8715,2.269
28.8725,2.53
28.8725,2.658
28.8725,2.641
28.8735,2.531
28.8735,2.257
28.8735,1.454
28.8745,1.257
28.8745,1.242
28.8745,1.238
28.8745,1.237
28.8755,1.239
28.8755,1.277
28.8755,1.479
28.8765,1.868
28.8765,2.232
28.8765,2.503
28.8765,2.633
28.8775,2.645
28.8775,2.257
28.8775,1.861
28.8775,1.431
28.8785,1.256
28.8785,1.242
28.8785,1.238
28.8795,1.238
28.8795,1.243
28.8795,1.266
28.8795,1.426
28.8795,1.808
28.8805,2.176
28.8805,2.446
28.8805,2.616
28.8805,2.487
28.8815,2.215
28.8815,1.825
28.8815,1.413
28.8815,1.254
28.8815,1.237
28.8825,1.236
28.8825,1.237
28.8825,1.242
28.8825,1.262
28.8836,1.391
28.8858,1.76
28.8865,2.41
28.8875,2.569
28.8935,2.596
28.8935,2.471
28.8945,2.215
28.9006,1.836
28.9015,1.255
28.9024,1.241
28.9044,1.237
28.9074,1.236
28.9154,1.237
28.9184,1.241
28.9184,1.26
28.9184,1.737
28.9194,2.121
28.9194,2.402
28.9194,2.576
28.9194,2.611
28.9194,2.492
28.9204,1.864
28.9204,1.449
28.9204,1.257
28.9204,1.242
28.9204,1.238
28.9214,1.236
28.9214,1.237
28.9214,1.262
28.9214,1.393
28.9214,1.769
28.9224,2.157
28.9224,2.45
28.9224,2.613
28.9224,2.562
28.9224,2.34
28.9234,1.973
28.9234,1.557
28.9234,1.271
28.9234,1.245
28.9234,1.239
28.9234,1.239
28.9244,1.244
28.9244,1.268
28.9244,1.44
28.9244,1.833
28.9244,2.223
28.9254,2.642
28.9254,2.642
28.9254,2.631
28.9254,2.413
28.9254,2.055
28.9264,1.638
28.9264,1.302
28.9264,1.24
28.9264,1.238
28.9264,1.239
28.9274,1.245
28.9274,1.269
28.9274,1.446
28.9274,2.227
28.9274,2.525
28.9274,2.653
28.9284,2.633
28.9284,2.632
28.9284,2.439
28.9284,2.082
28.9284,1.312
28.9294,1.249
28.9294,1.241
28.9294,1.238
28.9294,1.239
28.9294,1.245
28.9304,1.426
28.9304,1.819
28.9304,2.212
28.9304,2.506
28.9304,2.643
28.9314,2.642
28.9314,2.622
28.9314,2.1
28.9314,1.682
28.9324,1.319
28.9324,1.25
28.9324,1.241
28.9324,1.239
28.9324,1.245
28.9334,1.267
28.9334,1.428
28.9344,1.811
28.9344,2.197
28.9344,2.511
28.9344,2.641
28.9354,2.628
28.9354,2.481
28.9354,2.128
28.9354,1.713
28.9354,1.342
28.9364,1.251
28.9374,1.241
28.9384,1.239
28.9404,1.244
28.9414,1.265
28.9424,1.409
28.9445,1.787
28.9455,2.189
28.9465,2.504
28.9486,2.634
28.9495,2.643
28.9515,2.499
28.9524,2.162
28.9535,1.742
28.9555,1.353
28.9565,1.242
28.9576,1.239
28.9595,1.239
28.9605,1.244
28.9615,1.265
28.9625,1.415
28.9645,1.798
28.9655,2.501
28.9678,2.638
28.9685,2.625
28.9695,2.633
28.9715,2.51
28.9725,2.19
28.9735,1.775
28.9755,1.253
28.9765,1.242
28.9775,1.239
28.9795,1.24
28.9805,1.245
28.9815,1.264
28.9836,1.403
28.9845,2.188
28.9855,2.508
28.9887,2.634
28.9897,2.63
28.9897,2.628
28.9918,2.545
28.9927,1.809
28.9951,1.403
29.0001,1.256
29.0041,1.243
29.0166,1.24
29.0335,1.24
29.0360,1.245
29.0410,1.394
29.0431,1.765
29.0440,2.176
29.0440,2.499
29.0450,2.636
29.0450,2.63
29.0460,2.631
29.0460,2.243
29.0480,1.835
29.0480,1.425
29.0490,1.257
29.0490,1.244
29.0500,1.24
29.0510,1.24
29.0520,1.262
29.0530,1.387
29.0530,1.76
29.0540,2.166
29.0540,2.497
29.0550,2.645
29.0550,2.629
29.0560,2.576
29.0560,2.279
29.0570,1.871
29.0580,1.458
29.0580,1.259
29.0590,1.245
29.0590,1.24
29.0600,1.245
29.0610,1.263
29.0620,1.385
29.0620,1.756
29.0630,2.168
29.0640,2.503
29.0649,2.637
29.0649,2.645
29.0659,2.601
29.0680,2.306
29.0689,1.899
29.0699,1.483
29.0699,1.262
29.0709,1.24
29.0719,1.24
29.0719,1.244
29.0729,1.259
29.0729,1.365
29.0739,1.723
29.0749,2.469
29.0759,2.636
29.0759,2.623
29.0769,2.647
29.0780,2.583
29.0780,2.294
29.0790,1.887
29.0790,1.261
29.0799,1.244
29.0809,1.24
29.0809,1.239
29.0819,1.243
29.0819,1.257
29.0829,1.352
29.0849,2.099
29.0860,2.451
29.0869,2.641
29.0891,2.622
29.0899,2.637
29.0909,2.605
29.0919,2.329
29.0939,1.508
29.0949,1.266
29.1018,1.246
29.1148,1.241
29.1328,1.24
29.1368,1.244
29.1418,1.258
29.1427,1.7
29.1427,2.109
29.1438,2.454
29.1438,2.644
29.1447,2.638
29.1452,2.632
29.1457,2.358
29.1457,1.957
29.1467,1.538
29.1478,1.271
29.1478,1.247
29.1487,1.241
29.1490,1.24
29.1497,1.256
29.1507,1.339
29.1517,1.672
29.1517,2.079
29.1517,2.437
29.1527,2.637
29.1527,2.634
29.1532,2.626
29.1537,2.377
29.1537,1.984
29.1537,1.565
29.1537,1.277
29.1547,1.248
29.1547,1.24
29.1547,1.243
29.1547,1.256
29.1558,1.335
29.1558,1.665
29.1558,2.078
29.1567,2.439
29.1567,2.635
29.1567,2.635
29.1567,2.633
29.1578,2.387
29.1578,2.0
29.1578,1.589
29.1587,1.284
29.1587,1.242
29.1594,1.24
29.1597,1.244
29.1607,1.255
29.1617,1.325
29.1637,1.646
29.1647,2.06
29.1667,2.635
29.1677,2.635
29.1687,2.631
29.1697,2.648
29.1707,2.467
29.1737,2.073
29.1748,1.3
29.1757,1.251
29.1778,1.243
29.1787,1.242
29.1797,1.244
29.1818,1.256
29.1828,1.319
29.1837,1.936
29.1856,2.24
29.1868,2.437
29.1876,2.499
29.1898,2.454
29.1907,2.243
29.1917,1.897
29.1937,1.25
29.1946,1.236
29.1956,1.232
29.1977,1.232
29.1986,1.231
29.1996,1.233
29.2017,1.24
29.2027,1.404
29.2037,1.745
29.2079,2.121
29.2156,2.507
29.2245,2.634
29.2265,2.701
29.2295,2.71
29.2306,2.447
29.2306,2.051
29.2316,1.625
29.2316,1.326
29.2316,1.264
29.2326,1.258
29.2326,1.321
29.2326,1.601
29.2335,2.006
29.2345,2.419
29.2345,2.64
29.2356,2.705
29.2356,2.71
29.2356,2.71
29.2366,2.618
29.2366,2.317
29.2366,1.87
29.2376,1.447
29.2376,1.26
29.2376,1.246
29.2408,1.245
29.2408,1.257
29.2408,1.325
29.2440,1.643
29.2448,2.052
29.2458,2.426
29.2481,2.635
29.2481,2.636
29.2491,2.65
29.2511,2.532
29.2531,2.163
29.2531,1.74
29.2557,1.351
29.2567,1.244
29.2577,1.241
29.2604,1.243
29.2604,1.252
29.2615,1.301
29.2636,1.589
29.2645,1.99
29.2656,2.616
29.2687,2.626
29.2687,2.637
29.2695,2.653
29.2717,2.513
29.2725,2.15
29.2747,1.723
29.2757,1.253
29.2765,1.243
29.2785,1.241
29.2796,1.242
29.2805,1.25
29.2825,1.289
29.2836,1.536
29.2845,2.32
29.2867,2.599
29.2876,2.637
29.2885,2.634
29.2917,2.648
29.2917,2.495
29.2927,1.719
29.2959,1.349
29.2970,1.253
29.2970,1.243
29.2981,1.24
29.2988,1.242
29.2998,1.249
29.3030,1.515
29.3038,1.918
29.3038,2.307
29.3075,2.589
29.3081,2.63
29.3103,2.635
29.3103,2.642
29.3111,2.167
29.3142,1.362
29.3166,1.254
29.3174,1.244
29.3182,1.242
29.3204,1.249
29.3214,1.284
29.3222,1.511
29.3256,1.918
29.3256,2.309
29.3268,2.596
29.3306,2.634
29.3389,2.634
29.3486,2.541
29.3506,2.201
29.3540,1.79
29.3546,1.392
29.3546,1.245
29.3546,1.241
29.3556,1.242
29.3556,1.249
29.3556,1.282
29.3566,1.504
29.3566,1.912
29.3566,2.594
29.3576,2.635
29.3576,2.631
29.3576,2.633
29.3586,2.561
29.3586,2.232
29.3586,1.408
29.3596,1.258
29.3596,1.245
29.3596,1.241
29.3596,1.242
29.3606,1.248
29.3637,1.483
29.3637,1.885
29.3646,2.281
29.3666,2.576
29.3676,2.639
29.3686,2.637
29.3707,2.638
29.3716,2.232
29.3726,1.811
29.3747,1.405
29.3756,1.257
29.3765,1.244
29.3788,1.24
29.3795,1.247
29.3817,1.273
29.3833,1.455
29.3843,1.851
29.3853,2.253
29.3865,2.564
29.3873,2.634
29.3896,2.64
29.3903,2.559
29.3913,2.24
29.3935,1.824
29.3944,1.411
29.3954,1.256
29.3986,1.24
29.3986,1.241
29.4008,1.246
29.4016,1.267
29.4026,1.417
29.4050,1.802
29.4057,2.511
29.4066,2.652
29.4094,2.628
29.4100,2.645
29.4100,2.54
29.4127,2.226
29.4137,1.805
29.4147,1.255
29.4165,1.243
29.4172,1.24
29.4182,1.24
29.4204,1.245
29.4212,1.263
29.4248,1.768
29.4248,2.171
29.4248,2.494
29.4280,2.631
29.4288,2.635
29.4288,2.636
29.4321,2.554
29.4321,1.832
29.4331,1.427
29.4370,1.258
29.4403,1.244
29.4420,1.24
29.4490,1.24
29.4592,1.26
29.4622,1.376
29.4652,1.739
29.4652,2.145
29.4664,2.467
29.4666,2.636
29.4678,2.631
29.4684,2.544
29.4684,2.24
29.4684,1.834
29.4694,1.421
29.4694,1.257
29.4694,1.244
29.4704,1.24
29.4704,1.244
29.4704,1.259
29.4714,1.367
29.4714,1.726
29.4714,2.128
29.4726,2.463
29.4726,2.632
29.4726,2.651
29.4736,2.57
29.4736,2.28
29.4736,1.873
29.4746,1.461
29.4756,1.26
29.4766,1.24
29.4789,1.24
29.4789,1.244
29.4800,1.26
29.4836,1.373
29.4839,1.732
29.4850,2.138
29.4870,2.637
29.4870,2.634
29.4904,2.64
29.4904,2.608
29.4915,2.323
29.4947,1.919
29.4954,1.266
29.4956,1.246
29.4986,1.241
29.5000,1.24
29.5000,1.244
29.5017,1.261
29.5029,1.37
29.5037,2.139
29.5067,2.486
29.5067,2.634
29.5074,2.638
29.5106,2.629
29.5106,2.604
29.5116,2.361
29.5141,1.549
29.5147,1.273
29.5166,1.247
29.5177,1.242
29.5186,1.241
29.5218,1.245
29.5218,1.26
29.5229,1.727
29.5258,2.142
29.5258,2.493
29.5268,2.632
29.5295,2.634
29.5303,2.633
29.5303,2.384
29.5332,1.996
29.5332,1.574
29.5344,1.279
29.5368,1.248
29.5378,1.242
29.5388,1.241
29.5418,1.259
29.5418,1.359
29.5449,1.716
29.5499,2.134
29.5631,2.479
29.5756,2.633
29.5774,2.636
29.5816,2.647
29.5826,2.417
29.5836,2.035
29.5846,1.616
29.5846,1.292
29.5856,1.25
29.5856,1.241
29.5866,1.245
29.5867,1.259
29.5867,1.361
29.5877,1.715
29.5877,2.125
29.5887,2.485
29.5887,2.627
29.5887,2.636
29.5898,2.639
29.5898,2.436
29.5907,2.046
29.5907,1.628
29.5917,1.297
29.5917,1.243
29.5917,1.241
29.5929,1.244
29.5929,1.258
29.5929,1.346
29.5939,1.689
29.5939,2.097
29.5949,2.647
29.5949,2.632
29.5949,2.633
29.5959,2.624
29.5959,2.449
29.5969,2.07
29.5969,1.313
29.5969,1.25
29.5980,1.243
29.5980,1.241
29.5991,1.244
29.6011,1.258
29.6033,1.681
29.6033,2.089
29.6054,2.456
29.6063,2.637
29.6073,2.634
29.6108,2.642
29.6108,2.65
29.6119,2.102
29.6140,1.695
29.6140,1.327
29.6150,1.252
29.6192,1.244
29.6192,1.241
29.6202,1.257
29.6212,1.337
29.6222,1.664
29.6246,2.069
29.6258,2.436
29.6266,2.631
29.6298,2.634
29.6298,2.644
29.6309,2.496
29.6333,2.126
29.6333,1.709
29.6342,1.338
29.6366,1.254
29.6375,1.242
29.6385,1.244
29.6409,1.256
29.6419,1.325
29.6429,1.64
29.6461,2.057
29.6461,2.436
29.6477,2.634
29.6489,2.638
29.6497,2.649
29.6521,2.517
29.6531,2.16
29.6573,1.736
29.6684,1.255
29.6702,1.244
29.6814,1.242
29.6866,1.244
29.6877,1.256
29.6885,1.327
29.6885,1.648
29.6895,2.439
29.6895,2.629
29.6905,2.635
29.6905,2.639
29.6905,2.633
29.6917,2.538
29.6917,1.77
29.6927,1.378
29.6927,1.256
29.6937,1.245
29.6937,1.242
29.6937,1.244
29.6947,1.311
29.6947,1.601
29.6957,2.01
29.6957,2.395
29.6957,2.626
29.6967,2.625
29.6967,2.635
29.6979,2.519
29.6979,2.157
29.6979,1.745
29.6990,1.359
29.7000,1.254
29.7009,1.244
29.7009,1.243
29.7019,1.252
29.7019,1.3
29.7030,1.574
29.7030,1.989
29.7068,2.379
29.7068,2.623
29.7078,2.638
29.7100,2.631
29.7100,2.542
29.7137,2.214
29.7144,1.799
29.7151,1.403
29.7166,1.246
29.7181,1.243
29.7181,1.244
29.7205,1.253
29.7215,1.308
29.7225,1.594
29.7256,2.006
29.7256,2.622
29.7287,2.635
29.7287,2.637
29.7297,2.641
29.7310,2.581
29.7328,2.243
29.7338,1.408
29.7348,1.259
29.7368,1.246
29.7378,1.242
29.7388,1.244
29.7408,1.253
29.7419,1.299
29.7429,1.979
29.7449,2.369
29.7449,2.622
29.7469,2.636
29.7480,2.635
29.7490,2.631
29.7510,2.258
29.7520,1.844
29.7542,1.436
29.7552,1.261
29.7562,1.246
29.7581,1.243
29.7595,1.252
29.7651,1.295
29.7673,1.557
29.7794,1.965
29.7924,2.357
29.7945,2.609
29.8001,2.634
29.8007,2.635
29.8017,2.601
29.8017,2.283
29.8027,1.869
29.8027,1.462
29.8037,1.263
29.8037,1.243
29.8047,1.244
29.8047,1.251
29.8047,1.289
29.8058,1.535
29.8058,1.947
29.8068,2.346
29.8079,2.632
29.8079,2.71
29.8079,2.66
29.8088,2.615
29.8088,2.336
29.8098,1.909
29.8098,1.268
29.8108,1.249
29.8108,1.244
29.8120,1.245
29.8120,1.253
29.8131,1.288
29.8131,1.839
29.8140,2.174
29.8140,2.428
29.8150,2.55
29.8150,2.571
29.8160,2.438
29.8160,2.157
29.8170,1.313
29.8177,1.242
29.8180,1.235
29.8190,1.232
29.8190,1.232
29.8200,1.232
29.8200,1.255
29.8210,1.352
29.8232,1.65
29.8242,2.024
29.8252,2.413
29.8272,2.636
29.8282,2.71
29.8293,2.71
29.8313,2.628
29.8323,2.377
29.8345,1.953
29.8355,1.571
29.8364,1.323
29.8385,1.272
29.8396,1.316
29.8407,1.537
29.8426,1.916
29.8436,2.319
29.8446,2.625
29.8467,2.702
29.8477,2.71
29.8487,2.71
29.8507,2.693
29.8517,2.546
29.8528,2.162
29.8547,1.726
29.8557,1.255
29.8568,1.247
29.8579,1.247
29.8598,1.254
29.8608,1.292
29.8628,1.528
29.8638,1.933
29.8648,2.604
29.8668,2.637
29.8679,2.685
29.8739,2.662
29.8859,2.625
29.8991,2.419
29.9033,1.587
29.9073,1.285
29.9083,1.251
29.9083,1.244
29.9093,1.243
29.9093,1.25
29.9093,1.462
29.9103,1.86
29.9103,2.268
29.9113,2.579
29.9113,2.632
29.9123,2.635
29.9123,2.634
29.9123,2.399
29.9134,1.995
29.9144,1.576
29.9144,1.283
29.9154,1.25
29.9154,1.243
29.9154,1.248
29.9175,1.27
29.9184,1.425
29.9184,1.818
29.9195,2.221
29.9195,2.553
29.9206,2.634
29.9206,2.634
29.9215,2.636
29.9215,2.389
29.9225,1.983
29.9225,1.565
29.9225,1.278
29.9235,1.243
29.9235,1.242
29.9245,1.247
29.9245,1.266
29.9256,1.405
29.9256,1.785
29.9266,2.192
29.9266,2.629
29.9276,2.637
29.9287,2.636
29.9306,2.633
29.9317,2.413
29.9328,2.025
29.9347,1.292
29.9357,1.25
29.9367,1.243
29.9379,1.243
29.9399,1.247
29.9409,1.265
29.9419,1.785
29.9440,2.202
29.9451,2.538
29.9461,2.632
29.9471,2.636
29.9491,2.647
29.9502,2.631
29.9513,2.047
29.9532,1.632
29.9542,1.301
29.9552,1.251
29.9574,1.243
29.9583,1.242
29.9595,1.264
29.9613,1.391
29.9625,1.766
29.9645,2.186
29.9655,2.534
29.9665,2.633
29.9684,2.633
29.9696,2.648
29.9704,2.452
29.9724,2.057
29.9734,1.645
29.9786,1.305
29.9828,1.252
29.9938,1.242
30.0078,1.246
30.0208,1.261
30.0219,1.372
30.0228,1.727
30.0238,2.139
30.0238,2.635
30.0238,2.635
30.0248,2.627
30.0248,2.444
30.0258,2.053
30.0258,1.304
30.0268,1.25
30.0268,1.243
30.0278,1.241
30.0278,1.245
30.0278,1.258
30.0288,1.698
30.0288,2.103
30.0298,2.46
30.0298,2.646
30.0298,2.632
30.0307,2.63
30.0307,2.644
30.0317,2.052
30.0317,1.632
30.0317,1.299
30.0327,1.25
30.0338,1.242
30.0347,1.241
30.0387,1.254
30.0397,1.323
30.0397,1.64
30.0407,2.044
30.0407,2.403
30.0407,2.62
30.0417,2.636
30.0417,2.638
30.0427,2.423
30.0427,2.045
30.0437,1.626
30.0437,1.294
30.0437,1.249
30.0447,1.24
30.0447,1.243
30.0457,1.253
30.0467,1.312
30.0467,1.604
30.0467,2.014
30.0477,2.624
30.0477,2.634
30.0487,2.624
30.0497,2.64
30.0510,2.448
30.0527,2.069
30.0538,1.649
30.0547,1.25
30.0567,1.242
30.0577,1.24
30.0594,1.243
30.0607,1.252
30.0617,1.304
30.0637,1.999
30.0647,2.371
30.0657,2.611
30.0677,2.627
30.0687,2.629
30.0696,2.634
30.0716,2.456
30.0726,1.666
30.0737,1.322
30.0757,1.251
30.0766,1.242
30.0776,1.24
30.0796,1.242
30.0806,1.307
30.0826,1.59
30.0836,2.0
30.0896,2.375
30.0933,2.626
30.1085,2.632
30.1205,2.635
30.1365,2.493
30.1386,2.126
30.1442,1.717
30.1444,1.344
30.1444,1.253
30.1455,1.243
30.1455,1.244
30.1464,1.253
30.1464,1.305
30.1464,1.59
30.1474,2.008
30.1474,2.389
30.1474,2.624
30.1484,2.638
30.1484,2.63
30.1494,2.528
30.1494,2.181
30.1507,1.76
30.1514,1.372
30.1514,1.244
30.1524,1.242
30.1527,1.244
30.1527,1.254
30.1534,1.306
30.1534,1.6
30.1540,2.011
30.1544,2.627
30.1544,2.635
30.1544,2.637
30.1554,2.637
30.1554,2.559
30.1554,2.217
30.1564,1.396
30.1564,1.258
30.1564,1.245
30.1574,1.242
30.1574,1.244
30.1574,1.253
30.1584,1.305
30.1588,1.993
30.1588,2.38
30.1594,2.624
30.1594,2.632
30.1594,2.636
30.1604,2.64
30.1604,2.57
30.1604,1.81
30.1614,1.408
30.1614,1.258
30.1614,1.246
30.1624,1.243
30.1624,1.244
30.1624,1.252
30.1635,1.576
30.1635,1.984
30.1644,2.371
30.1654,2.62
30.1674,2.637
30.1684,2.635
30.1696,2.569
30.1714,2.258
30.1724,1.843
30.1734,1.432
30.1754,1.262
30.1764,1.247
30.1774,1.243
30.1793,1.252
30.1803,1.298
30.1823,1.557
30.1833,1.969
30.1843,2.365
30.1863,2.626
30.1873,2.702
30.1883,2.634
30.1903,2.594
30.1913,2.288
30.1923,1.872
30.1954,1.463
30.1993,1.263
30.2073,1.243
30.2118,1.244
30.2172,1.251
30.2198,1.291
30.2231,1.541
30.2233,1.951
30.2242,2.35
30.2242,2.633
30.2242,2.638
30.2252,2.634
30.2254,2.605
30.2254,2.299
30.2262,1.877
30.2262,1.265
30.2268,1.247
30.2272,1.243
30.2272,1.244
30.2272,1.251
30.2282,1.286
30.2282,1.522
30.2282,2.33
30.2292,2.61
30.2292,2.63
30.2292,2.71
30.2302,2.648
30.2306,2.611
30.2312,2.332
30.2332,1.509
30.2342,1.268
30.2357,1.248
30.2372,1.243
30.2382,1.243
30.2392,1.25
30.2413,1.282
30.2423,1.909
30.2433,2.307
30.2453,2.601
30.2463,2.633
30.2483,2.644
30.2493,2.661
30.2504,2.343
30.2523,1.932
30.2533,1.518
30.2543,1.27
30.2563,1.248
30.2577,1.243
30.2584,1.243
30.2604,1.28
30.2617,1.497
30.2623,1.901
30.2643,2.299
30.2653,2.598
30.2663,2.63
30.2683,2.63
30.2695,2.615
30.2714,2.363
30.2724,1.955
30.2734,1.537
30.2754,1.273
30.2764,1.249
30.2774,1.244
30.2794,1.251
30.2798,1.281
30.2808,1.498
30.2828,1.902
30.2842,2.304
30.2848,2.635
30.2868,2.643
30.2878,2.648
30.2898,2.635
30.2911,2.399
30.2922,1.995
30.2938,1.287
30.2948,1.25
30.2960,1.244
30.2981,1.244
30.2998,1.25
30.3008,1.277
30.3018,1.471
30.3069,2.261
30.3147,2.575
30.3237,2.635
30.3257,2.673
30.3287,2.664
30.3287,2.619
30.3297,1.982
30.3297,1.568
30.3297,1.277
30.3307,1.249
30.3307,1.243
30.3307,1.243
30.3307,1.248
30.3317,1.422
30.3317,1.814
30.3317,2.225
30.3328,2.558
30.3328,2.638
30.3337,2.637
30.3347,2.617
30.3347,2.406
30.3356,2.003
30.3357,1.586
30.3357,1.287
30.3357,1.25
30.3377,1.244
30.3387,1.25
30.3397,1.273
30.3417,1.446
30.3427,1.839
30.3438,2.249
30.3448,2.578
30.3458,2.678
30.3478,2.675
30.3488,2.646
30.3508,2.442
30.3518,2.047
30.3528,1.63
30.3548,1.252
30.3558,1.244
30.3578,1.243
30.3588,1.248
30.3608,1.268
30.3608,1.419
30.3628,1.802
30.3638,2.549
30.3658,2.638
30.3669,2.665
30.3684,2.663
30.3692,2.627
30.3708,2.451
30.3721,1.641
30.3738,1.309
30.3748,1.252
30.3762,1.244
30.3783,1.243
30.3789,1.248
30.3800,1.267
30.3824,1.788
30.3829,2.201
30.3840,2.555
30.3860,2.629
30.3870,2.649
30.3879,2.677
30.3899,2.477
30.3913,2.075
30.3919,1.651
30.3940,1.313
30.3953,1.251
30.3970,1.244
30.3980,1.243
30.3990,1.265
30.4011,1.403
30.4021,1.786
30.4031,2.189
30.4051,2.546
30.4061,2.63
30.4072,2.685
30.4092,2.649
30.4112,2.485
30.4162,2.104
30.4206,1.701
30.4283,1.342
30.4401,1.257
30.4425,1.244
30.4465,1.248
30.4475,1.266
30.4475,1.403
30.4485,1.786
30.4485,2.208
30.4485,2.637
30.4497,2.638
30.4505,2.638
30.4515,2.633
30.4515,2.37
30.4525,1.918
30.4525,1.252
30.4535,1.239
30.4536,1.235
30.4536,1.233
30.4545,1.233
30.4545,1.235
30.4556,1.241
30.4556,1.373
30.4556,1.797
30.4566,2.352
30.4566,2.639
30.4576,2.633
30.4576,2.533
30.4576,2.253
30.4586,1.699
30.4586,1.455
30.4586,1.345
30.4586,1.294
30.4596,1.277
30.4601,1.295
30.4606,1.74
30.4617,2.153
30.4636,2.558
30.4646,2.691
30.4666,2.71
30.4677,2.71
30.4686,2.71
30.4706,2.672
30.4716,2.495
30.4727,2.083
30.4745,1.668
30.4757,1.339
30.4765,1.261
30.4787,1.257
30.4795,1.28
30.4805,1.435
30.4825,1.81
30.4835,2.215
30.4856,2.565
30.4866,2.71
30.4876,2.71
30.4886,2.642
30.4906,2.575
30.4916,2.226
30.4936,1.811
30.4946,1.26
30.4957,1.247
30.4977,1.244
30.4988,1.247
30.4997,1.26
30.5007,1.351
30.5028,1.698
30.5038,2.484
30.5058,2.633
30.5068,2.646
30.5080,2.71
30.5099,2.639
30.5099,2.555
30.5119,1.782
30.5141,1.388
30.5150,1.258
30.5160,1.246
30.5170,1.243
30.5187,1.245
30.5201,1.256
30.5211,1.651
30.5221,2.061
30.5241,2.434
30.5251,2.635
30.5272,2.638
30.5282,2.636
30.5341,2.541
30.5454,2.184
30.5464,1.767
30.5564,1.377
30.5594,1.257
30.5634,1.245
30.5645,1.242
30.5654,1.255
30.5654,1.31
30.5664,1.611
30.5670,2.024
30.5674,2.405
30.5686,2.627
30.5686,2.637
30.5694,2.636
30.5694,2.549
30.5694,2.211
30.5704,1.789
30.5704,1.394
30.5704,1.246
30.5714,1.242
30.5714,1.244
30.5724,1.253
30.5724,1.307
30.5734,1.595
30.5744,2.01
30.5745,2.631
30.5755,2.634
30.5765,2.642
30.5765,2.639
30.5775,2.574
30.5775,2.235
30.5785,1.821
30.5785,1.259
30.5799,1.245
30.5805,1.242
30.5805,1.244
30.5815,1.253
30.5823,1.3
30.5825,1.989
30.5839,2.382
30.5856,2.623
30.5865,2.634
30.5885,2.636
30.5895,2.642
30.5905,2.239
30.5926,1.824
30.5936,1.417
30.5946,1.259
30.5966,1.246
30.5977,1.242
30.5988,1.243
30.5997,1.293
30.6017,1.547
30.6027,1.956
30.6047,2.348
30.6057,2.614
30.6066,2.636
30.6087,2.64
30.6096,2.572
30.6106,2.24
30.6126,1.83
30.6136,1.421
30.6147,1.259
30.6167,1.245
30.6177,1.243
30.6187,1.25
30.6201,1.282
30.6221,1.506
30.6231,1.915
30.6241,2.311
30.6252,2.633
30.6271,2.636
30.6311,2.646
30.6331,2.556
30.6420,2.221
30.6530,1.809
30.6550,1.257
30.6580,1.244
30.6584,1.241
30.6584,1.241
30.6590,1.247
30.6590,1.273
30.6590,1.46
30.6601,2.248
30.6601,2.551
30.6601,2.638
30.6610,2.631
30.6610,2.634
30.6610,2.538
30.6610,2.212
30.6621,1.392
30.6621,1.255
30.6626,1.243
30.6631,1.24
30.6631,1.268
30.6631,1.425
30.6641,1.815
30.6641,2.211
30.6651,2.527
30.6671,2.631
30.6680,2.637
30.6690,2.536
30.6701,2.217
30.6720,1.806
30.6737,1.406
30.6740,1.256
30.6760,1.244
30.6772,1.24
30.6780,1.245
30.6801,1.265
30.6811,1.41
30.6831,1.79
30.6843,2.188
30.6851,2.511
30.6871,2.631
30.6881,2.641
30.6891,2.549
30.6911,2.231
30.6921,1.825
30.6931,1.42
30.6951,1.244
30.6962,1.24
30.6971,1.24
30.6991,1.245
30.7001,1.265
30.7013,1.407
30.7031,2.195
30.7041,2.526
30.7061,2.637
30.7072,2.636
30.7082,2.644
30.7102,2.585
30.7112,2.299
30.7126,1.476
30.7137,1.262
30.7156,1.246
30.7166,1.242
30.7176,1.242
30.7197,1.247
30.7207,1.426
30.7217,1.818
30.7237,2.216
30.7251,2.545
30.7267,2.639
30.7277,2.642
30.7291,2.595
30.7307,2.342
30.7307,1.946
30.7327,1.532
30.7337,1.27
30.7347,1.247
30.7374,1.242
30.7384,1.247
30.7394,1.269
30.7415,1.429
30.7425,1.827
30.7435,2.234
30.7454,2.563
30.7464,2.636
30.7475,2.635
30.7506,2.636
30.7556,2.381
30.7568,1.978
30.7616,1.563
30.7628,1.278
30.7648,1.243
30.7656,1.242
30.7656,1.247
30.7656,1.269
30.7666,1.423
30.7676,1.806
30.7676,2.552
30.7676,2.634
30.7686,2.634
30.7686,2.64
30.7696,2.619
30.7707,2.397
30.7726,1.586
30.7736,1.284
30.7759,1.25
30.7768,1.243
30.7778,1.242
30.7797,1.248
30.7807,1.266
30.7818,1.795
30.7839,2.197
30.7839,2.541
30.7849,2.633
30.7869,2.638
30.7880,2.632
30.7901,2.633
30.7911,2.025
30.7921,1.61
30.7946,1.295
30.7956,1.25
30.7966,1.244
30.7988,1.243
30.7996,1.266
30.8005,1.403
30.8023,1.788
30.8033,2.193
30.8044,2.533
30.8066,2.631
30.8076,2.635
30.8086,2.643
30.8106,2.451
30.8116,2.064
30.8126,1.648
30.8146,1.301
30.8157,1.251
30.8167,1.244
30.8187,1.247
30.8197,1.264
30.8210,1.39
30.8227,1.757
30.8236,2.159
30.8246,2.519
30.8268,2.634
30.8278,2.637
30.8288,2.635
30.8307,2.468
30.8317,2.085
30.8331,1.666
30.8349,1.317
30.8359,1.244
30.8374,1.242
30.8379,1.247
30.8390,1.263
30.8410,1.38
30.8420,1.75
30.8430,2.167
30.8450,2.634
30.8460,2.643
30.8478,2.637
30.8490,2.631
30.8509,2.483
30.8519,2.097
30.8529,1.676
30.8539,1.253
30.8561,1.244
30.8609,1.242
30.8712,1.246
30.8845,1.261
30.8874,1.37
30.8917,2.144
30.8917,2.509
30.8925,2.633
30.8925,2.638
30.8935,2.64
30.8938,2.63
30.8938,2.495
30.8945,1.702
30.8945,1.333
30.8945,1.254
30.8954,1.244
30.8954,1.242
30.8963,1.246
30.8963,1.26
30.8973,1.71
30.8973,2.124
30.8973,2.49
30.8983,2.64
30.8983,2.645
30.8983,2.637
30.8993,2.506
30.8997,2.135
30.9013,1.717
30.9013,1.344
30.9013,1.255
30.9025,1.245
30.9025,1.242
30.9033,1.259
30.9033,1.354
30.9033,1.702
30.9043,2.116
30.9043,2.492
30.9053,2.635
30.9073,2.634
30.9084,2.648
30.9093,2.536
30.9113,2.171
30.9123,1.753
30.9132,1.366
30.9153,1.256
30.9164,1.245
30.9179,1.246
30.9193,1.26
30.9207,1.354
30.9225,1.692
30.9235,2.107
30.9245,2.48
30.9266,2.64
30.9276,2.662
30.9286,2.635
30.9305,2.538
30.9315,2.18
30.9326,1.757
30.9346,1.369
30.9356,1.245
30.9366,1.242
30.9386,1.245
30.9396,1.256
30.9406,1.325
30.9426,1.632
30.9438,2.424
30.9453,2.636
30.9464,2.639
30.9473,2.642
30.9496,2.634
30.9506,2.514
30.9516,2.154
30.9536,1.369
30.9545,1.255
30.9557,1.245
30.9576,1.242
30.9586,1.244
30.9596,1.255
30.9617,1.628
30.9627,2.046
30.9641,2.427
30.9677,2.641
30.9746,2.639
30.9817,2.677
30.9917,2.638
30.9947,2.215
30.9978,1.8
30.9978,1.402
30.9988,1.259
30.9988,1.246
30.9998,1.243
31.0008,1.256
31.0022,1.317
31.0022,1.623
31.0029,2.039
31.0029,2.421
31.0039,2.635
31.0039,2.673
31.0046,2.631
31.0049,2.559
31.0049,2.236
31.0049,1.82
31.0059,1.418
31.0063,1.26
31.0069,1.243
31.0069,1.244
31.0080,1.254
31.0084,1.309
31.0090,1.598
31.0090,2.013
31.0100,2.627
31.0100,2.635
31.0110,2.641
31.0110,2.631
31.0110,2.584
31.0120,2.247
31.0123,1.823
31.0141,1.26
31.0150,1.246
31.0160,1.243
31.0180,1.244
31.0193,1.253
31.0208,1.303
31.0220,1.998
31.0234,2.385
31.0248,2.627
31.0261,2.634
31.0270,2.645
31.0290,2.631
31.0300,2.587
31.0310,1.857
31.0332,1.452
31.0344,1.262
31.0350,1.247
31.0369,1.243
31.0390,1.244
31.0399,1.303
31.0412,1.572
31.0419,2.0
31.0429,2.408
31.0461,2.636
31.0461,2.67
31.0495,2.651
31.0495,2.601
31.0505,2.321
31.0526,1.924
31.0547,1.514
31.0547,1.271
31.0569,1.248
31.0577,1.242
31.0587,1.247
31.0615,1.262
31.0620,1.359
31.0620,1.676
31.0656,2.026
31.0656,2.396
31.0666,2.393
31.0687,2.247
31.0696,1.98
31.0726,1.568
31.0778,1.272
31.0897,1.25
31.1085,1.245
31.1121,1.24
31.1184,1.239
31.1194,1.243
31.1208,1.276
31.1214,1.565
31.1224,2.622
31.1234,2.71
31.1244,2.71
31.1260,2.71
31.1267,2.71
31.1276,2.71
31.1276,2.634
31.1284,1.979
31.1297,1.621
31.1304,1.358
31.1314,1.277
31.1324,1.274
31.1338,1.306
31.1354,1.83
31.1366,2.229
31.1374,2.577
31.1384,2.671
31.1394,2.71
31.1394,2.71
31.1404,2.71
31.1404,2.446
31.1414,2.021
31.1424,1.592
31.1434,1.286
31.1444,1.25
31.1444,1.245
31.1454,1.252
31.1464,1.29
31.1464,1.527
31.1474,1.927
31.1484,2.328
31.1484,2.604
31.1494,2.703
31.1514,2.666
31.1524,2.632
31.1524,2.367
31.1534,1.96
31.1544,1.55
31.1544,1.276
31.1554,1.243
31.1564,1.243
31.1564,1.25
31.1573,1.278
31.1583,1.473
31.1583,1.876
31.1593,2.585
31.1603,2.632
31.1613,2.633
31.1613,2.653
31.1623,2.631
31.1623,2.361
31.1633,1.959
31.1643,1.271
31.1643,1.248
31.1653,1.242
31.1664,1.242
31.1673,1.247
31.1683,1.27
31.1683,1.827
31.1693,2.217
31.1703,2.55
31.1703,2.631
31.1713,2.634
31.1723,2.635
31.1783,2.62
31.1823,1.946
31.1982,1.529
31.2175,1.27
31.2252,1.248
31.2272,1.242
31.2281,1.242
31.2281,1.266
31.2292,1.417
31.2301,1.805
31.2301,2.205
31.2311,2.54
31.2311,2.637
31.2321,2.633
31.2332,2.635
31.2344,2.381
31.2351,1.979
31.2361,1.568
31.2361,1.279
31.2371,1.248
31.2381,1.242
31.2381,1.246
31.2391,1.265
31.2401,1.4
31.2401,1.788
31.2411,2.197
31.2411,2.634
31.2421,2.638
31.2431,2.631
31.2431,2.621
31.2441,2.389
31.2451,1.99
31.2451,1.576
31.2461,1.249
31.2471,1.243
31.2471,1.241
31.2481,1.246
31.2481,1.262
31.2491,1.386
31.2501,2.16
31.2511,2.498
31.2521,2.637
31.2521,2.634
31.2531,2.634
31.2541,2.616
31.2541,2.381
31.2551,1.565
31.2561,1.277
31.2561,1.248
31.2571,1.242
31.2571,1.241
31.2581,1.245
31.2591,1.352
31.2591,1.702
31.2601,2.112
31.2601,2.46
31.2611,2.636
31.2611,2.636
31.2621,2.631
31.2621,2.377
31.2631,1.976
31.2631,1.553
31.2641,1.273
31.2641,1.247
31.2651,1.241
31.2660,1.243
31.2667,1.255
31.2670,1.331
31.2670,1.653
31.2680,2.059
31.2680,2.418
31.2690,2.636
31.2690,2.628
31.2700,2.589
31.2710,2.354
31.2716,1.95
31.2726,1.52
31.2747,1.266
31.2756,1.24
31.2766,1.239
31.2787,1.241
31.2796,1.251
31.2806,1.305
31.2827,1.591
31.2836,2.353
31.2846,2.599
31.2867,2.632
31.2876,2.647
31.2897,2.585
31.2906,2.34
31.2956,1.937
31.2996,1.267
31.3125,1.245
31.3271,1.24
31.3314,1.239
31.3365,1.241
31.3375,1.25
31.3375,1.571
31.3386,1.971
31.3386,2.332
31.3396,2.597
31.3396,2.634
31.3406,2.648
31.3416,2.604
31.3418,1.96
31.3418,1.54
31.3428,1.269
31.3428,1.246
31.3438,1.24
31.3438,1.238
31.3448,1.249
31.3458,1.295
31.3458,1.554
31.3468,1.964
31.3469,2.342
31.3469,2.604
31.3480,2.636
31.3480,2.617
31.3490,2.404
31.3504,1.618
31.3509,1.295
31.3519,1.242
31.3519,1.24
31.3531,1.243
31.3531,1.252
31.3541,1.308
31.3551,1.606
31.3551,2.027
31.3561,2.616
31.3561,2.638
31.3571,2.638
31.3571,2.636
31.3581,2.478
31.3581,2.106
31.3593,1.326
31.3593,1.252
31.3603,1.243
31.3603,1.241
31.3613,1.243
31.3613,1.253
31.3623,1.317
31.3623,2.036
31.3633,2.403
31.3643,2.633
31.3665,2.639
31.3685,2.633
31.3696,2.642
31.3705,2.512
31.3717,1.722
31.3747,1.352
31.3747,1.254
31.3757,1.244
31.3787,1.241
31.3787,1.244
31.3797,1.255
31.3818,1.624
31.3829,2.037
31.3837,2.404
31.3857,2.63
31.3867,2.636
31.3877,2.632
31.3908,2.529
31.3919,2.171
31.3919,1.758
31.3943,1.376
31.3943,1.256
31.3954,1.244
31.3987,1.242
31.3997,1.253
31.4008,1.309
31.4072,1.602
31.4191,2.014
31.4346,2.39
31.4382,2.624
31.4425,2.635
31.4438,2.642
31.4444,2.541
31.4444,2.197
31.4454,1.776
31.4454,1.376
31.4475,1.257
31.4475,1.242
31.4485,1.244
31.4485,1.253
31.4504,1.303
31.4514,1.581
31.4526,1.997
31.4527,2.373
31.4537,2.629
31.4537,2.637
31.4547,2.649
31.4547,2.571
31.4557,2.228
31.4557,1.804
31.4567,1.411
31.4567,1.246
31.4579,1.242
31.4579,1.244
31.4589,1.252
31.4589,1.301
31.4599,1.565
31.4599,1.989
31.4609,2.617
31.4609,2.634
31.4626,2.64
31.4629,2.631
31.4629,2.56
31.4641,2.229
31.4641,1.416
31.4651,1.259
31.4661,1.246
31.4661,1.242
31.4671,1.243
31.4682,1.252
31.4682,1.294
31.4693,1.964
31.4693,2.356
31.4704,2.617
31.4704,2.63
31.4714,2.638
31.4714,2.632
31.4723,2.256
31.4733,1.846
31.4733,1.428
31.4745,1.26
31.4755,1.246
31.4765,1.243
31.4784,1.243
31.4795,1.289
31.4808,1.53
31.4826,1.931
31.4836,2.326
31.4856,2.606
31.4866,2.632
31.4876,2.643
31.4897,2.575
31.4907,2.278
31.4920,1.853
31.4935,1.46
31.4945,1.263
31.4955,1.242
31.4979,1.243
31.4990,1.25
31.4990,1.287
31.5032,1.527
31.5032,1.946
31.5042,2.338
31.5068,2.634
31.5078,2.64
31.5088,2.634
31.5153,2.597
31.5275,2.301
31.5415,1.883
31.5457,1.265
31.5511,1.247
31.5519,1.243
31.5529,1.243
31.5529,1.25
31.5539,1.284
31.5539,1.514
31.5552,2.319
31.5552,2.598
31.5562,2.637
31.5572,2.635
31.5572,2.634
31.5582,2.622
31.5582,1.908
31.5592,1.486
31.5592,1.263
31.5601,1.247
31.5611,1.242
31.5613,1.242
31.5623,1.248
31.5623,1.459
31.5633,1.853
31.5633,2.255
31.5643,2.569
31.5643,2.631
31.5653,2.632
31.5653,2.599
31.5673,2.313
31.5683,1.892
31.5683,1.482
31.5693,1.264
31.5703,1.246
31.5703,1.242
31.5713,1.248
31.5723,1.274
31.5726,1.456
31.5736,1.865
31.5736,2.282
31.5746,2.589
31.5746,2.635
31.5756,2.636
31.5756,2.621
31.5766,2.349
31.5766,1.948
31.5776,1.523
31.5776,1.249
31.5787,1.243
31.5787,1.243
31.5798,1.249
31.5798,1.274
31.5827,1.457
31.5844,1.853
31.5847,2.576
31.5858,2.636
31.5867,2.638
31.5897,2.636
31.5907,2.634
31.5907,2.361
31.5937,1.549
31.5947,1.274
31.5947,1.248
31.5969,1.243
31.5977,1.243
31.5987,1.247
31.6007,1.271
31.6018,1.831
31.6027,2.227
31.6057,2.553
31.6067,2.632
31.6067,2.635
31.6099,2.634
31.6109,2.376
31.6109,1.979
31.6135,1.574
31.6141,1.277
31.6162,1.248
31.6162,1.243
31.6231,1.242
31.6358,1.268
31.6502,1.423
31.6536,1.814
31.6588,2.228
31.6588,2.564
31.6596,2.636
31.6606,2.634
31.6606,2.637
31.6616,2.395
31.6616,1.999
31.6626,1.584
31.6626,1.286
31.6638,1.249
31.6649,1.242
31.6649,1.247
31.6659,1.267
31.6671,1.407
31.6678,1.825
31.6691,2.249
31.6691,2.574
31.6701,2.677
31.6701,2.649
31.6711,2.636
31.6711,2.464
31.6721,2.075
31.6721,1.664
31.6731,1.32
31.6731,1.244
31.6743,1.242
31.6743,1.244
31.6753,1.256
31.6753,1.316
31.6763,1.585
31.6763,1.964
31.6773,2.482
31.6773,2.541
31.6783,2.455
31.6794,2.229
31.6794,1.889
31.6794,1.501
31.6805,1.257
31.6815,1.251
31.6815,1.244
31.6825,1.242
31.6825,1.246
31.6838,1.26
31.6847,1.415
31.6855,2.418
31.6855,2.683
31.6865,2.71
31.6865,2.71
31.6875,2.71
31.6895,2.71
31.6905,2.664
31.6914,2.087
31.6936,1.692
31.6945,1.398
31.6954,1.278
31.6978,1.268
31.6987,1.279
31.6997,1.368
31.7020,2.056
31.7020,2.435
31.7030,2.64
31.7070,2.695
31.7073,2.71
31.7083,2.71
31.7096,2.679
31.7103,2.155
31.7113,1.727
31.7136,1.346
31.7146,1.254
31.7156,1.245
31.7189,1.243
31.7189,1.262
31.7206,1.373
31.7217,1.744
31.7226,2.144
31.7249,2.493
31.7316,2.64
31.7440,2.633
31.7582,2.636
31.7644,2.467
31.7654,2.086
31.7666,1.664
31.7677,1.318
31.7686,1.251
31.7686,1.244
31.7696,1.245
31.7696,1.258
31.7707,1.347
31.7716,1.685
31.7716,2.095
31.7727,2.461
31.7727,2.629
31.7738,2.642
31.7738,2.641
31.7748,2.479
31.7758,2.099
31.7758,1.669
31.7768,1.318
31.7768,1.243
31.7779,1.241
31.7779,1.244
31.7790,1.255
31.7790,1.329
31.7800,1.652
31.7800,2.058
31.7810,2.631
31.7810,2.638
31.7820,2.634
31.7829,2.632
31.7829,2.464
31.7849,2.084
31.7849,1.665
31.7859,1.251
31.7869,1.243
31.7869,1.241
31.7879,1.243
31.7879,1.253
31.7889,1.311
31.7889,1.611
31.7901,2.39
31.7901,2.629
31.7912,2.629
31.7912,2.637
31.7922,2.647
31.7922,2.486
31.7932,1.688
31.7932,1.328
31.7942,1.252
31.7963,1.243
31.7971,1.241
31.7995,1.243
31.8005,1.253
31.8005,1.599
31.8027,2.021
31.8037,2.394
31.8047,2.622
31.8073,2.636
31.8077,2.633
31.8087,2.635
31.8117,2.128
31.8130,1.705
31.8130,1.332
31.8146,1.252
31.8156,1.243
31.8166,1.24
31.8187,1.252
31.8198,1.296
31.8227,1.57
31.8227,1.988
31.8237,2.364
31.8268,2.613
31.8268,2.635
31.8278,2.637
31.8304,2.494
31.8308,2.126
31.8318,1.703
31.8361,1.331
31.8390,1.251
31.8517,1.243
31.8657,1.242
31.8701,1.249
31.8756,1.284
31.8756,1.523
31.8767,1.937
31.8777,2.311
31.8777,2.592
31.8787,2.634
31.8787,2.626
31.8798,2.467
31.8808,2.109
31.8808,1.688
31.8818,1.319
31.8818,1.241
31.8836,1.239
31.8838,1.241
31.8848,1.247
31.8858,1.275
31.8868,1.469
31.8871,1.865
31.8881,2.542
31.8881,2.63
31.8891,2.637
31.8891,2.64
31.8901,2.436
31.8901,2.076
31.8911,1.656
31.8911,1.248
31.8921,1.24
31.8921,1.238
31.8932,1.239
31.8932,1.244
31.8942,1.266
31.8942,1.416
31.8952,2.194
31.8952,2.493
31.8962,2.644
31.8962,2.644
31.8972,2.615
31.8972,2.421
31.8982,1.65
31.8992,1.302
31.8995,1.248
31.9014,1.24
31.9014,1.238
31.9024,1.238
31.9034,1.243
31.9034,1.398
31.9044,1.774
31.9044,2.158
31.9054,2.467
31.9057,2.642
31.9089,2.638
31.9089,2.621
31.9099,2.076
31.9117,1.672
31.9127,1.313
31.9137,1.248
31.9165,1.24
31.9172,1.238
31.9172,1.239
31.9199,1.262
31.9209,1.394
31.9219,1.783
31.9248,2.186
31.9258,2.492
31.9258,2.64
31.9281,2.638
31.9288,2.491
31.9318,2.154
31.9329,1.747
31.9329,1.363
31.9345,1.253
31.9357,1.243
31.9365,1.24
31.9395,1.247
31.9395,1.272
31.9406,1.456
31.9428,1.857
31.9505,2.252
31.9629,2.565
31.9780,2.635
31.9815,2.633
31.9871,2.567
31.9880,2.252
31.9880,1.843
31.9890,1.438
31.9890,1.26
31.9902,1.242
31.9902,1.242
31.9912,1.248
31.9922,1.277
31.9922,1.491
31.9932,1.889
31.9932,2.284
31.9942,2.631
31.9942,2.634
31.9952,2.637
31.9952,2.588
31.9964,2.302
31.9964,1.888
31.9974,1.263
31.9974,1.247
31.9984,1.242
31.9984,1.242
31.9994,1.248
32.0004,1.273
32.0017,1.464
32.0028,2.252
32.0028,2.571
32.0038,2.635
32.0038,2.634
32.0048,2.629
32.0048,2.61
32.0058,2.311
32.0068,1.496
32.0069,1.264
32.0069,1.247
32.0080,1.242
32.0090,1.242
32.0090,1.247
32.0100,1.271
32.0100,2.239
32.0110,2.56
32.0110,2.634
32.0121,2.631
32.0121,2.61
32.0132,2.315
32.0132,1.914
32.0142,1.502
32.0142,1.265
32.0152,1.246
32.0162,1.242
32.0184,1.247
32.0208,1.268
32.0208,1.428
32.0218,1.826
32.0244,2.233
32.0248,2.561
32.0258,2.633
32.0280,2.636
32.0288,2.612
32.0300,2.345
32.0330,1.945
32.0330,1.526
32.0340,1.247
32.0363,1.242
32.0373,1.241
32.0387,1.247
32.0397,1.267
32.0407,1.418
32.0438,1.804
32.0449,2.541
32.0449,2.631
32.0492,2.633
32.0587,2.628
32.0709,2.625
32.0853,2.362
32.0884,1.536
32.0935,1.272
32.0935,1.248
32.0945,1.243
32.0945,1.241
32.0955,1.247
32.0955,1.266
32.0965,1.79
32.0965,2.2
32.0977,2.541
32.0977,2.632
32.0987,2.636
32.0997,2.631
32.1007,2.396
32.1017,1.994
32.1027,1.571
32.1027,1.279
32.1039,1.249
32.1039,1.243
32.1049,1.247
32.1049,1.265
32.1059,1.403
32.1059,1.778
32.1069,2.192
32.1069,2.529
32.1079,2.628
32.1079,2.664
32.1091,2.624
32.1100,2.406
32.1109,2.014
32.1109,1.602
32.1119,1.29
32.1119,1.243
32.1129,1.242
32.1129,1.246
32.1139,1.265
32.1139,1.395
32.1149,1.773
32.1149,2.191
32.1158,2.637
32.1168,2.635
32.1178,2.635
32.1188,2.628
32.1188,2.444
32.1198,2.058
32.1198,1.304
32.1208,1.252
32.1208,1.244
32.1221,1.242
32.1221,1.247
32.1231,1.264
32.1231,1.392
32.1243,2.175
32.1251,2.529
32.1251,2.632
32.1267,2.641
32.1271,2.635
32.1280,2.637
32.1303,2.064
32.1320,1.65
32.1330,1.307
32.1340,1.25
32.1360,1.243
32.1370,1.241
32.1390,1.245
32.1401,1.358
32.1410,1.708
32.1420,2.106
32.1430,2.47
32.1450,2.634
32.1460,2.631
32.1470,2.637
32.1494,2.439
32.1502,2.061
32.1520,1.644
32.1530,1.302
32.1550,1.251
32.1560,1.243
32.1572,1.245
32.1661,1.259
32.1841,1.354
32.2001,1.706
32.2044,2.129
32.2091,2.495
32.2101,2.642
32.2111,2.653
32.2111,2.646
32.2121,2.484
32.2121,2.11
32.2133,1.695
32.2133,1.328
32.2143,1.253
32.2143,1.242
32.2153,1.245
32.2153,1.26
32.2171,1.352
32.2173,1.7
32.2183,2.111
32.2183,2.477
32.2194,2.634
32.2194,2.632
32.2204,2.644
32.2204,2.494
32.2214,2.123
32.2214,1.714
32.2224,1.255
32.2224,1.244
32.2234,1.242
32.2234,1.245
32.2244,1.258
32.2244,1.34
32.2257,1.676
32.2257,2.455
32.2267,2.645
32.2267,2.636
32.2277,2.636
32.2277,2.629
32.2287,2.505
32.2287,2.14
32.2297,1.346
32.2297,1.253
32.2307,1.245
32.2307,1.242
32.2319,1.244
32.2329,1.257
32.2329,1.333
32.2354,2.062
32.2359,2.443
32.2371,2.637
32.2371,2.64
32.2382,2.661
32.2382,2.633
32.2392,2.165
32.2392,1.749
32.2402,1.36
32.2402,1.255
32.2412,1.245
32.2422,1.242
32.2423,1.245
32.2423,1.338
32.2433,1.678
32.2433,2.098
32.2443,2.483
32.2453,2.631
32.2465,2.64
32.2474,2.638
32.2484,2.554
32.2505,2.217
32.2516,1.811
32.2527,1.409
32.2557,1.257
32.2557,1.244
32.2567,1.24
32.2591,1.244
32.2597,1.257
32.2607,1.33
32.2641,1.591
32.2644,1.895
32.2654,2.103
32.2664,2.196
32.2674,2.028
32.2684,1.718
32.2718,1.384
32.2729,1.265
32.2729,1.256
32.2750,1.246
32.2750,1.237
32.2787,1.238
32.2797,1.248
32.2797,1.309
32.2849,1.702
32.2986,2.275
32.3142,2.71
32.3182,2.71
32.3234,2.71
32.3234,2.711
32.3244,2.685
32.3254,2.582
32.3256,1.799
32.3256,1.474
32.3266,1.288
32.3266,1.265
32.3276,1.269
32.3276,1.302
32.3286,1.505
32.3286,2.286
32.3296,2.604
32.3296,2.676
32.3306,2.71
32.3306,2.71
32.3318,2.685
32.3318,2.339
32.3335,1.911
32.3348,1.498
32.3348,1.268
32.3358,1.248
32.3358,1.244
32.3370,1.246
32.3370,1.31
32.3381,1.606
32.3381,2.025
32.3391,2.414
32.3391,2.63
32.3401,2.641
32.3401,2.634
32.3410,2.596
32.3410,2.279
32.3422,1.86
32.3422,1.445
32.3432,1.262
32.3432,1.243
32.3442,1.244
32.3442,1.253
32.3452,1.297
32.3452,1.555
32.3452,1.964
32.3462,2.352
32.3462,2.631
32.3462,2.638
32.3473,2.63
32.3484,2.58
32.3503,2.267
32.3513,1.857
32.3534,1.261
32.3543,1.246
32.3554,1.242
32.3585,1.243
32.3589,1.25
32.3589,1.285
32.3626,1.516
32.3626,2.317
32.3636,2.598
32.3660,2.634
32.3660,2.634
32.3670,2.629
32.3700,2.58
32.3700,1.848
32.3710,1.437
32.3740,1.262
32.3740,1.245
32.3749,1.242
32.3786,1.242
32.3786,1.249
32.3814,1.506
32.3815,1.92
32.3826,2.312
32.3845,2.596
32.3858,2.633
32.3867,2.637
32.3918,2.609
32.3937,2.295
32.4021,1.883
32.4135,1.477
32.4185,1.264
32.4196,1.247
32.4196,1.243
32.4206,1.25
32.4206,1.281
32.4216,1.496
32.4216,1.899
32.4216,2.299
32.4226,2.592
32.4226,2.634
32.4226,2.636
32.4236,2.606
32.4236,2.326
32.4236,1.923
32.4246,1.515
32.4246,1.248
32.4246,1.243
32.4257,1.243
32.4257,1.25
32.4257,1.28
32.4268,1.488
32.4268,1.89
32.4268,2.59
32.4278,2.632
32.4278,2.637
32.4278,2.636
32.4288,2.63
32.4311,2.349
32.4311,1.525
32.4332,1.271
32.4341,1.248
32.4351,1.242
32.4366,1.242
32.4387,1.248
32.4397,1.272
32.4407,1.851
32.4432,2.25
32.4432,2.58
32.4453,2.634
32.4474,2.669
32.4482,2.636
32.4493,2.341
32.4506,1.936
32.4513,1.52
32.4535,1.27
32.4543,1.247
32.4553,1.242
32.4575,1.242
32.4586,1.269
32.4596,1.426
32.4627,1.808
32.4627,2.211
32.4657,2.54
32.4667,2.634
32.4667,2.631
32.4691,2.624
32.4695,2.334
32.4705,1.919
32.4736,1.512
32.4744,1.266
32.4744,1.241
32.4778,1.241
32.4778,1.246
32.4788,1.264
32.4818,1.398
32.4818,1.767
32.4828,2.169
32.4854,2.631
32.4854,2.636
32.4887,2.633
32.4887,2.592
32.4935,2.317
32.5025,1.923
32.5126,1.267
32.5156,1.246
32.5198,1.241
32.5210,1.24
32.5210,1.245
32.5218,1.261
32.5218,1.373
32.5218,2.145
32.5228,2.486
32.5228,2.643
32.5238,2.632
32.5238,2.639
32.5238,2.61
32.5248,1.935
32.5248,1.522
32.5248,1.268
32.5259,1.246
32.5259,1.241
32.5259,1.24
32.5270,1.244
32.5270,1.351
32.5270,1.7
32.5280,2.106
32.5280,2.458
32.5280,2.637
32.5290,2.637
32.5290,2.613
32.5290,2.353
32.5310,1.959
32.5311,1.541
32.5333,1.27
32.5341,1.247
32.5352,1.242
32.5376,1.244
32.5388,1.258
32.5396,1.358
32.5420,1.712
32.5420,2.124
32.5430,2.477
32.5465,2.637
32.5471,2.634
32.5493,2.63
32.5503,2.4
32.5507,1.994
32.5526,1.584
32.5538,1.285
32.5547,1.242
32.5577,1.241
32.5577,1.245
32.5587,1.259
32.5617,1.362
32.5617,1.718
32.5628,2.481
32.5657,2.636
32.5668,2.636
32.5668,2.626
32.5691,2.636
32.5691,2.428
32.5728,1.621
32.5728,1.297
32.5728,1.25
32.5768,1.243
32.5768,1.241
32.5778,1.245
32.5800,1.26
32.5800,1.697
32.5808,2.104
32.5851,2.477
32.5852,2.634
32.5852,2.64
32.5887,2.633
32.5887,2.458
32.5910,2.074
32.5915,1.667
32.5921,1.313
32.5957,1.252
32.5962,1.243
32.5962,1.242
32.6003,1.259
32.6022,1.353
32.6104,1.695
32.6216,2.105
32.6236,2.47
32.6278,2.632
32.6278,2.634
32.6288,2.625
32.6288,2.471
32.6298,2.092
32.6299,1.676
32.6299,1.318
32.6299,1.251
32.6310,1.241
32.6310,1.244
32.6310,1.258
32.6320,1.339
32.6320,1.673
32.6333,2.09
32.6339,2.629
32.6339,2.634
32.6351,2.638
32.6351,2.639
32.6351,2.493
32.6361,2.122
32.6361,1.706
32.6361,1.254
32.6372,1.244
32.6372,1.242
32.6372,1.245
32.6381,1.257
32.6408,1.338
32.6418,2.083
32.6428,2.451
32.6440,2.628
32.6460,2.637
32.6460,2.664
32.6481,2.629
32.6500,2.502
32.6511,1.715
32.6527,1.346
32.6537,1.254
32.6547,1.244
32.6569,1.242
32.6578,1.244
32.6588,1.324
32.6607,1.637
32.6617,2.05
32.6637,2.429
32.6647,2.631
32.6657,2.633
32.6676,2.647
32.6682,2.524
32.6690,2.159
32.6717,1.745
32.6739,1.359
32.6756,1.241
32.6767,1.244
32.6791,1.254
32.6799,1.318
32.6799,1.623
32.6827,2.044
32.6838,2.639
32.6849,2.629
32.6867,2.635
32.6877,2.649
32.6897,2.538
32.6907,2.186
32.6917,1.767
32.6937,1.256
32.6947,1.245
32.6959,1.242
32.6977,1.244
32.6987,1.254
32.6997,1.313
32.7021,2.028
32.7027,2.406
32.7037,2.63
32.7087,2.632
32.7107,2.635
32.7189,2.636
32.7301,2.547
32.7332,1.785
32.7363,1.392
32.7373,1.257
32.7373,1.245
32.7373,1.242
32.7383,1.245
32.7383,1.315
32.7383,1.611
32.7393,2.027
32.7393,2.415
32.7393,2.633
32.7403,2.64
32.7403,2.663
32.7403,2.577
32.7413,2.233
32.7413,1.816
32.7413,1.413
32.7425,1.26
32.7425,1.247
32.7425,1.244
32.7435,1.253
32.7435,1.302
32.7445,1.577
32.7445,1.988
32.7445,2.371
32.7455,2.617
32.7455,2.634
32.7478,2.637
32.7488,2.552
32.7500,2.218
32.7520,1.801
32.7520,1.397
32.7531,1.244
32.7550,1.241
32.7560,1.243
32.7580,1.25
32.7590,1.287
32.7600,1.526
32.7620,1.935
32.7630,2.603
32.7640,2.631
32.7661,2.636
32.7671,2.637
32.7691,2.57
32.7701,2.242
32.7711,1.419
32.7731,1.26
32.7741,1.246
32.7751,1.243
32.7772,1.244
32.7782,1.252
32.7792,1.533
32.7813,1.949
32.7824,2.346
32.7832,2.615
32.7852,2.634
32.7862,2.655
32.7872,2.641
32.7892,2.273
32.7902,1.858
32.7912,1.45
32.7933,1.262
32.7942,1.246
32.7952,1.242
32.7972,1.25
32.7982,1.283
32.8003,1.508
32.8013,1.912
32.8023,2.315
32.8043,2.606
32.8053,2.638
32.8063,2.626
32.8083,2.6
32.8093,2.29
32.8105,1.873
32.8124,1.463
32.8138,1.263
32.8144,1.242
32.8204,1.243
32.8305,1.25
32.8466,1.283
32.8496,1.499
32.8546,1.906
32.8546,2.31
32.8556,2.628
32.8556,2.632
32.8566,2.641
32.8566,2.608
32.8566,2.295
32.8578,1.888
32.8578,1.475
32.8587,1.247
32.8587,1.242
32.8597,1.242
32.8607,1.249
32.8607,1.279
32.8617,1.484
32.8617,1.888
32.8628,2.596
32.8628,2.639
32.8642,2.64
32.8647,2.635
32.8647,2.622
32.8647,2.333
32.8657,1.519
32.8657,1.272
32.8668,1.25
32.8677,1.244
32.8677,1.244
32.8687,1.25
32.8687,1.277
32.8687,1.901
32.8701,2.308
32.8701,2.6
32.8708,2.633
32.8718,2.637
32.8718,2.632
32.8718,2.558
32.8728,1.703
32.8728,1.294
32.8738,1.242
32.8748,1.236
32.8760,1.233
32.8768,1.233
32.8779,1.233
32.8798,1.243
32.8798,1.262
32.8820,1.401
32.8838,1.763
32.8848,2.229
32.8858,2.58
32.8868,2.433
32.8878,2.089
32.8906,1.743
32.8916,1.485
32.8937,1.292
32.8947,1.265
32.8957,1.264
32.8977,1.309
32.8987,1.485
32.8996,1.825
32.9015,2.271
32.9026,2.612
32.9037,2.699
32.9057,2.71
32.9067,2.71
32.9077,2.71
32.9098,2.64
32.9108,2.376
32.9108,1.911
32.9128,1.495
32.9141,1.255
32.9148,1.252
32.9178,1.26
32.9188,1.303
32.9198,1.545
32.9208,1.933
32.9219,2.325
32.9240,2.652
32.9299,2.71
32.9393,2.69
32.9514,2.642
32.9546,2.443
32.9553,2.036
32.9553,1.296
32.9563,1.251
32.9563,1.245
32.9563,1.243
32.9573,1.249
32.9573,1.273
32.9573,1.42
32.9583,2.227
32.9583,2.562
32.9593,2.638
32.9593,2.639
32.9593,2.636
32.9604,2.643
32.9605,2.412
32.9605,1.566
32.9615,1.288
32.9615,1.25
32.9615,1.243
32.9625,1.242
32.9625,1.247
32.9625,1.385
32.9635,1.76
32.9635,2.174
32.9635,2.513
32.9645,2.636
32.9655,2.636
32.9675,2.622
32.9685,2.397
32.9708,1.997
32.9715,1.582
32.9726,1.281
32.9756,1.249
32.9756,1.242
32.9766,1.245
32.9796,1.26
32.9796,1.355
32.9806,1.712
32.9826,2.134
32.9839,2.478
32.9848,2.636
32.9871,2.631
32.9878,2.641
32.9888,2.403
32.9912,2.02
32.9912,1.596
32.9945,1.291
32.9951,1.243
32.9951,1.241
32.9986,1.245
32.9986,1.259
32.9996,1.361
33.0026,1.723
33.0026,2.487
33.0036,2.634
33.0061,2.634
33.0061,2.634
33.0072,2.626
33.0106,2.438
33.0113,2.046
33.0137,1.297
33.0137,1.25
33.0147,1.243
33.0168,1.242
33.0177,1.245
33.0187,1.258
33.0218,1.681
33.0220,2.095
33.0220,2.46
33.0257,2.636
33.0257,2.636
33.0267,2.642
33.0290,2.638
33.0298,2.06
33.0298,1.646
33.0328,1.311
33.0338,1.251
33.0388,1.243
33.0472,1.241
33.0592,1.257
33.0634,1.34
33.0644,1.674
33.0644,2.082
33.0644,2.435
33.0655,2.63
33.0655,2.632
33.0667,2.636
33.0674,2.444
33.0674,2.058
33.0674,1.62
33.0685,1.295
33.0685,1.249
33.0685,1.24
33.0695,1.243
33.0695,1.254
33.0695,1.316
33.0705,1.618
33.0705,2.028
33.0705,2.615
33.0715,2.628
33.0715,2.635
33.0715,2.625
33.0725,2.435
33.0725,2.062
33.0735,1.641
33.0735,1.249
33.0749,1.241
33.0749,1.24
33.0777,1.242
33.0789,1.251
33.0797,1.3
33.0821,1.989
33.0829,2.354
33.0839,2.608
33.0862,2.63
33.0862,2.637
33.0872,2.633
33.0906,2.426
33.0914,1.618
33.0914,1.292
33.0947,1.249
33.0947,1.241
33.0957,1.239
33.0986,1.241
33.0996,1.292
33.0996,1.536
33.1022,1.946
33.1022,2.315
33.1047,2.586
33.1059,2.638
33.1067,2.638
33.1088,2.424
33.1098,2.05
33.1108,1.637
33.1119,1.303
33.1138,1.249
33.1148,1.242
33.1165,1.241
33.1178,1.248
33.1188,1.287
33.1207,1.524
33.1213,1.927
33.1232,2.303
33.1242,2.582
33.1252,2.637
33.1273,2.637
33.1282,2.449
33.1292,2.079
33.1313,1.664
33.1323,1.309
33.1333,1.241
33.1354,1.239
33.1363,1.241
33.1374,1.248
33.1394,1.281
33.1404,1.504
33.1447,1.909
33.1474,2.58
33.1566,2.638
33.1663,2.637
33.1666,2.638
33.1717,2.466
33.1724,2.105
33.1727,1.329
33.1727,1.251
33.1727,1.242
33.1738,1.24
33.1738,1.241
33.1738,1.248
33.1748,1.284
33.1748,1.918
33.1748,2.303
33.1758,2.581
33.1758,2.637
33.1768,2.629
33.1769,2.645
33.1769,2.155
33.1769,1.737
33.1779,1.354
33.1779,1.253
33.1779,1.244
33.1789,1.241
33.1789,1.242
33.1789,1.284
33.1799,1.515
33.1823,1.924
33.1833,2.313
33.1833,2.599
33.1855,2.637
33.1864,2.64
33.1887,2.534
33.1895,2.195
33.1905,1.78
33.1925,1.379
33.1936,1.255
33.1946,1.241
33.1976,1.242
33.1976,1.249
33.1986,1.283
33.2007,1.511
33.2016,1.912
33.2026,2.303
33.2050,2.632
33.2050,2.64
33.2060,2.631
33.2100,2.55
33.2102,2.215
33.2127,1.797
33.2127,1.257
33.2137,1.244
33.2161,1.241
33.2167,1.242
33.2177,1.248
33.2187,1.282
33.2207,1.491
33.2219,2.292
33.2237,2.583
33.2246,2.636
33.2256,2.632
33.2279,2.651
33.2287,2.565
33.2297,1.812
33.2326,1.406
33.2326,1.258
33.2350,1.245
33.2357,1.241
33.2367,1.242
33.2377,1.248
33.2398,1.482
33.2407,1.889
33.2427,2.283
33.2437,2.58
33.2447,2.636
33.2476,2.632
33.2476,2.578
33.2486,2.257
33.2518,1.855
33.2567,1.438
33.2650,1.259
33.2750,1.245
33.2774,1.241
33.2802,1.248
33.2811,1.275
33.2811,1.464
33.2821,1.863
33.2821,2.271
33.2831,2.575
33.2841,2.636
33.2841,2.634
33.2853,2.577
33.2853,2.266
33.2853,1.846
33.2863,1.442
33.2863,1.245
33.2863,1.241
33.2873,1.241
33.2873,1.247
33.2873,1.271
33.2883,1.449
33.2883,1.841
33.2883,2.562
33.2893,2.634
33.2893,2.635
33.2893,2.639
33.2905,2.579
33.2905,2.289
33.2916,1.462
33.2936,1.262
33.2936,1.246
33.2958,1.241
33.2966,1.241
33.2976,1.247
33.2993,1.27
33.3003,1.83
33.3015,2.227
33.3047,2.566
33.3047,2.633
33.3057,2.633
33.3077,2.632
33.3087,2.316
33.3097,1.895
33.3119,1.499
33.3129,1.267
33.3139,1.247
33.3159,1.241
33.3169,1.246
33.3179,1.268
33.3198,1.415
33.3198,1.806
33.3227,2.214
33.3237,2.545
33.3249,2.633
33.3269,2.628
33.3279,2.603
33.3279,2.328
33.3307,1.913
33.3317,1.503
33.3327,1.269
33.3351,1.242
33.3352,1.241
33.3377,1.246
33.3387,1.267
33.3397,1.415
33.3417,1.807
33.3427,2.218
33.3437,2.631
33.3469,2.633
33.3487,2.63
33.3497,2.383
33.3508,1.547
33.3529,1.277
33.3537,1.248
33.3547,1.242
33.3567,1.241
33.3577,1.247
33.3589,1.265
33.3607,1.781
33.3617,2.188
33.3627,2.516
33.3649,2.625
33.3658,2.633
33.3688,2.636
33.3791,2.34
33.3800,1.96
33.3917,1.535
33.3953,1.27
33.3957,1.246
33.3963,1.242
33.3963,1.245
33.3975,1.258
33.3975,1.368
33.3975,1.73
33.3983,2.14
33.3983,2.478
33.3994,2.634
33.4003,2.637
33.4003,2.625
33.4013,2.372
33.4013,1.978
33.4023,1.561
33.4023,1.278
33.4023,1.242
33.4033,1.241
33.4033,1.245
33.4033,1.262
33.4043,1.381
33.4043,1.748
33.4043,2.147
33.4054,2.638
33.4054,2.636
33.4078,2.634
33.4078,2.616
33.4107,2.403
33.4107,2.013
33.4117,1.285
33.4138,1.249
33.4147,1.243
33.4157,1.241
33.4168,1.245
33.4192,1.259
33.4192,1.358
33.4222,2.128
33.4222,2.482
33.4233,2.645
33.4266,2.64
33.4274,2.634
33.4274,2.643
33.4296,2.025
33.4304,1.597
33.4328,1.286
33.4336,1.249
33.4344,1.242
33.4379,1.241
33.4380,1.245
33.4389,1.349
33.4418,1.706
33.4418,2.122
33.4428,2.471
33.4445,2.638
33.4455,2.633
33.4465,2.633
33.4494,2.424
33.4494,2.04
33.4504,1.618
33.4527,1.299
33.4538,1.25
33.4568,1.241
33.4568,1.244
33.4578,1.257
33.4601,1.348
33.4609,1.69
33.4609,2.103
33.4647,2.45
33.4655,2.63
33.4655,2.636
33.4677,2.637
33.4685,2.452
33.4695,2.067
33.4716,1.655
33.4727,1.252
33.4737,1.244
33.4788,1.242
33.4806,1.245
33.4888,1.259
33.4999,1.354
33.5020,1.684
33.5051,2.474
33.5060,2.633
33.5060,2.632
33.5060,2.635
33.5072,2.628
33.5072,2.421
33.5080,1.979
33.5080,1.254
33.5080,1.239
33.5090,1.235
33.5090,1.234
33.5090,1.234
33.5100,1.235
33.5100,1.241
33.5100,1.317
33.5110,1.546
33.5110,1.855
33.5110,2.18
33.5120,2.517
33.5120,2.526
33.5120,2.267
33.5132,1.424
33.5132,1.273
33.5132,1.255
33.5146,1.254
33.5156,1.262
33.5176,1.281
33.5189,1.679
33.5189,2.055
33.5222,2.485
33.5229,2.675
33.5229,2.71
33.5268,2.71
33.5268,2.71
33.5268,2.673
33.5305,2.523
33.5305,2.118
33.5315,1.67
33.5335,1.334
33.5345,1.259
33.5355,1.252
33.5380,1.275
33.5387,1.406
33.5397,1.769
33.5421,2.157
33.5421,2.502
33.5458,2.633
33.5458,2.638
33.5458,2.633
33.5492,2.561
33.5492,2.216
33.5502,1.774
33.5528,1.38
33.5535,1.258
33.5543,1.243
33.5577,1.245
33.5584,1.255
33.5584,1.32
33.5618,1.628
33.5618,2.038
33.5628,2.412
33.5657,2.63
33.5657,2.633
33.5667,2.633
33.5691,2.533
33.5699,2.169
33.5707,1.753
33.5737,1.255
33.5737,1.244
33.5747,1.241
33.5772,1.243
33.5772,1.252
33.5809,1.301
33.5811,1.574
33.5819,2.37
33.5849,2.624
33.5891,2.631
33.6011,2.636
33.6052,2.645
33.6141,2.529
33.6180,2.166
33.6220,1.361
33.6230,1.254
33.6230,1.243
33.6240,1.24
33.6240,1.242
33.6250,1.25
33.6250,1.29
33.6250,1.936
33.6260,2.326
33.6260,2.607
33.6270,2.632
33.6270,2.634
33.6280,2.644
33.6280,2.181
33.6290,1.763
33.6290,1.367
33.6300,1.254
33.6300,1.244
33.6310,1.241
33.6310,1.242
33.6320,1.285
33.6326,1.517
33.6330,1.921
33.6341,2.316
33.6350,2.596
33.6350,2.631
33.6360,2.65
33.6360,2.555
33.6370,2.208
33.6370,1.791
33.6380,1.389
33.6380,1.257
33.6380,1.245
33.6390,1.242
33.6390,1.25
33.6400,1.281
33.6400,1.51
33.6417,1.913
33.6427,2.305
33.6437,2.634
33.6459,2.637
33.6468,2.648
33.6477,2.558
33.6497,2.22
33.6507,1.805
33.6530,1.407
33.6530,1.244
33.6540,1.241
33.6560,1.242
33.6582,1.249
33.6590,1.279
33.6612,1.483
33.6622,2.289
33.6622,2.584
33.6662,2.635
33.6662,2.635
33.6673,2.649
33.6684,2.561
33.6693,1.809
33.6702,1.392
33.6736,1.257
33.6746,1.244
33.6755,1.241
33.6763,1.242
33.6773,1.246
33.6794,1.443
33.6804,1.843
33.6813,2.246
33.6846,2.549
33.6856,2.628
33.6856,2.631
33.6877,2.546
33.6886,2.21
33.6896,1.784
33.6937,1.394
33.6987,1.255
33.7097,1.243
33.7136,1.24
33.7253,1.245
33.7296,1.265
33.7296,1.402
33.7306,1.781
33.7306,2.179
33.7316,2.502
33.7316,2.636
33.7326,2.645
33.7336,2.514
33.7346,2.169
33.7346,1.789
33.7355,1.392
33.7355,1.254
33.7365,1.239
33.7365,1.239
33.7375,1.243
33.7375,1.261
33.7375,1.378
33.7388,1.739
33.7395,2.477
33.7395,2.644
33.7405,2.639
33.7405,2.641
33.7415,2.52
33.7415,2.191
33.7415,1.778
33.7425,1.255
33.7425,1.243
33.7435,1.239
33.7435,1.239
33.7445,1.244
33.7445,1.26
33.7455,1.726
33.7455,2.13
33.7465,2.46
33.7465,2.639
33.7465,2.634
33.7475,2.64
33.7485,2.232
33.7495,1.824
33.7505,1.413
33.7526,1.256
33.7535,1.243
33.7545,1.239
33.7566,1.239
33.7575,1.259
33.7585,1.37
33.7616,1.732
33.7626,2.129
33.7636,2.468
33.7648,2.631
33.7656,2.652
33.7678,2.586
33.7686,2.274
33.7696,1.866
33.7728,1.465
33.7728,1.261
33.7738,1.245
33.7768,1.24
33.7768,1.244
33.7779,1.261
33.7800,1.391
33.7810,1.745
33.7826,2.136
33.7842,2.64
33.7850,2.629
33.7867,2.635
33.7879,2.583
33.7887,2.317
33.7912,1.916
33.7912,1.5
33.7923,1.246
33.7944,1.241
33.7955,1.24
33.7965,1.244
33.7994,1.261
33.7994,1.373
33.8048,2.145
33.8155,2.49
33.8306,2.632
33.8349,2.635
33.8401,2.642
33.8401,2.629
33.8411,2.347
33.8411,1.544
33.8421,1.27
33.8421,1.246
33.8431,1.242
33.8431,1.241
33.8441,1.244
33.8441,1.366
33.8453,1.726
33.8453,2.148
33.8463,2.487
33.8463,2.638
33.8476,2.636
33.8476,2.633
33.8483,2.364
33.8493,1.971
33.8504,1.566
33.8507,1.274
33.8516,1.248
33.8516,1.241
33.8526,1.244
33.8526,1.258
33.8536,1.353
33.8536,1.702
33.8545,2.107
33.8545,2.468
33.8545,2.633
33.8555,2.635
33.8555,2.611
33.8567,2.38
33.8567,1.993
33.8577,1.576
33.8577,1.281
33.8577,1.242
33.8587,1.241
33.8587,1.244
33.8598,1.258
33.8598,1.354
33.8607,1.703
33.8617,2.47
33.8640,2.643
33.8640,2.629
33.8660,2.632
33.8681,2.647
33.8682,2.419
33.8713,2.028
33.8713,1.289
33.8723,1.25
33.8757,1.243
33.8757,1.241
33.8767,1.244
33.8793,1.257
33.8797,1.677
33.8807,2.09
33.8824,2.449
33.8834,2.64
33.8846,2.629
33.8878,2.632
33.8878,2.624
33.8889,2.031
33.8913,1.622
33.8913,1.292
33.8946,1.248
33.8957,1.242
33.8957,1.241
33.8988,1.256
33.8988,1.332
33.8999,1.656
33.9023,2.068
33.9031,2.441
33.9031,2.63
33.9066,2.634
33.9073,2.635
33.9073,2.435
33.9095,2.065
33.9143,1.646
33.9174,1.31
33.9286,1.25
33.9434,1.241
33.9463,1.244
33.9516,1.256
33.9522,1.329
33.9522,1.649
33.9532,2.064
33.9532,2.633
33.9542,2.629
33.9542,2.635
33.9552,2.632
33.9552,2.459
33.9552,2.086
33.9565,1.665
33.9574,1.251
33.9574,1.243
33.9584,1.241
33.9584,1.244
33.9594,1.254
33.9594,1.32
33.9604,2.039
33.9604,2.412
33.9604,2.631
33.9614,2.634
33.9614,2.631
33.9626,2.633
33.9626,2.464
33.9636,1.688
33.9636,1.323
33.9646,1.252
33.9646,1.243
33.9656,1.241
33.9656,1.244
33.9675,1.313
33.9675,1.609
33.9687,2.012
33.9687,2.393
33.9697,2.619
33.9697,2.635
33.9707,2.636
33.9707,2.492
33.9717,2.147
33.9717,1.73
33.9727,1.35
33.9727,1.253
33.9749,1.244
33.9759,1.243
33.9787,1.254
33.9787,1.315
33.9797,1.613
33.9825,2.029
33.9835,2.405
33.9845,2.637
33.9856,2.629
33.9867,2.642
33.9878,2.512
33.9897,2.163
33.9907,1.735
33.9917,1.354
33.9947,1.244
33.9957,1.241
33.9966,1.243
33.9977,1.252
33.9988,1.297
34.0018,1.561
34.0018,2.351
34.0028,2.611
34.0047,2.632
34.0057,2.637
34.0067,2.634
34.0094,2.482
34.0102,2.13
34.0102,1.334
34.0137,1.253
34.0148,1.243
34.0148,1.241
34.0178,1.243
34.0220,1.251
34.0263,1.982
34.0367,2.359
34.0509,2.614
34.0579,2.635
34.0589,2.63
34.0589,2.545
34.0601,2.194
34.0601,1.79
34.0611,1.382
34.0611,1.255
34.0621,1.245
34.0621,1.243
34.0631,1.251
34.0631,1.293
34.0641,1.558
34.0641,1.958
34.0651,2.353
34.0661,2.618
34.0674,2.64
34.0681,2.634
34.0691,2.556
34.0691,2.22
34.0701,1.792
34.0701,1.393
34.0701,1.244
34.0710,1.241
34.0710,1.243
34.0722,1.25
34.0722,1.287
34.0732,1.533
34.0732,1.939
34.0742,2.612
34.0742,2.631
34.0752,2.637
34.0752,2.631
34.0762,2.55
34.0762,2.221
34.0762,1.407
34.0772,1.258
34.0772,1.245
34.0784,1.241
34.0784,1.243
34.0794,1.251
34.0794,1.519
34.0804,1.916
34.0814,2.319
34.0825,2.595
34.0844,2.626
34.0854,2.636
34.0864,2.64
34.0893,2.243
34.0893,1.837
34.0928,1.422
34.0928,1.261
34.0938,1.245
34.0950,1.241
34.0970,1.249
34.0970,1.28
34.0995,1.498
34.1007,1.922
34.1017,2.317
34.1047,2.61
34.1054,2.643
34.1062,2.635
34.1088,2.607
34.1088,2.277
34.1098,1.88
34.1130,1.492
34.1130,1.268
34.1141,1.244
34.1150,1.243
34.1170,1.249
34.1187,1.274
34.1190,1.427
34.1210,1.778
34.1222,2.368
34.1231,2.522
34.1247,2.581
34.1270,2.444
34.1281,2.169
34.1370,1.75
34.1533,1.332
34.1705,1.236
34.1735,1.234
34.1777,1.236
34.1777,1.241
34.1787,1.246
34.1787,1.262
34.1797,1.734
34.1797,2.219
34.1807,2.591
34.1807,2.71
34.1819,2.71
34.1829,2.71
34.1839,2.71
34.1849,2.358
34.1849,1.946
34.1849,1.574
34.1859,1.32
34.1859,1.272
34.1871,1.274
34.1871,1.481
34.1881,1.834
34.1881,2.227
34.1892,2.571
34.1892,2.669
34.1892,2.711
34.1902,2.711
34.1911,2.665
34.1911,2.482
34.1921,2.059
34.1921,1.63
34.1931,1.297
34.1933,1.251
34.1933,1.244
34.1943,1.25
34.1943,1.274
34.1953,1.454
34.1953,1.852
34.1963,2.253
34.1963,2.581
34.1973,2.639
34.1973,2.633
34.1983,2.622
34.1983,2.361
34.1994,1.952
34.2002,1.533
34.2004,1.272
34.2014,1.243
34.2014,1.242
34.2024,1.247
34.2024,1.267
34.2034,1.429
34.2034,1.825
34.2044,2.211
34.2044,2.623
34.2057,2.636
34.2057,2.63
34.2076,2.618
34.2086,2.347
34.2096,1.949
34.2119,1.529
34.2126,1.247
34.2136,1.242
34.2163,1.242
34.2166,1.246
34.2178,1.264
34.2208,1.401
34.2218,2.163
34.2218,2.505
34.2231,2.646
34.2240,2.633
34.2260,2.631
34.2270,2.615
34.2289,2.346
34.2300,1.529
34.2324,1.269
34.2335,1.247
34.2348,1.241
34.2398,1.241
34.2421,1.245
34.2540,1.261
34.2694,1.73
34.2722,2.136
34.2756,2.486
34.2766,2.63
34.2766,2.636
34.2776,2.641
34.2776,2.361
34.2786,1.957
34.2796,1.545
34.2796,1.274
34.2806,1.247
34.2806,1.242
34.2818,1.241
34.2818,1.26
34.2838,1.364
34.2848,1.723
34.2848,2.136
34.2858,2.477
34.2858,2.637
34.2868,2.636
34.2868,2.612
34.2878,2.371
34.2880,1.991
34.2880,1.564
34.2890,1.274
34.2890,1.248
34.2900,1.241
34.2900,1.244
34.2910,1.258
34.2910,1.35
34.2920,1.69
34.2920,2.088
34.2930,2.454
34.2930,2.633
34.2942,2.632
34.2942,2.622
34.2952,2.369
34.2952,1.971
34.2962,1.557
34.2962,1.247
34.2972,1.241
34.2972,1.24
34.2982,1.243
34.2991,1.255
34.2992,1.33
34.3004,1.655
34.3012,2.407
34.3022,2.619
34.3055,2.629
34.3065,2.638
34.3075,2.61
34.3086,2.37
34.3095,1.547
34.3126,1.271
34.3126,1.247
34.3136,1.241
34.3156,1.239
34.3168,1.242
34.3178,1.252
34.3198,1.61
34.3208,2.006
34.3220,2.367
34.3247,2.614
34.3247,2.633
34.3257,2.637
34.3280,2.346
34.3280,1.961
34.3312,1.536
34.3312,1.269
34.3322,1.244
34.3356,1.24
34.3356,1.238
34.3366,1.249
34.3389,1.294
34.3395,1.535
34.3406,1.943
34.3439,2.32
34.3479,2.584
34.3521,2.635
34.3626,2.577
34.3770,2.326
34.3832,1.943
34.3841,1.52
34.3853,1.266
34.3853,1.245
34.3863,1.238
34.3863,1.24
34.3873,1.247
34.3873,1.286
34.3883,1.515
34.3883,1.926
34.3893,2.572
34.3893,2.649
34.3905,2.655
34.3916,2.592
34.3916,2.345
34.3926,1.964
34.3936,1.551
34.3946,1.245
34.3946,1.239
34.3957,1.239
34.3967,1.241
34.3967,1.248
34.3977,1.283
34.3987,1.93
34.3998,2.307
34.4007,2.57
34.4019,2.646
34.4029,2.637
34.4029,2.63
34.4029,2.039
34.4039,1.62
34.4039,1.288
34.4049,1.248
34.4049,1.241
34.4061,1.24
34.4061,1.242
34.4069,1.294
34.4069,1.555
34.4080,1.956
34.4080,2.353
34.4090,2.604
34.4090,2.635
34.4100,2.637
34.4100,2.473
34.4110,2.108
34.4110,1.71
34.4110,1.336
34.4120,1.252
34.4157,1.243
34.4167,1.243
34.4177,1.252
34.4177,1.306
34.4201,1.583
34.4201,1.991
34.4238,2.374
34.4238,2.638
34.4249,2.635
34.4273,2.64
34.4273,2.517
34.4283,2.168
34.4312,1.745
34.4323,1.363
34.4336,1.244
34.4348,1.241
34.4356,1.242
34.4376,1.251
34.4388,1.298
34.4396,1.562
34.4418,2.371
34.4426,2.616
34.4436,2.633
34.4467,2.636
34.4477,2.632
34.4478,2.516
34.4507,2.17
34.4517,1.378
34.4517,1.257
34.4538,1.245
34.4547,1.241
34.4578,1.243
34.4578,1.251
34.4588,1.558
34.4618,1.979
34.4618,2.358
34.4628,2.611
34.4650,2.629
34.4660,2.638
34.4668,2.523
34.4722,2.183
34.4748,1.767
34.4860,1.378
34.5001,1.256
34.5041,1.244
34.5101,1.241
34.5111,1.25
34.5121,1.289
34.5121,1.537
34.5131,1.953
34.5141,2.342
34.5152,2.598
34.5161,2.634
34.5171,2.633
34.5182,2.55
34.5191,2.216
34.5191,1.799
34.5203,1.395
34.5213,1.258
34.5213,1.241
34.5223,1.242
34.5223,1.25
34.5233,1.287
34.5233,1.523
34.5233,1.929
34.5243,2.606
34.5243,2.633
34.5253,2.633
34.5253,2.64
34.5265,2.571
34.5275,2.251
34.5275,1.845
34.5285,1.26
34.5285,1.246
34.5295,1.242
34.5295,1.243
34.5307,1.251
34.5315,1.286
34.5315,1.913
34.5325,2.31
34.5335,2.598
34.5345,2.633
34.5345,2.634
34.5355,2.637
34.5355,2.583
34.5365,1.857
34.5365,1.442
34.5377,1.259
34.5377,1.245
34.5377,1.242
34.5387,1.243
34.5387,1.281
34.5397,1.493
34.5397,1.91
34.5429,2.302
34.5429,2.59
34.5446,2.635
34.5458,2.638
34.5466,2.585
34.5490,2.29
34.5490,1.893
34.5500,1.478
34.5529,1.265
34.5539,1.247
34.5549,1.243
34.5578,1.25
34.5588,1.28
34.5588,1.499
34.5613,1.913
34.5613,2.3
34.5648,2.631
34.5648,2.635
34.5658,2.638
34.5688,2.606
34.5688,2.314
34.5699,1.911
34.5725,1.524
34.5725,1.248
34.5735,1.243
34.5767,1.244
34.5779,1.25
34.5779,1.283
34.5808,1.502
34.5808,2.315
34.5819,2.602
34.5843,2.635
34.5849,2.692
34.5878,2.635
34.5888,2.643
34.5888,2.361
34.5907,1.548
34.5955,1.274
34.5981,1.248
34.6093,1.243
34.6113,1.243
34.6255,1.249
34.6291,1.485
34.6302,1.885
34.6302,2.287
34.6312,2.586
34.6312,2.629
34.6322,2.649
34.6334,2.634
34.6341,2.34
34.6341,1.927
34.6353,1.507
34.6363,1.267
34.6363,1.247
34.6373,1.242
34.6373,1.246
34.6383,1.265
34.6383,1.408
34.6393,1.793
34.6393,2.2
34.6404,2.533
34.6405,2.637
34.6405,2.64
34.6415,2.603
34.6415,2.312
34.6425,1.915
34.6425,1.51
34.6435,1.268
34.6435,1.242
34.6445,1.241
34.6445,1.247
34.6456,1.265
34.6456,1.401
34.6456,1.779
34.6467,2.524
34.6467,2.635
34.6477,2.638
34.6477,2.629
34.6487,2.612
34.6487,2.346
34.6500,1.945
34.6516,1.27
34.6526,1.247
34.6537,1.242
34.6558,1.241
34.6566,1.245
34.6576,1.263
34.6606,1.767
34.6617,2.174
34.6618,2.513
34.6648,2.645
34.6658,2.642
34.6658,2.634
34.6682,2.613
34.6692,1.961
34.6718,1.548
34.6718,1.274
34.6728,1.248
34.6758,1.242
34.6758,1.241
34.6769,1.262
34.6795,1.385
34.6795,1.751
34.6805,2.162
34.6823,2.517
34.6832,2.639
34.6842,2.641
34.6878,2.621
34.6878,2.402
34.6894,2.01
34.6928,1.595
34.6938,1.243
34.6948,1.242
34.6959,1.246
34.6987,1.262
34.6998,1.373
34.7008,1.736
34.7069,2.51
34.7181,2.638
34.7291,2.637
34.7333,2.632
34.7376,2.631
34.7383,2.409
34.7383,2.013
34.7393,1.292
34.7393,1.25
34.7403,1.244
34.7403,1.242
34.7413,1.246
34.7413,1.261
34.7425,1.735
34.7425,2.147
34.7435,2.505
34.7435,2.63
34.7445,2.633
34.7445,2.636
34.7445,2.622
34.7455,1.936
34.7455,1.464
34.7465,1.254
34.7465,1.24
34.7475,1.236
34.7475,1.235
34.7486,1.239
34.7496,1.248
34.7507,1.286
34.7507,1.492
34.7517,1.838
34.7517,2.181
34.7527,2.573
34.7527,2.614
34.7538,2.335
34.7538,1.934
34.7549,1.523
34.7549,1.289
34.7549,1.256
34.7559,1.263
34.7559,1.31
34.7569,1.413
34.7593,1.676
34.7593,2.036
34.7603,2.437
34.7625,2.657
34.7633,2.71
34.7655,2.71
34.7669,2.711
34.7677,2.661
34.7708,2.424
34.7708,1.981
34.7719,1.29
34.7749,1.256
34.7757,1.25
34.7757,1.253
34.7780,1.274
34.7790,1.412
34.7790,2.164
34.7830,2.523
34.7830,2.637
34.7844,2.633
34.7857,2.642
34.7867,2.637
34.7894,2.506
34.7894,1.713
34.7904,1.34
34.7937,1.254
34.7949,1.244
34.7949,1.242
34.7978,1.244
34.7978,1.32
34.7989,1.619
34.8013,2.034
34.8023,2.409
34.8023,2.628
34.8054,2.634
34.8064,2.628
34.8087,2.468
34.8135,2.11
34.8154,1.689
34.8265,1.33
34.8383,1.253
34.8423,1.244
34.8463,1.243
34.8468,1.253
34.8473,1.304
34.8473,1.587
34.8483,2.005
34.8492,2.376
34.8503,2.611
34.8512,2.635
34.8512,2.637
34.8523,2.496
34.8525,2.13
34.8525,1.715
34.8535,1.344
34.8535,1.244
34.8545,1.241
34.8545,1.243
34.8555,1.252
34.8555,1.301
34.8555,1.582
34.8565,1.995
34.8565,2.617
34.8575,2.64
34.8575,2.639
34.8586,2.646
34.8586,2.511
34.8586,2.167
34.8596,1.746
34.8596,1.255
34.8606,1.244
34.8606,1.241
34.8616,1.243
34.8616,1.251
34.8626,1.296
34.8626,1.559
34.8636,2.364
34.8636,2.616
34.8636,2.634
34.8656,2.634
34.8666,2.63
34.8676,2.52
34.8697,1.744
34.8708,1.354
34.8718,1.255
34.8747,1.244
34.8747,1.241
34.8757,1.242
34.8788,1.251
34.8788,1.546
34.8799,1.949
34.8825,2.343
34.8825,2.613
34.8835,2.631
34.8857,2.636
34.8865,2.645
34.8875,2.175
34.8908,1.761
34.8908,1.37
34.8919,1.254
34.8943,1.244
34.8943,1.24
34.8953,1.242
34.8987,1.283
34.8997,1.496
34.8997,1.907
34.9020,2.309
34.9027,2.599
34.9050,2.632
34.9055,2.639
34.9062,2.511
34.9097,2.176
34.9104,1.765
34.9104,1.372
34.9138,1.253
34.9138,1.243
34.9148,1.241
34.9173,1.248
34.9230,1.277
34.9342,1.479
34.9487,1.891
34.9496,2.283
34.9526,2.579
34.9568,2.635
34.9578,2.648
34.9578,2.522
34.9578,2.171
34.9588,1.755
34.9588,1.387
34.9598,1.243
34.9598,1.24
34.9608,1.241
34.9608,1.247
34.9618,1.271
34.9618,1.435
34.9629,1.85
34.9629,2.548
34.9639,2.637
34.9639,2.634
34.9649,2.633
34.9649,2.517
34.9659,2.184
34.9669,1.374
34.9679,1.254
34.9679,1.243
34.9691,1.24
34.9691,1.24
34.9702,1.245
34.9702,1.266
34.9702,1.799
34.9711,2.206
34.9711,2.514
34.9721,2.635
34.9721,2.634
34.9731,2.64
34.9731,2.497
34.9741,1.755
34.9741,1.362
34.9741,1.252
34.9753,1.242
34.9753,1.239
34.9763,1.239
34.9763,1.262
34.9797,1.394
34.9807,1.771
34.9807,2.169
34.9822,2.491
34.9842,2.637
34.9853,2.633
34.9864,2.492
34.9874,2.162
34.9907,1.766
34.9918,1.379
34.9924,1.253
34.9950,1.243
34.9950,1.239
34.9960,1.244
34.9972,1.263
34.9982,1.388
34.9992,1.769
35.0025,2.178
35.0033,2.499
35.0058,2.634
35.0058,2.652
35.0069,2.558
35.0097,2.251
35.0111,1.846
35.0111,1.439
35.0121,1.245
35.0133,1.241
35.0144,1.241
35.0177,1.246
35.0186,1.267
35.0186,1.43
35.0218,2.231
35.0228,2.551
35.0228,2.637
35.0252,2.634
35.0261,2.63
35.0302,2.607
35.0338,2.32
35.0435,1.485
35.0615,1.263
35.0675,1.246
35.0675,1.241
35.0685,1.241
35.0685,1.246
35.0695,1.426
35.0695,1.819
35.0705,2.221
35.0705,2.544
35.0715,2.632
35.0715,2.636
35.0715,2.628
35.0727,2.327
35.0735,1.921
35.0735,1.508
35.0745,1.267
35.0745,1.247
35.0745,1.241
35.0755,1.246
35.0755,1.265
35.0765,1.405
35.0765,1.782
35.0775,2.194
35.0775,2.532
35.0785,2.634
35.0785,2.632
35.0785,2.617
35.0795,2.345
35.0795,1.942
35.0805,1.53
35.0805,1.27
35.0815,1.242
35.0815,1.241
35.0830,1.245
35.0834,1.264
35.0844,1.393
35.0844,1.76
35.0854,2.507
35.0854,2.628
35.0864,2.635
35.0864,2.635
35.0874,2.604
35.0884,2.35
35.0894,1.948
35.0904,1.269
35.0925,1.247
35.0934,1.241
35.0944,1.241
35.0977,1.245
35.0977,1.261
35.0987,1.733
35.1007,2.151
35.1017,2.498
35.1027,2.634
35.1049,2.634
35.1057,2.631
35.1088,2.631
35.1088,1.98
35.1098,1.565
35.1127,1.277
35.1127,1.248
35.1137,1.242
35.1157,1.241
35.1167,1.261
35.1177,1.368
35.1199,1.724
35.1207,2.131
35.1217,2.479
35.1238,2.642
35.1247,2.637
35.1257,2.64
35.1277,2.399
35.1287,2.004
35.1308,1.584
35.1317,1.282
35.1326,1.249
35.1386,1.241
35.1408,1.245
35.1586,1.259
35.1695,1.363
35.1925,1.713
35.1956,2.126
35.2015,2.637
35.2025,2.636
35.2025,2.642
35.2035,2.642
35.2035,2.423
35.2044,2.032
35.2044,1.617
35.2054,1.249
35.2054,1.243
35.2064,1.241
35.2064,1.245
35.2074,1.258
35.2074,1.35
35.2084,2.122
35.2084,2.477
35.2094,2.647
35.2094,2.634
35.2104,2.637
35.2104,2.64
35.2115,2.451
35.2115,1.629
35.2124,1.298
35.2124,1.25
35.2134,1.242
35.2134,1.241
35.2144,1.244
35.2144,1.341
35.2154,1.681
35.2165,2.1
35.2174,2.469
35.2174,2.643
35.2184,2.634
35.2184,2.634
35.2194,2.46
35.2194,2.073
35.2204,1.649
35.2204,1.309
35.2214,1.251
35.2214,1.243
35.2224,1.244
35.2224,1.256
35.2234,1.334
35.2234,1.668
35.2244,2.09
35.2244,2.46
35.2254,2.631
35.2254,2.637
35.2264,2.64
35.2264,2.49
35.2274,2.119
35.2274,1.694
35.2284,1.325
35.2284,1.243
35.2284,1.242
35.2294,1.245
35.2294,1.257
35.2304,1.323
35.2304,1.659
35.2314,2.444
35.2314,2.635
35.2324,2.63
35.2334,2.634
35.2334,2.644
35.2344,2.491
35.2344,2.116
35.2354,1.323
35.2364,1.251
35.2364,1.243
35.2374,1.241
35.2374,1.244
35.2384,1.253
35.2384,1.614
35.2394,2.019
35.2415,2.414
35.2461,2.632
35.2493,2.636
35.2643,2.633
35.2783,2.642
35.2799,2.114
35.2824,1.692
35.2833,1.328
35.2842,1.252
35.2842,1.243
35.2842,1.241
35.2842,1.254
35.2852,1.313
35.2852,1.609
35.2852,2.028
35.2852,2.416
35.2862,2.636
35.2862,2.629
35.2862,2.652
35.2862,2.524
35.2872,2.156
35.2872,1.731
35.2872,1.35
35.2872,1.254
35.2882,1.242
35.2882,1.244
35.2882,1.253
35.2882,1.309
35.2892,1.59
35.2892,2.007
35.2892,2.632
35.2892,2.632
35.2892,2.637
35.2902,2.652
35.2902,2.533
35.2902,2.167
35.2902,1.77
35.2916,1.255
35.2926,1.244
35.2936,1.241
35.2963,1.243
35.2963,1.252
35.2974,1.3
35.2994,1.986
35.3003,2.372
35.3025,2.613
35.3034,2.637
35.3043,2.635
35.3053,2.634
35.3075,2.523
35.3083,1.758
35.3104,1.356
35.3114,1.255
35.3125,1.243
35.3156,1.241
35.3156,1.243
35.3167,1.293
35.3188,1.56
35.3196,1.963
35.3206,2.348
35.3238,2.6
35.3238,2.632
35.3260,2.636
35.3268,2.556
35.3278,2.211
35.3308,1.8
35.3308,1.392
35.3308,1.257
35.3341,1.245
35.3341,1.243
35.3351,1.25
35.3376,1.291
35.3386,1.556
35.3396,1.98
35.3418,2.386
35.3425,2.626
35.3448,2.634
35.3457,2.64
35.3467,2.582
35.3489,2.262
35.3494,1.849
35.3504,1.441
35.3528,1.244
35.3565,1.239
35.3643,1.239
35.3743,1.242
35.3793,1.254
35.3800,1.295
35.3803,1.525
35.3803,2.08
35.3803,2.203
35.3813,2.025
35.3813,1.759
35.3823,1.25
35.3823,1.239
35.3835,1.237
35.3843,1.236
35.3843,1.236
35.3843,1.237
35.3853,1.241
35.3853,1.444
35.3853,1.854
35.3863,2.341
35.3863,2.658
35.3863,2.71
35.3873,2.71
35.3873,2.678
35.3873,2.556
35.3883,2.189
35.3904,1.771
35.3913,1.405
35.3923,1.27
35.3958,1.259
35.3958,1.277
35.3969,1.395
35.3990,1.735
35.4001,2.132
35.4021,2.52
35.4025,2.635
35.4032,2.71
35.4066,2.71
35.4073,2.627
35.4073,2.395
35.4107,1.97
35.4107,1.587
35.4118,1.25
35.4149,1.244
35.4159,1.244
35.4159,1.251
35.4183,1.288
35.4183,1.519
35.4218,1.932
35.4218,2.607
35.4218,2.639
35.4258,2.702
35.4258,2.655
35.4268,2.631
35.4290,2.344
35.4298,1.495
35.4298,1.266
35.4334,1.247
35.4334,1.242
35.4344,1.242
35.4376,1.248
35.4376,1.275
35.4386,1.867
35.4411,2.271
35.4411,2.578
35.4437,2.634
35.4451,2.641
35.4451,2.641
35.4487,2.328
35.4487,1.915
35.4498,1.502
35.4522,1.266
35.4522,1.246
35.4532,1.242
35.4563,1.247
35.4563,1.265
35.4573,1.448
35.4606,1.841
35.4619,2.223
35.4655,2.547
35.4732,2.633
35.4835,2.631
35.4859,2.603
35.4883,2.332
35.4894,1.929
35.4894,1.508
35.4903,1.266
35.4903,1.243
35.4903,1.241
35.4913,1.247
35.4913,1.267
35.4913,1.429
35.4923,1.813
35.4923,2.22
35.4923,2.63
35.4933,2.628
35.4933,2.634
35.4933,2.614
35.4943,2.36
35.4943,1.95
35.4943,1.273
35.4954,1.247
35.4954,1.242
35.4954,1.242
35.4965,1.247
35.4986,1.268
35.4998,1.417
35.5008,2.219
35.5008,2.558
35.5028,2.634
35.5038,2.636
35.5062,2.651
35.5062,2.625
35.5072,2.402
35.5092,1.586
35.5102,1.278
35.5122,1.248
35.5137,1.243
35.5147,1.242
35.5164,1.247
35.5176,1.267
35.5186,1.81
35.5207,2.231
35.5217,2.567
35.5229,2.627
35.5239,2.639
35.5257,2.633
35.5267,2.417
35.5289,2.033
35.5297,1.615
35.5307,1.291
35.5323,1.25
35.5332,1.243
35.5344,1.242
35.5367,1.266
35.5377,1.405
35.5387,1.798
35.5407,2.211
35.5417,2.556
35.5427,2.635
35.5439,2.638
35.5451,2.641
35.5461,2.445
35.5487,2.061
35.5497,1.636
35.5517,1.299
35.5527,1.251
35.5537,1.243
35.5557,1.247
35.5567,1.263
35.5577,1.387
35.5597,1.763
35.5607,2.175
35.5618,2.529
35.5648,2.638
35.5648,2.638
35.5648,2.633
35.5682,2.439
35.5682,2.047
35.5692,1.626
35.5743,1.296
35.5798,1.243
35.5842,1.241
35.5936,1.245
35.5974,1.26
35.5984,1.366
35.5994,1.716
35.5994,2.126
35.5994,2.638
35.6004,2.64
35.6004,2.639
35.6004,2.633
35.6015,2.452
35.6015,2.054
35.6015,1.299
35.6015,1.25
35.6025,1.243
35.6025,1.241
35.6025,1.245
35.6035,1.259
35.6035,1.35
35.6035,2.093
35.6045,2.48
35.6045,2.638
35.6045,2.636
35.6055,2.633
35.6069,2.649
35.6069,2.467
35.6080,1.656
35.6120,1.307
35.6121,1.25
35.6148,1.243
35.6148,1.241
35.6158,1.244
35.6168,1.334
35.6190,1.644
35.6190,2.06
35.6229,2.433
35.6231,2.638
35.6231,2.636
35.6267,2.637
35.6267,2.438
35.6278,2.071
35.6308,1.659
35.6308,1.305
35.6308,1.25
35.6342,1.242
35.6349,1.24
35.6349,1.254
35.6386,1.322
35.6393,1.632
35.6418,2.05
35.6418,2.424
35.6418,2.641
35.6451,2.634
35.6452,2.637
35.6462,2.478
35.6488,2.097
35.6494,1.663
35.6504,1.312
35.6538,1.243
35.6538,1.241
35.6548,1.244
35.6571,1.255
35.6579,1.312
35.6579,1.598
35.6600,2.037
35.6609,2.634
35.6631,2.636
35.6655,2.64
35.6661,2.637
35.6677,2.504
35.6689,2.142
35.6697,1.348
35.6727,1.253
35.6727,1.244
35.6738,1.241
35.6767,1.244
35.6767,1.255
35.6777,1.318
35.6811,2.044
35.6848,2.41
35.6918,2.631
35.7032,2.637
35.7050,2.636
35.7086,2.649
35.7090,2.157
35.7090,1.732
35.7090,1.349
35.7100,1.253
35.7100,1.244
35.7100,1.241
35.7110,1.244
35.7110,1.309
35.7110,1.59
35.7121,2.011
35.7121,2.398
35.7121,2.625
35.7130,2.636
35.7130,2.647
35.7130,2.528
35.7130,2.176
35.7141,1.766
35.7141,1.37
35.7141,1.255
35.7152,1.244
35.7152,1.243
35.7162,1.252
35.7172,1.301
35.7182,1.569
35.7193,1.983
35.7228,2.365
35.7228,2.632
35.7238,2.633
35.7269,2.631
35.7269,2.539
35.7291,2.208
35.7291,1.797
35.7301,1.257
35.7322,1.245
35.7332,1.242
35.7343,1.243
35.7377,1.252
35.7377,1.292
35.7387,1.528
35.7408,2.36
35.7409,2.613
35.7419,2.637
35.7456,2.636
35.7456,2.651
35.7487,2.555
35.7489,1.813
35.7497,1.4
35.7521,1.258
35.7525,1.245
35.7531,1.241
35.7566,1.243
35.7573,1.251
35.7573,1.527
35.7607,1.937
35.7607,2.321
35.7618,2.6
35.7648,2.626
35.7648,2.631
35.7677,2.572
35.7681,2.252
35.7681,1.833
35.7713,1.435
35.7713,1.261
35.7723,1.246
35.7754,1.242
35.7754,1.25
35.7765,1.285
35.7788,1.526
35.7788,1.916
35.7799,2.304
35.7840,2.604
35.7840,2.634
35.7840,2.638
35.7897,2.56
35.7919,2.251
35.7997,1.849
35.8082,1.443
35.8103,1.245
35.8129,1.241
35.8139,1.243
35.8139,1.249
35.8139,1.281
35.8149,1.497
35.8149,1.896
35.8159,2.591
35.8169,2.631
35.8169,2.636
35.8180,2.63
35.8181,2.593
35.8181,2.297
35.8181,1.5
35.8191,1.266
35.8191,1.247
35.8191,1.24
35.8201,1.24
35.8201,1.244
35.8201,1.264
35.8211,1.761
35.8211,2.148
35.8211,2.465
35.8221,2.638
35.8244,2.63
35.8253,2.648
35.8262,2.039
35.8285,1.501
35.8296,1.255
35.8323,1.239
35.8323,1.235
35.8343,1.234
35.8355,1.235
35.8367,1.253
35.8375,1.34
35.8399,1.674
35.8418,2.022
35.8418,2.22
35.8450,2.347
35.8450,2.224
35.8450,2.032
35.8488,1.792
35.8488,1.506
35.8498,1.274
35.8521,1.25
35.8521,1.241
35.8556,1.237
35.8562,1.24
35.8562,1.249
35.8598,1.317
35.8598,1.679
35.8608,2.173
35.8626,2.625
35.8637,2.639
35.8646,2.516
35.8674,2.279
35.8674,1.91
35.8685,1.549
35.8715,1.335
35.8715,1.268
35.8748,1.266
35.8748,1.274
35.8748,1.33
35.8781,1.581
35.8782,2.092
35.8793,2.703
35.8814,2.71
35.8822,2.71
35.8834,2.71
35.8858,2.71
35.8868,2.71
35.8868,2.335
35.8908,1.966
35.8908,1.738
35.8918,1.666
35.8944,1.694
35.8944,1.588
35.8984,1.473
35.9029,1.48
35.9076,1.699
35.9178,1.967
35.9228,2.217
35.9238,2.529
35.9238,2.71
35.9248,2.654
35.9248,2.354
35.9248,1.702
35.9258,1.258
35.9258,1.236
35.9258,1.232
35.9268,1.231
35.9268,1.231
35.9268,1.232
35.9268,1.234
35.9278,1.242
35.9278,1.268
35.9278,1.422
35.9289,1.828
35.9289,1.945
35.9289,1.953
35.9289,1.815
35.9300,1.589
35.9300,1.308
35.9321,1.253
35.9330,1.249
35.9340,1.252
35.9358,1.262
35.9368,1.311
35.9378,1.601
35.9401,2.058
35.9401,2.673
35.9438,2.71
35.9438,2.71
35.9438,2.71
35.9478,2.709
35.9478,2.603
35.9488,1.868
35.9498,1.427
35.9508,1.261
35.9519,1.25
35.9554,1.245
35.9554,1.249
35.9564,1.261
35.9585,1.702
35.9595,1.975
35.9605,2.218
35.9629,2.365
35.9629,2.483
35.9654,2.571
35.9664,2.168
35.9675,1.735
35.9707,1.28
35.9707,1.236
35.9716,1.231
35.9740,1.23
35.9740,1.23
35.9751,1.23
35.9786,1.235
35.9792,1.38
35.9792,2.288
35.9823,2.71
35.9823,2.71
35.9845,2.533
35.9856,1.942
35.9865,1.299
35.9897,1.236
35.9897,1.231
35.9908,1.23
35.9937,1.23
35.9937,1.23
35.9947,1.231
35.9978,1.239
35.9978,1.433
35.9988,2.173
36.0013,2.71
36.0013,2.71
36.0053,2.71
36.0093,2.71
36.0147,2.71
36.0236,2.71
36.0256,2.672
36.0295,2.121
36.0295,1.237
36.0295,1.233
36.0306,1.232
36.0306,1.232
36.0306,1.236
36.0316,1.25
36.0316,1.817
36.0329,2.273
36.0336,2.578
36.0346,2.682
36.0346,2.711
36.0346,2.71
36.0356,2.627
36.0356,1.88
36.0356,1.434
36.0366,1.257
36.0368,1.244
36.0368,1.241
36.0368,1.241
36.0398,1.391
36.0398,1.748
36.0421,2.106
36.0425,2.337
36.0432,2.511
36.0467,2.254
36.0473,1.581
36.0473,1.246
36.0495,1.235
36.0506,1.232
36.0516,1.231
36.0548,1.231
36.0548,1.231
36.0548,1.231
36.0582,1.23
36.0582,1.23
36.0592,1.23
36.0626,1.234
36.0634,1.598
36.0634,2.481
36.0655,2.71
36.0664,2.71
36.0687,2.628
36.0708,2.367
36.0708,1.741
36.0740,1.865
36.0740,1.789
36.0740,1.5
36.0776,1.41
36.0776,1.318
36.0786,1.273
36.0809,1.724
36.0817,2.333
36.0848,2.658
36.0849,2.71
36.0849,2.71
36.0888,2.71
36.0888,2.71
36.0888,2.682
36.0922,2.427
36.0922,2.011
36.0932,1.702
36.0964,1.513
36.0964,1.467
36.0972,1.953
36.0993,2.28
36.1002,2.473
36.1026,2.58
36.1037,2.545
36.1046,2.462
36.1078,1.836
36.1079,1.45
36.1079,1.253
36.1111,1.239
36.1111,1.234
36.1153,1.233
36.1231,1.233
36.1271,1.236
36.1357,1.245
36.1390,1.285
36.1402,1.524
36.1402,1.817
36.1411,2.01
36.1417,2.053
36.1420,1.765
36.1420,1.356
36.1430,1.236
36.1430,1.23
36.1430,1.23
36.1440,1.23
36.1440,1.23
36.1450,1.232
36.1450,1.234
36.1460,1.236
36.1470,1.234
36.1470,1.238
36.1479,1.481
36.1497,2.026
36.1499,2.444
36.1510,2.637
36.1510,2.691
36.1521,2.693
36.1521,2.618
36.1532,2.677
36.1532,2.711
36.1542,2.71
36.1542,2.661
36.1561,2.637
36.1573,2.619
36.1583,2.327
36.1603,2.601
36.1613,2.71
36.1623,2.71
36.1655,2.711
36.1665,2.71
36.1665,2.71
36.1686,2.682
36.1695,2.631
36.1705,2.397
36.1737,1.884
36.1746,1.569
36.1768,1.414
36.1768,1.591
36.1768,1.716
36.1802,1.927
36.1802,2.174
36.1813,2.277
36.1837,2.329
36.1847,1.932
36.1858,1.61
36.1887,1.283
36.1887,1.24
36.1897,1.234
36.1919,1.232
36.1919,1.231
36.1928,1.231
36.1950,1.232
36.1969,1.235
36.1969,1.241
36.1997,1.247
36.2007,1.264
36.2017,1.304
36.2039,1.26
36.2047,1.244
36.2057,1.237
36.2077,1.233
36.2087,1.233
36.2097,1.233
36.2119,1.232
36.2119,1.23
36.2146,1.23
36.2151,1.23
36.2159,1.23
36.2186,1.23
36.2216,1.271
36.2236,2.033
36.2318,2.71
36.2421,2.71
36.2462,2.71
36.2462,2.71
36.2462,2.71
36.2472,2.71
36.2472,2.71
36.2472,2.669
36.2482,2.532
36.2482,2.02
36.2497,1.462
36.2506,1.283
36.2509,1.316
36.2509,2.653
36.2516,2.71
36.2516,2.71
36.2516,2.71
36.2526,2.71
36.2526,2.71
36.2526,2.71
36.2536,2.265
36.2536,1.701
36.2536,1.327
36.2546,1.249
36.2546,1.248
36.2557,1.255
36.2588,1.329
36.2588,2.553
36.2599,2.71
36.2620,2.71
36.2623,2.71
36.2630,2.71
36.2654,2.711
36.2670,2.089
36.2670,1.32
36.2706,1.233
36.2706,1.23
36.2717,1.23
36.2747,1.23
36.2747,1.23
36.2770,1.23
36.2774,1.23
36.2781,1.23
36.2813,1.23
36.2813,1.23
36.2826,1.232
36.2854,1.233
36.2854,1.233
36.2864,1.231
36.2887,1.231
36.2897,1.23
36.2907,1.23
36.2939,1.23
36.2939,1.23
36.2948,1.234
36.2971,1.342
36.2977,2.057
36.2987,2.705
36.3011,2.71
36.3019,2.71
36.3019,2.71
36.3052,2.71
36.3052,2.71
36.3063,2.71
36.3096,2.71
36.3104,2.671
36.3116,2.345
36.3126,1.428
36.3134,1.277
36.3156,1.304
36.3168,1.552
36.3176,1.994
36.3208,2.495
36.3208,2.71
36.3217,2.71
36.3246,2.709
36.3246,2.71
36.3256,2.71
36.3278,2.71
36.3288,2.71
36.3319,1.793
36.3320,1.265
36.3320,1.236
36.3352,1.232
36.3352,1.23
36.3360,1.231
36.3398,1.242
36.3398,1.261
36.3398,1.347
36.3433,1.346
36.3473,1.269
36.3548,1.238
36.3627,1.23
36.3649,1.23
36.3659,1.23
36.3693,1.23
36.3698,1.23
36.3698,1.23
36.3698,1.23
36.3710,1.23
36.3710,1.23
36.3720,1.232
36.3720,1.313
36.3720,1.971
36.3730,2.667
36.3730,2.71
36.3730,2.71
36.3740,2.71
36.3740,2.71
36.3740,2.71
36.3740,2.71
36.3750,2.71
36.3750,2.647
36.3750,2.282
36.3766,2.236
36.3778,2.372
36.3786,2.589
36.3816,2.641
36.3824,2.672
36.3826,2.71
36.3845,2.71
36.3853,2.71
36.3863,2.71
36.3899,2.711
36.3899,2.665
36.3907,1.837
36.3931,1.517
36.3931,1.287
36.3941,1.27
36.3975,1.363
36.3983,1.606
36.3993,1.869
36.4003,2.397
36.4013,2.635
36.4035,2.674
36.4047,2.71
36.4055,2.652
36.4089,2.042
36.4089,1.234
36.4089,1.231
36.4127,1.23
36.4127,1.23
36.4137,1.23
36.4154,1.23
36.4164,1.23
36.4174,1.235
36.4201,1.235
36.4201,1.231
36.4222,1.231
36.4236,1.231
36.4246,1.233
36.4278,1.776
36.4278,2.166
36.4278,1.987
36.4312,1.827
36.4312,1.603
36.4323,1.3
36.4353,1.267
36.4353,1.407
36.4364,1.605
36.4397,1.738
36.4397,2.024
36.4421,2.449
36.4425,2.671
36.4431,2.71
36.4467,2.71
36.4473,2.71
36.4473,2.698
36.4507,2.538
36.4507,2.094
36.4537,1.342
36.4557,1.269
36.4638,1.273
36.4721,1.315
36.4741,1.506
36.4771,1.837
36.4780,2.194
36.4780,2.632
36.4780,2.682
36.4790,2.71
36.4790,2.71
36.4790,2.71
36.4800,2.71
36.4800,2.692
36.4800,2.528
36.4810,2.007
36.4810,1.377
36.4810,1.241
36.4830,1.233
36.4830,1.234
36.4840,1.238
36.4840,1.244
36.4840,1.256
36.4850,1.286
36.4850,1.286
36.4850,1.256
36.4883,1.242
36.4884,1.247
36.4894,1.248
36.4927,1.279
36.4927,1.388
36.4936,1.353
36.4968,1.288
36.4968,1.236
36.4979,1.238
36.4988,1.249
36.4998,1.299
36.5008,1.898
36.5042,2.606
36.5042,2.644
36.5049,2.605
36.5086,2.28
36.5094,1.863
36.5094,1.647
36.5126,1.665
36.5134,1.529
36.5146,1.41
36.5154,1.511
36.5164,1.793
36.5192,2.153
36.5198,2.545
36.5198,2.646
36.5238,2.71
36.5238,2.71
36.5238,2.654
36.5278,2.505
36.5278,2.106
36.5303,1.663
36.5303,1.249
36.5314,1.241
36.5344,1.239
36.5344,1.24
36.5356,1.246
36.5387,1.276
36.5397,1.467
36.5397,2.251
36.5429,2.545
36.5429,2.638
36.5439,2.624
36.5463,2.648
36.5463,2.443
36.5488,1.672
36.5507,1.311
36.5515,1.25
36.5527,1.242
36.5539,1.24
36.5547,1.241
36.5570,1.247
36.5570,1.49
36.5610,1.901
36.5630,2.3
36.5706,2.587
36.5797,2.632
36.5817,2.634
36.5859,2.487
36.5863,2.126
36.5863,1.712
36.5863,1.334
36.5873,1.251
36.5873,1.241
36.5873,1.239
36.5883,1.245
36.5883,1.272
36.5883,1.463
36.5893,1.856
36.5893,2.273
36.5893,2.574
36.5905,2.631
36.5905,2.643
36.5905,2.529
36.5905,2.187
36.5915,1.792
36.5915,1.398
36.5915,1.244
36.5925,1.241
36.5957,1.243
36.5957,1.25
36.5967,1.285
36.5987,1.514
36.5997,1.916
36.6007,2.592
36.6039,2.632
36.6039,2.634
36.6039,2.634
36.6073,2.576
36.6073,2.281
36.6083,1.498
36.6116,1.272
36.6124,1.25
36.6144,1.244
36.6144,1.246
36.6154,1.255
36.6176,1.305
36.6189,1.98
36.6197,2.386
36.6229,2.635
36.6229,2.634
36.6240,2.672
36.6268,2.641
36.6268,2.132
36.6278,1.66
36.6296,1.294
36.6306,1.244
36.6316,1.236
36.6338,1.234
36.6349,1.233
36.6367,1.238
36.6377,1.249
36.6387,1.326
36.6411,1.826
36.6417,2.388
36.6427,2.648
36.6457,2.585
36.6466,2.379
36.6476,2.136
36.6486,1.869
36.6497,1.634
36.6506,1.514
36.6530,1.373
36.6540,1.266
36.6550,1.291
36.6582,1.456
36.6592,1.841
36.6592,2.253
36.6606,2.593
36.6616,2.71
36.6641,2.71
36.6646,2.711
36.6705,2.7
36.6745,2.569
36.6887,2.222
36.7059,1.427
36.7088,1.268
36.7148,1.253
36.7170,1.252
36.7178,1.262
36.7188,1.333
36.7188,1.631
36.7198,2.425
36.7208,2.643
36.7208,2.666
36.7218,2.71
36.7218,2.658
36.7228,2.561
36.7238,1.762
36.7238,1.334
36.7248,1.249
36.7248,1.241
36.7258,1.24
36.7258,1.242
36.7268,1.254
36.7277,1.624
36.7277,2.069
36.7287,2.459
36.7297,2.633
36.7297,2.711
36.7307,2.711
36.7307,2.68
36.7317,2.571
36.7329,2.271
36.7337,1.562
36.7348,1.271
36.7358,1.267
36.7358,1.294
36.7368,1.452
36.7378,1.814
36.7378,2.216
36.7390,2.578
36.7390,2.71
36.7401,2.711
36.7401,2.711
36.7410,2.665
36.7420,2.511
36.7420,2.124
36.7430,1.323
36.7440,1.252
36.7442,1.244
36.7452,1.243
36.7452,1.248
36.7462,1.268
36.7462,1.418
36.7472,2.19
36.7482,2.511
36.7492,2.64
36.7502,2.632
36.7512,2.629
36.7512,2.595
36.7522,1.967
36.7522,1.531
36.7532,1.263
36.7542,1.247
36.7542,1.241
36.7554,1.24
36.7554,1.259
36.7565,1.359
36.7586,1.712
36.7596,2.117
36.7608,2.462
36.7637,2.637
36.7647,2.631
36.7657,2.626
36.7669,2.391
36.7680,1.998
36.7707,1.59
36.7717,1.284
36.7717,1.249
36.7771,1.242
36.7928,1.245
36.8103,1.26
36.8146,1.368
36.8226,1.727
36.8226,2.12
36.8236,2.469
36.8247,2.629
36.8248,2.636
36.8248,2.607
36.8259,2.333
36.8269,1.916
36.8269,1.48
36.8278,1.244
36.8278,1.239
36.8289,1.238
36.8299,1.241
36.8301,1.251
36.8301,1.319
36.8311,1.666
36.8320,2.514
36.8330,2.632
36.8341,2.711
36.8352,2.71
36.8363,2.711
36.8363,2.633
36.8373,1.988
36.8373,1.618
36.8383,1.329
36.8393,1.274
36.8393,1.265
36.8403,1.28
36.8413,1.368
36.8413,2.064
36.8426,2.448
36.8426,2.637
36.8436,2.71
36.8446,2.71
36.8446,2.711
36.8456,2.617
36.8456,2.358
36.8466,1.984
36.8476,1.568
36.8476,1.297
36.8488,1.258
36.8499,1.26
36.8508,1.293
36.8518,1.487
36.8518,1.853
36.8528,2.218
36.8538,2.543
36.8538,2.631
36.8550,2.639
36.8550,2.64
36.8560,2.413
36.8570,2.017
36.8570,1.583
36.8580,1.281
36.8580,1.247
36.8590,1.239
36.8600,1.241
36.8600,1.249
36.8612,1.286
36.8622,1.527
36.8622,1.929
36.8632,2.574
36.8632,2.65
36.8642,2.631
36.8652,2.603
36.8669,2.371
36.8679,1.982
36.8709,1.577
36.8719,1.247
36.8719,1.24
36.8737,1.239
36.8747,1.24
36.8757,1.246
36.8786,1.275
36.8796,1.451
36.8796,2.204
36.8826,2.483
36.8896,2.628
36.9089,2.65
36.9277,2.52
36.9327,2.289
36.9397,1.524
36.9409,1.266
36.9420,1.245
36.9420,1.239
36.9430,1.238
36.9439,1.24
36.9439,1.246
36.9449,1.466
36.9459,1.871
36.9459,2.253
36.9469,2.547
36.9479,2.652
36.9479,2.634
36.9489,2.61
36.9509,2.055
36.9509,1.656
36.9519,1.324
36.9529,1.252
36.9529,1.243
36.9539,1.241
36.9549,1.244
36.9549,1.308
36.9559,1.593
36.9559,2.022
36.9569,2.397
36.9579,2.623
36.9579,2.631
36.9589,2.639
36.9589,2.537
36.9599,2.184
36.9609,1.768
36.9619,1.381
36.9619,1.256
36.9629,1.246
36.9629,1.246
36.9639,1.256
36.9649,1.329
36.9649,1.648
36.9658,2.059
36.9668,2.44
36.9679,2.633
36.9689,2.703
36.9689,2.633
36.9699,2.573
36.9699,2.24
36.9709,1.836
36.9709,1.422
36.9719,1.247
36.9719,1.243
36.9729,1.245
36.9729,1.256
36.9729,1.317
36.9739,1.63
36.9739,2.036
36.9749,2.632
36.9749,2.634
36.9749,2.639
36.9759,2.639
36.9759,2.578
36.9769,2.198
36.9769,1.829
36.9769,1.257
36.9779,1.245
36.9779,1.242
36.9785,1.243
36.9789,1.252
36.9789,1.292
36.9798,1.961
36.9798,2.339
36.9798,2.608
36.9831,2.637
36.9831,2.64
36.9859,2.64
36.9872,2.561
36.9872,1.795
36.9907,1.41
36.9915,1.259
36.9953,1.246
37.0022,1.242
37.0094,1.243
37.0114,1.292
37.0144,1.542
37.0154,1.955
37.0184,2.349
37.0194,2.62
37.0274,2.633
37.0294,2.634
37.0294,2.58
37.0303,2.256
37.0303,1.842
37.0303,1.437
37.0303,1.259
37.0315,1.246
37.0320,1.243
37.0320,1.251
37.0325,1.289
37.0335,1.532
37.0335,1.946
37.0335,2.329
37.0335,2.634
37.0345,2.638
37.0345,2.638
37.0345,2.587
37.0355,2.29
37.0355,1.869
37.0355,1.462
37.0365,1.247
37.0365,1.242
37.0365,1.243
37.0378,1.25
37.0378,1.284
37.0378,1.509
37.0408,2.33
37.0408,2.609
37.0432,2.633
37.0432,2.643
37.0442,2.636
37.0477,2.608
37.0484,1.946
37.0484,1.526
37.0505,1.274
37.0517,1.25
37.0525,1.245
37.0547,1.246
37.0557,1.255
37.0567,1.568
37.0591,1.991
37.0591,2.396
37.0601,2.634
37.0636,2.682
37.0642,2.711
37.0655,2.636
37.0662,2.415
37.0672,2.0
37.0697,1.578
37.0704,1.284
37.0712,1.251
37.0749,1.245
37.0749,1.252
37.0757,1.286
37.0788,1.515
37.0788,1.907
37.0788,2.304
37.0821,2.603
37.0821,2.639
37.0852,2.634
37.0852,2.604
37.0862,2.337
37.0897,1.939
37.0897,1.522
37.0907,1.269
37.0931,1.243
37.0931,1.242
37.0941,1.248
37.0976,1.271
37.0982,1.436
37.0982,1.824
37.1047,2.564
37.1104,2.645
37.1180,2.633
37.1304,2.634
37.1346,2.619
37.1396,2.342
37.1464,1.536
37.1484,1.273
37.1727,1.249
37.1766,1.243
37.1773,1.243
37.1773,1.248
37.1783,1.271
37.1783,1.836
37.1792,2.252
37.1803,2.577
37.1803,2.637
37.1803,2.648
37.1812,2.638
37.1812,2.39
37.1824,1.993
37.1833,1.578
37.1843,1.282
37.1843,1.25
37.1843,1.243
37.1853,1.242
37.1853,1.268
37.1863,1.424
37.1863,1.814
37.1873,2.218
37.1873,2.553
37.1873,2.631
37.1884,2.637
37.1884,2.62
37.1895,2.378
37.1895,1.975
37.1895,1.568
37.1905,1.277
37.1905,1.242
37.1915,1.242
37.1915,1.246
37.1925,1.263
37.1925,1.387
37.1936,1.764
37.1936,2.163
37.1936,2.637
37.1947,2.632
37.1956,2.631
37.1956,2.623
37.1956,2.369
37.1966,1.974
37.1966,1.277
37.1976,1.248
37.1976,1.242
37.1976,1.241
37.1986,1.245
37.1998,1.262
37.1998,1.381
37.2006,2.152
37.2006,2.497
37.2016,2.64
37.2016,2.634
37.2016,2.63
37.2026,2.621
37.2026,2.028
37.2036,1.614
37.2036,1.291
37.2045,1.25
37.2045,1.243
37.2045,1.242
37.2057,1.246
37.2057,1.375
37.2067,1.73
37.2067,2.14
37.2067,2.496
37.2077,2.637
37.2077,2.633
37.2087,2.622
37.2087,2.404
37.2087,2.012
37.2097,1.605
37.2097,1.29
37.2119,1.249
37.2169,1.242
37.2271,1.244
37.2402,1.258
37.2424,1.351
37.2464,1.692
37.2474,2.1
37.2474,2.459
37.2484,2.631
37.2494,2.627
37.2504,2.627
37.2504,2.416
37.2516,2.039
37.2516,1.629
37.2526,1.3
37.2526,1.243
37.2536,1.242
37.2536,1.245
37.2546,1.258
37.2546,1.342
37.2546,1.678
37.2556,2.439
37.2556,2.633
37.2567,2.636
37.2567,2.635
37.2567,2.623
37.2578,2.417
37.2578,2.035
37.2588,1.297
37.2588,1.249
37.2598,1.242
37.2598,1.24
37.2598,1.243
37.2608,1.253
37.2608,1.606
37.2619,2.006
37.2619,2.371
37.2619,2.609
37.2630,2.635
37.2654,2.636
37.2663,2.394
37.2676,2.031
37.2698,1.617
37.2698,1.29
37.2708,1.248
37.2732,1.241
37.2732,1.24
37.2742,1.252
37.2777,1.311
37.2784,1.602
37.2796,2.017
37.2808,2.392
37.2816,2.627
37.2826,2.637
37.2852,2.647
37.2852,2.448
37.2884,2.074
37.2884,1.665
37.2897,1.315
37.2927,1.251
37.2927,1.241
37.2938,1.243
37.2962,1.254
37.2962,1.313
37.2972,1.613
37.3003,2.028
37.3003,2.621
37.3025,2.634
37.3035,2.632
37.3043,2.643
37.3067,2.499
37.3077,2.131
37.3087,1.708
37.3121,1.253
37.3121,1.244
37.3131,1.241
37.3154,1.243
37.3154,1.252
37.3164,1.301
37.3188,1.973
37.3229,2.336
37.3252,2.592
37.3359,2.637
37.3466,2.635
37.3497,2.618
37.3537,2.408
37.3546,1.629
37.3546,1.294
37.3546,1.248
37.3558,1.241
37.3558,1.238
37.3568,1.24
37.3568,1.279
37.3578,1.488
37.3578,1.899
37.3578,2.28
37.3588,2.548
37.3588,2.636
37.3598,2.636
37.3598,2.433
37.3598,2.065
37.3608,1.668
37.3608,1.318
37.3619,1.25
37.3619,1.242
37.3619,1.241
37.3630,1.247
37.3630,1.275
37.3639,1.481
37.3639,1.882
37.3649,2.256
37.3649,2.631
37.3660,2.634
37.3672,2.603
37.3680,2.344
37.3680,1.917
37.3690,1.444
37.3690,1.25
37.3721,1.234
37.3729,1.233
37.3731,1.233
37.3767,1.234
37.3777,1.238
37.3777,1.251
37.3811,1.3
37.3827,1.962
37.3831,2.638
37.3843,2.631
37.3878,2.398
37.3878,1.692
37.3889,1.423
37.3918,1.28
37.3918,1.267
37.3928,1.266
37.3955,1.275
37.3955,1.524
37.3977,1.921
37.3986,2.337
37.3995,2.62
37.4018,2.702
37.4029,2.71
37.4038,2.71
37.4070,2.673
37.4076,2.493
37.4076,2.063
37.4097,1.62
37.4107,1.305
37.4120,1.253
37.4139,1.246
37.4147,1.254
37.4157,1.294
37.4183,1.534
37.4191,1.907
37.4217,2.275
37.4221,2.579
37.4221,2.634
37.4245,2.65
37.4256,2.516
37.4265,2.173
37.4304,1.749
37.4358,1.365
37.4499,1.243
37.4550,1.24
37.4572,1.24
37.4622,1.245
37.4622,1.265
37.4634,1.406
37.4634,1.79
37.4645,2.48
37.4645,2.65
37.4654,2.645
37.4654,2.639
37.4664,2.454
37.4675,2.108
37.4675,1.339
37.4684,1.25
37.4686,1.241
37.4686,1.238
37.4697,1.239
37.4697,1.243
37.4706,1.37
37.4706,1.724
37.4716,2.115
37.4716,2.426
37.4726,2.625
37.4726,2.666
37.4726,2.629
37.4738,2.105
37.4738,1.698
37.4748,1.327
37.4748,1.25
37.4748,1.241
37.4758,1.238
37.4758,1.242
37.4768,1.257
37.4768,1.349
37.4791,1.693
37.4791,2.082
37.4802,2.388
37.4821,2.603
37.4831,2.607
37.4868,2.42
37.4868,2.1
37.4878,1.707
37.4892,1.337
37.4909,1.25
37.4918,1.238
37.4946,1.238
37.4953,1.241
37.4953,1.256
37.4984,1.343
37.4995,1.662
37.4995,2.053
37.5018,2.602
37.5028,2.661
37.5038,2.611
37.5060,2.454
37.5068,2.116
37.5096,1.706
37.5096,1.25
37.5106,1.241
37.5136,1.238
37.5136,1.238
37.5146,1.241
37.5167,1.252
37.5177,1.314
37.5188,2.006
37.5209,2.337
37.5217,2.564
37.5227,2.655
37.5248,2.602
37.5257,2.406
37.5267,2.09
37.5292,1.342
37.5292,1.25
37.5302,1.24
37.5335,1.237
37.5344,1.237
37.5344,1.239
37.5394,1.249
37.5417,1.567
37.5506,1.954
37.5640,2.29
37.5689,2.517
37.5699,2.621
37.5699,2.578
37.5709,2.409
37.5709,1.699
37.5719,1.327
37.5719,1.248
37.5719,1.24
37.5729,1.237
37.5729,1.237
37.5741,1.248
37.5741,1.29
37.5751,1.535
37.5751,1.921
37.5751,2.25
37.5761,2.478
37.5761,2.589
37.5771,2.393
37.5771,2.078
37.5771,1.687
37.5781,1.326
37.5781,1.249
37.5792,1.239
37.5792,1.236
37.5792,1.238
37.5803,1.245
37.5803,1.277
37.5813,1.48
37.5813,1.871
37.5825,2.205
37.5832,2.439
37.5842,2.541
37.5842,2.368
37.5866,2.057
37.5877,1.664
37.5887,1.313
37.5910,1.247
37.5911,1.236
37.5921,1.235
37.5957,1.237
37.5963,1.244
37.5963,1.271
37.5985,1.445
37.5999,1.82
37.6003,2.41
37.6038,2.524
37.6038,2.514
37.6048,2.357
37.6071,2.039
37.6071,1.633
37.6108,1.303
37.6108,1.238
37.6119,1.236
37.6142,1.235
37.6152,1.237
37.6152,1.243
37.6184,1.267
37.6184,1.784
37.6195,2.137
37.6229,2.385
37.6229,2.508
37.6240,2.493
37.6268,2.338
37.6268,2.049
37.6278,1.305
37.6303,1.246
37.6309,1.238
37.6318,1.236
37.6347,1.235
37.6356,1.236
37.6356,1.241
37.6388,1.389
37.6388,1.746
37.6399,2.091
37.6422,2.355
37.6430,2.497
37.6430,2.503
37.6493,2.358
37.6520,1.667
37.6612,1.315
37.6752,1.247
37.6782,1.238
37.6827,1.236
37.6827,1.235
37.6833,1.241
37.6844,1.26
37.6844,1.383
37.6844,1.735
37.6856,2.099
37.6856,2.355
37.6866,2.486
37.6866,2.361
37.6866,2.077
37.6876,1.698
37.6876,1.333
37.6886,1.248
37.6886,1.239
37.6896,1.235
37.6896,1.236
37.6907,1.241
37.6907,1.259
37.6907,1.37
37.6918,1.711
37.6918,2.076
37.6928,2.493
37.6928,2.511
37.6938,2.354
37.6939,2.09
37.6948,1.715
37.6948,1.336
37.6948,1.239
37.6959,1.236
37.6959,1.235
37.6969,1.236
37.6969,1.241
37.6969,1.257
37.6987,1.361
37.6994,2.045
37.7004,2.306
37.7027,2.449
37.7037,2.494
37.7047,2.364
37.7069,2.097
37.7077,1.34
37.7087,1.248
37.7107,1.239
37.7117,1.236
37.7129,1.235
37.7147,1.236
37.7157,1.239
37.7167,1.335
37.7191,1.648
37.7191,2.013
37.7226,2.286
37.7238,2.442
37.7249,2.475
37.7249,2.097
37.7266,1.712
37.7276,1.331
37.7302,1.248
37.7302,1.239
37.7313,1.235
37.7346,1.235
37.7355,1.239
37.7355,1.252
37.7387,1.325
37.7387,1.626
37.7411,1.997
37.7418,2.279
37.7427,2.468
37.7456,2.353
37.7456,2.104
37.7468,1.736
37.7484,1.35
37.7495,1.249
37.7505,1.239
37.7526,1.234
37.7534,1.235
37.7544,1.238
37.7598,1.25
37.7656,1.305
37.7727,1.586
37.7838,2.232
37.7871,2.415
37.7910,2.452
37.7923,2.331
37.7923,2.09
37.7931,1.725
37.7931,1.248
37.7941,1.238
37.7941,1.235
37.7950,1.234
37.7950,1.235
37.7950,1.238
37.7960,1.248
37.7960,1.537
37.7970,1.898
37.7970,2.198
37.7970,2.369
37.7982,2.416
37.7982,2.307
37.7992,2.076
37.8002,1.343
37.8012,1.248
37.8012,1.238
37.8012,1.235
37.8022,1.234
37.8022,1.235
37.8033,1.247
37.8033,1.291
37.8044,1.542
37.8044,1.903
37.8044,2.186
37.8054,2.371
37.8054,2.433
37.8064,2.072
37.8064,1.726
37.8074,1.346
37.8108,1.249
37.8108,1.239
37.8118,1.235
37.8140,1.234
37.8140,1.237
37.8150,1.246
37.8183,1.28
37.8192,1.496
37.8192,1.875
37.8228,2.175
37.8228,2.413
37.8239,2.327
37.8267,2.111
37.8277,1.749
37.8288,1.354
37.8297,1.25
37.8308,1.235
37.8318,1.234
37.8340,1.234
37.8349,1.237
37.8373,1.245
37.8373,1.277
37.8383,1.485
37.8415,2.162
37.8423,2.352
37.8423,2.415
37.8456,2.333
37.8467,2.118
37.8467,1.761
37.8484,1.251
37.8495,1.239
37.8504,1.235
37.8528,1.234
37.8538,1.235
37.8567,1.237
37.8567,1.244
37.8577,1.472
37.8608,1.846
37.8608,2.15
37.8619,2.338
37.8674,2.426
37.8694,2.352
37.8797,1.792
37.8927,1.397
37.8988,1.252
37.8998,1.24
37.9006,1.235
37.9006,1.234
37.9016,1.237
37.9016,1.244
37.9026,1.271
37.9026,1.444
37.9026,1.818
37.9036,2.125
37.9036,2.33
37.9048,2.331
37.9048,2.133
37.9048,1.797
37.9059,1.396
37.9059,1.252
37.9068,1.239
37.9068,1.234
37.9079,1.234
37.9079,1.236
37.9088,1.242
37.9088,1.265
37.9088,1.404
37.9098,1.752
37.9098,2.272
37.9110,2.362
37.9110,2.298
37.9110,2.098
37.9121,1.758
37.9121,1.372
37.9131,1.239
37.9131,1.235
37.9131,1.233
37.9141,1.234
37.9141,1.235
37.9160,1.241
37.9176,1.261
37.9186,1.743
37.9217,2.064
37.9224,2.278
37.9232,2.368
37.9258,2.323
37.9258,2.133
37.9268,1.408
37.9293,1.253
37.9293,1.24
37.9303,1.235
37.9327,1.234
37.9333,1.234
37.9343,1.235
37.9377,1.26
37.9381,1.373
37.9394,1.712
37.9418,2.042
37.9418,2.256
37.9446,2.346
37.9446,2.118
37.9456,1.798
37.9485,1.407
37.9495,1.253
37.9495,1.239
37.9518,1.235
37.9529,1.233
37.9529,1.235
37.9563,1.24
37.9563,1.258
37.9573,1.357
37.9607,1.69
37.9616,2.014
37.9616,2.335
37.9648,2.304
37.9658,2.109
37.9658,1.803
37.9673,1.424
37.9680,1.254
37.9740,1.239
37.9861,1.233
37.9963,1.234
38.0013,1.235
38.0013,1.239
38.0025,1.255
38.0025,1.339
38.0025,1.977
38.0035,2.212
38.0035,2.321
38.0045,2.289
38.0045,2.102
38.0055,1.799
38.0055,1.418
38.0055,1.239
38.0065,1.235
38.0065,1.233
38.0075,1.233
38.0075,1.235
38.0075,1.239
38.0086,1.324
38.0086,1.618
38.0086,1.946
38.0096,2.19
38.0096,2.316
38.0106,2.305
38.0106,2.131
38.0106,1.429
38.0116,1.254
38.0116,1.24
38.0126,1.235
38.0126,1.234
38.0136,1.233
38.0147,1.238
38.0158,1.25
38.0177,1.293
38.0187,1.5
38.0211,1.793
38.0211,1.982
38.0222,2.056
38.0257,1.809
38.0264,1.455
38.0264,1.253
38.0297,1.237
38.0297,1.232
38.0307,1.231
38.0331,1.231
38.0337,1.233
38.0360,1.238
38.0365,1.25
38.0370,1.292
38.0397,1.527
38.0409,1.861
38.0417,2.402
38.0445,2.555
38.0445,2.558
38.0457,2.358
38.0477,1.944
38.0485,1.479
38.0495,1.243
38.0519,1.239
38.0548,1.238
38.0556,1.251
38.0568,1.294
38.0597,1.879
38.0597,2.211
38.0607,2.425
38.0628,2.523
38.0628,2.493
38.0668,2.306
38.0668,1.596
38.0679,1.275
38.0708,1.242
38.0708,1.236
38.0718,1.234
38.0742,1.233
38.0742,1.234
38.0753,1.247
38.0774,1.29
38.0797,1.516
38.0805,1.868
38.0819,2.111
38.0828,2.243
38.0838,2.097
38.0863,1.818
38.0863,1.433
38.0897,1.256
38.0902,1.24
38.0910,1.235
38.0936,1.233
38.0978,1.234
38.0998,1.236
38.1101,1.246
38.1110,1.279
38.1221,1.487
38.1250,1.819
38.1282,2.201
38.1292,2.222
38.1292,2.072
38.1302,1.813
38.1302,1.439
38.1302,1.255
38.1312,1.235
38.1322,1.233
38.1332,1.233
38.1337,1.233
38.1347,1.236
38.1347,1.245
38.1357,1.271
38.1357,1.76
38.1357,2.021
38.1367,2.16
38.1367,2.173
38.1377,2.047
38.1377,1.797
38.1387,1.419
38.1388,1.239
38.1388,1.235
38.1399,1.233
38.1401,1.233
38.1408,1.233
38.1418,1.235
38.1418,1.266
38.1428,1.4
38.1438,1.717
38.1445,1.984
38.1449,2.133
38.1458,2.16
38.1468,2.032
38.1478,1.427
38.1478,1.254
38.1493,1.239
38.1500,1.235
38.1518,1.233
38.1529,1.233
38.1548,1.235
38.1559,1.242
38.1568,1.264
38.1588,1.382
38.1598,1.688
38.1608,1.962
38.1628,2.123
38.1638,2.033
38.1651,1.791
38.1668,1.439
38.1678,1.255
38.1688,1.239
38.1707,1.235
38.1719,1.232
38.1737,1.233
38.1747,1.235
38.1757,1.241
38.1777,1.26
38.1787,1.369
38.1797,1.674
38.1817,2.109
38.1827,2.142
38.1837,2.016
38.1857,1.776
38.1867,1.424
38.1877,1.255
38.1897,1.235
38.1907,1.233
38.1927,1.232
38.1937,1.233
38.1947,1.234
38.1967,1.241
38.1977,1.258
38.1987,1.636
38.1997,1.918
38.2017,2.077
38.2080,2.119
38.2241,2.008
38.2406,1.785
38.2426,1.432
38.2505,1.24
38.2515,1.235
38.2525,1.233
38.2539,1.232
38.2545,1.232
38.2555,1.234
38.2565,1.239
38.2575,1.328
38.2585,1.599
38.2595,1.872
38.2605,2.042
38.2615,2.086
38.2625,1.977
38.2635,1.756
38.2645,1.254
38.2655,1.239
38.2675,1.234
38.2675,1.232
38.2685,1.232
38.2695,1.232
38.2705,1.237
38.2715,1.249
38.2725,1.286
38.2735,1.464
38.2745,1.718
38.2755,1.868
38.2765,1.919
38.2775,1.603
38.2785,1.315
38.2795,1.246
38.2805,1.236
38.2805,1.233
38.2815,1.232
38.2835,1.231
38.2844,1.232
38.2854,1.235
38.2864,1.244
38.2864,1.268
38.2875,1.395
38.2894,1.643
38.2904,1.808
38.2914,1.768
38.2914,1.548
38.2926,1.29
38.2934,1.245
38.2944,1.236
38.2954,1.233
38.2964,1.232
38.2964,1.231
38.2975,1.232
38.2975,1.235
38.2984,1.241
38.2984,1.261
38.2994,1.356
38.2999,1.576
38.3004,1.837
38.3004,1.765
38.3004,1.554
38.3014,1.296
38.3014,1.246
38.3014,1.236
38.3024,1.232
38.3024,1.231
38.3034,1.231
38.3034,1.232
38.3044,1.235
38.3044,1.243
38.3054,1.265
38.3054,1.637
38.3054,1.832
38.3054,1.904
38.3064,1.843
38.3064,1.653
38.3064,1.353
38.3074,1.251
38.3094,1.234
38.3104,1.232
38.3154,1.232
38.3191,1.232
38.3253,1.232
38.3263,1.236
38.3323,1.245
38.3344,1.433
38.3363,1.7
38.3363,1.893
38.3363,1.974
38.3374,1.907
38.3374,1.709
38.3374,1.255
38.3374,1.24
38.3374,1.235
38.3383,1.232
38.3383,1.232
38.3383,1.232
38.3383,1.233
38.3383,1.245
38.3393,1.272
38.3393,1.428
38.3403,1.688
38.3413,1.881
38.3424,1.969
38.3443,1.723
38.3453,1.406
38.3463,1.254
38.3484,1.239
38.3493,1.234
38.3503,1.233
38.3523,1.232
38.3533,1.233
38.3543,1.235
38.3563,1.243
38.3574,1.266
38.3593,1.396
38.3603,1.665
38.3614,1.864
38.3634,1.899
38.3644,1.726
38.3657,1.428
38.3675,1.255
38.3685,1.24
38.3696,1.234
38.3715,1.232
38.3727,1.232
38.3735,1.232
38.3756,1.235
38.3765,1.242
38.3775,1.265
38.3794,1.383
38.3805,1.862
38.3814,1.957
38.3834,1.917
38.3844,1.724
38.3865,1.448
38.3875,1.26
38.3885,1.235
38.3895,1.233
38.3915,1.232
38.3926,1.232
38.3936,1.233
38.3955,1.235
38.3965,1.243
38.3983,1.389
38.3995,1.668
38.4005,1.887
38.4025,1.986
38.4036,1.951
38.4045,1.777
38.4065,1.266
38.4075,1.242
38.4091,1.235
38.4106,1.233
38.4115,1.232
38.4135,1.232
38.4145,1.233
38.4155,1.243
38.4175,1.267
38.4185,1.401
38.4215,1.685
38.4227,1.903
38.4307,2.011
38.4317,1.816
38.4391,1.534
38.4403,1.275
38.4424,1.244
38.4427,1.236
38.4427,1.233
38.4427,1.232
38.4427,1.233
38.4427,1.235
38.4437,1.243
38.4437,1.269
38.4437,1.407
38.4437,1.707
38.4437,2.041
38.4447,2.027
38.4447,1.872
38.4447,1.59
38.4457,1.292
38.4484,1.246
38.4497,1.237
38.4507,1.233
38.4517,1.232
38.4527,1.233
38.4548,1.236
38.4558,1.245
38.4568,1.276
38.4588,1.748
38.4598,1.977
38.4608,2.092
38.4628,2.088
38.4638,1.933
38.4658,1.651
38.4668,1.326
38.4678,1.238
38.4688,1.234
38.4709,1.233
38.4719,1.233
38.4729,1.234
38.4749,1.237
38.4759,1.28
38.4780,1.482
38.4790,1.81
38.4799,2.054
38.4819,2.181
38.4830,2.182
38.4839,2.036
38.4862,1.406
38.4869,1.255
38.4879,1.24
38.4902,1.235
38.4914,1.234
38.4921,1.233
38.4940,1.238
38.4951,1.25
38.4965,1.297
38.4981,1.537
38.4990,1.871
38.5011,2.101
38.5024,2.231
38.5030,2.091
38.5050,1.833
38.5066,1.467
38.5070,1.261
38.5090,1.242
38.5100,1.236
38.5110,1.234
38.5130,1.235
38.5140,1.238
38.5150,1.25
38.5171,1.3
38.5181,1.549
38.5191,1.88
38.5211,2.253
38.5221,2.268
38.5242,2.141
38.5252,1.867
38.5262,1.511
38.5311,1.267
38.5367,1.237
38.5414,1.234
38.5429,1.234
38.5444,1.235
38.5454,1.239
38.5454,1.251
38.5454,1.308
38.5464,1.921
38.5464,2.183
38.5464,2.335
38.5464,2.362
38.5464,2.226
38.5475,1.973
38.5475,1.3
38.5485,1.247
38.5495,1.238
38.5515,1.236
38.5534,1.235
38.5534,1.236
38.5563,1.24
38.5563,1.323
38.5573,1.612
38.5597,1.972
38.5607,2.218
38.5607,2.369
38.5643,2.418
38.5648,2.037
38.5658,1.713
38.5683,1.355
38.5683,1.25
38.5706,1.24
38.5727,1.237
38.5727,1.235
38.5750,1.242
38.5757,1.259
38.5758,1.36
38.5790,1.691
38.5790,2.047
38.5798,2.306
38.5830,2.498
38.5830,2.38
38.5838,2.149
38.5872,1.804
38.5872,1.416
38.5882,1.256
38.5906,1.242
38.5916,1.236
38.5948,1.237
38.5948,1.242
38.5958,1.258
38.5982,1.358
38.5982,1.688
38.5992,2.309
38.6020,2.469
38.6020,2.509
38.6040,2.402
38.6054,2.178
38.6062,1.837
38.6072,1.449
38.6095,1.243
38.6106,1.238
38.6116,1.237
38.6149,1.238
38.6160,1.242
38.6160,1.258
38.6176,1.684
38.6186,2.051
38.6209,2.331
38.6216,2.503
38.6226,2.557
38.6262,2.458
38.6272,1.875
38.6272,1.488
38.6287,1.265
38.6297,1.244
38.6307,1.239
38.6338,1.237
38.6348,1.238
38.6348,1.252
38.6423,1.294
38.6566,1.489
38.6595,1.767
38.6740,1.977
38.6832,2.084
38.6842,1.928
38.6853,1.642
38.6855,1.318
38.6865,1.244
38.6865,1.235
38.6875,1.232
38.6875,1.232
38.6885,1.235
38.6895,1.238
38.6895,1.246
38.6907,1.284
38.6907,1.526
38.6918,2.016
38.6928,2.439
38.6928,2.635
38.6937,2.638
38.6937,2.631
38.6947,2.365
38.6957,1.949
38.6959,1.588
38.6970,1.256
38.6970,1.25
38.6986,1.252
38.6999,1.268
38.7009,1.367
38.7009,1.684
38.7022,2.378
38.7022,2.617
38.7032,2.638
38.7042,2.634
38.7042,2.625
38.7052,2.49
38.7052,2.14
38.7062,1.346
38.7072,1.252
38.7072,1.243
38.7084,1.24
38.7084,1.24
38.7094,1.245
38.7104,1.39
38.7104,1.734
38.7114,2.105
38.7114,2.395
38.7124,2.58
38.7134,2.636
38.7134,2.562
38.7150,2.023
38.7156,1.629
38.7168,1.304
38.7176,1.249
38.7186,1.241
38.7186,1.238
38.7198,1.244
38.7198,1.258
38.7209,1.349
38.7219,1.673
38.7219,2.041
38.7229,2.345
38.7229,2.536
38.7239,2.543
38.7268,2.355
38.7278,1.646
38.7290,1.316
38.7298,1.241
38.7316,1.238
38.7326,1.238
38.7350,1.243
38.7361,1.257
38.7363,1.341
38.7398,1.658
38.7398,2.341
38.7409,2.539
38.7426,2.615
38.7437,2.565
38.7499,2.38
38.7530,2.059
38.7672,1.325
38.7826,1.251
38.7861,1.241
38.7914,1.239
38.7924,1.239
38.7924,1.243
38.7934,1.256
38.7944,1.645
38.7944,2.021
38.7954,2.324
38.7954,2.533
38.7967,2.613
38.7967,2.567
38.7977,2.093
38.7996,1.71
38.8008,1.343
38.8008,1.252
38.8020,1.242
38.8030,1.239
38.8030,1.243
38.8040,1.256
38.8040,1.334
38.8050,1.652
38.8060,2.035
38.8060,2.341
38.8070,2.548
38.8080,2.598
38.8080,2.438
38.8090,2.145
38.8100,1.758
38.8100,1.386
38.8110,1.256
38.8110,1.24
38.8120,1.24
38.8131,1.243
38.8132,1.257
38.8142,1.346
38.8142,1.669
38.8152,2.048
38.8163,2.576
38.8172,2.658
38.8172,2.628
38.8184,2.473
38.8184,2.18
38.8195,1.801
38.8205,1.258
38.8205,1.244
38.8215,1.24
38.8225,1.24
38.8225,1.243
38.8236,1.257
38.8236,1.335
38.8247,2.024
38.8247,2.349
38.8257,2.568
38.8267,2.645
38.8267,2.624
38.8277,2.483
38.8277,1.82
38.8288,1.431
38.8288,1.259
38.8308,1.244
38.8318,1.24
38.8328,1.24
38.8351,1.243
38.8358,1.318
38.8368,1.608
38.8387,2.0
38.8397,2.31
38.8409,2.544
38.8437,2.637
38.8447,2.465
38.8447,2.187
38.8471,1.811
38.8481,1.419
38.8507,1.257
38.8517,1.244
38.8517,1.24
38.8539,1.243
38.8609,1.252
38.8749,1.303
38.8908,1.566
38.8944,1.94
38.9008,2.269
38.9019,2.527
38.9019,2.603
38.9029,2.464
38.9030,2.187
38.9030,1.816
38.9030,1.424
38.9041,1.258
38.9041,1.24
38.9051,1.239
38.9051,1.242
38.9051,1.252
38.9060,1.3
38.9060,1.556
38.9070,1.942
38.9070,2.517
38.9070,2.627
38.9082,2.618
38.9082,2.487
38.9082,2.216
38.9092,1.847
38.9092,1.45
38.9102,1.244
38.9102,1.24
38.9102,1.239
38.9102,1.241
38.9112,1.251
38.9112,1.296
38.9112,1.543
38.9122,2.265
38.9122,2.509
38.9122,2.627
38.9122,2.628
38.9133,2.499
38.9133,2.248
38.9133,1.49
38.9133,1.265
38.9143,1.246
38.9143,1.241
38.9143,1.239
38.9163,1.242
38.9163,1.251
38.9163,1.543
38.9173,1.921
38.9207,2.283
38.9207,2.537
38.9217,2.648
38.9240,2.657
38.9246,2.546
38.9256,1.943
38.9285,1.559
38.9293,1.28
38.9293,1.249
38.9311,1.242
38.9320,1.24
38.9331,1.253
38.9356,1.304
38.9366,1.565
38.9376,1.948
38.9408,2.3
38.9408,2.556
38.9428,2.643
38.9436,2.579
38.9446,2.343
38.9468,1.987
38.9477,1.593
38.9485,1.292
38.9515,1.25
38.9522,1.242
38.9522,1.243
38.9557,1.253
38.9557,1.301
38.9568,1.566
38.9578,1.947
38.9605,2.295
38.9605,2.546
38.9645,2.65
38.9674,2.588
38.9745,2.363
38.9835,2.015
38.9854,1.625
38.9884,1.307
38.9896,1.244
38.9896,1.241
38.9904,1.243
38.9904,1.253
38.9904,1.301
38.9914,1.553
38.9914,1.945
38.9924,2.551
38.9926,2.642
38.9926,2.652
38.9936,2.605
38.9936,2.392
38.9936,2.043
38.9946,1.655
38.9946,1.253
38.9946,1.244
38.9956,1.241
38.9956,1.243
38.9956,1.252
38.9966,1.292
38.9980,1.922
38.9990,2.286
39.0000,2.545
39.0021,2.65
39.0021,2.648
39.0058,2.612
39.0058,2.409
39.0058,1.68
39.0092,1.339
39.0092,1.254
39.0102,1.244
39.0123,1.242
39.0132,1.244
39.0143,1.296
39.0164,1.538
39.0173,1.919
39.0183,2.28
39.0207,2.549
39.0213,2.646
39.0244,2.651
39.0244,2.432
39.0254,2.094
39.0274,1.719
39.0284,1.35
39.0294,1.255
39.0318,1.244
39.0323,1.243
39.0328,1.251
39.0369,1.291
39.0369,1.525
39.0369,1.912
39.0401,2.28
39.0410,2.553
39.0410,2.636
39.0447,2.647
39.0447,2.461
39.0473,2.132
39.0473,1.751
39.0483,1.381
39.0515,1.245
39.0515,1.243
39.0525,1.243
39.0555,1.252
39.0577,1.287
39.0577,1.498
39.0587,1.884
39.0597,2.54
39.0607,2.634
39.0631,2.631
39.0631,2.625
39.0641,2.47
39.0666,2.148
39.0676,1.394
39.0708,1.259
39.0748,1.246
39.0830,1.243
39.0923,1.244
39.0943,1.251
39.0976,1.512
39.0976,1.898
39.0984,2.268
39.0994,2.552
39.0994,2.632
39.1005,2.628
39.1005,2.645
39.1005,2.193
39.1014,1.796
39.1014,1.416
39.1014,1.261
39.1026,1.247
39.1026,1.244
39.1026,1.252
39.1036,1.284
39.1036,1.497
39.1036,1.88
39.1046,2.25
39.1046,2.537
39.1046,2.646
39.1046,2.651
39.1056,2.514
39.1056,2.199
39.1066,1.818
39.1089,1.432
39.1097,1.262
39.1128,1.243
39.1129,1.243
39.1138,1.249
39.1149,1.279
39.1168,1.468
39.1177,1.824
39.1202,2.486
39.1202,2.654
39.1212,2.627
39.1243,2.632
39.1243,2.502
39.1253,2.196
39.1285,1.816
39.1285,1.263
39.1318,1.247
39.1318,1.243
39.1330,1.243
39.1344,1.25
39.1348,1.277
39.1368,1.843
39.1378,2.222
39.1398,2.521
39.1408,2.643
39.1418,2.631
39.1438,2.65
39.1448,2.535
39.1468,1.835
39.1478,1.453
39.1488,1.264
39.1508,1.248
39.1520,1.243
39.1528,1.243
39.1548,1.274
39.1558,1.445
39.1568,1.811
39.1580,2.187
39.1589,2.487
39.1610,2.639
39.1629,2.642
39.1639,2.545
39.1649,2.247
39.1659,1.865
39.1680,1.48
39.1699,1.266
39.1709,1.247
39.1721,1.243
39.1779,1.248
39.1910,1.27
39.2042,1.419
39.2067,1.79
39.2107,2.165
39.2107,2.634
39.2117,2.631
39.2117,2.649
39.2127,2.556
39.2127,2.282
39.2127,1.891
39.2137,1.501
39.2137,1.249
39.2147,1.243
39.2160,1.243
39.2169,1.248
39.2169,1.27
39.2179,1.414
39.2179,2.148
39.2189,2.463
39.2189,2.643
39.2189,2.63
39.2199,2.646
39.2199,2.569
39.2209,1.911
39.2209,1.526
39.2209,1.275
39.2221,1.25
39.2221,1.244
39.2231,1.243
39.2231,1.248
39.2231,1.401
39.2241,1.766
39.2241,2.156
39.2251,2.477
39.2251,2.644
39.2261,2.632
39.2261,2.567
39.2271,2.299
39.2271,1.928
39.2271,1.535
39.2307,1.281
39.2307,1.251
39.2317,1.244
39.2328,1.244
39.2349,1.253
39.2349,1.292
39.2369,1.475
39.2389,1.784
39.2399,2.061
39.2409,2.276
39.2428,2.194
39.2438,1.976
39.2448,1.656
39.2460,1.296
39.2470,1.244
39.2490,1.237
39.2500,1.238
39.2512,1.239
39.2548,1.24
39.2548,1.248
39.2571,1.301
39.2572,1.679
39.2583,2.597
39.2612,2.71
39.2620,2.711
39.2620,2.711
39.2649,2.71
39.2657,2.615
39.2667,2.004
39.2689,1.634
39.2689,1.348
39.2700,1.276
39.2731,1.269
39.2741,1.284
39.2768,1.382
39.2768,2.011
39.2779,2.369
39.2801,2.622
39.2802,2.65
39.2813,2.71
39.2847,2.701
39.2855,2.471
39.2855,2.09
39.2918,1.698
39.2947,1.346
39.3048,1.256
39.3159,1.247
39.3213,1.244
39.3222,1.265
39.3222,1.379
39.3232,1.721
39.3232,2.102
39.3244,2.437
39.3244,2.637
39.3254,2.634
39.3254,2.616
39.3254,2.39
39.3264,2.023
39.3264,1.626
39.3274,1.304
39.3274,1.252
39.3274,1.243
39.3284,1.246
39.3284,1.259
39.3295,1.338
39.3296,1.651
39.3296,2.026
39.3306,2.608
39.3306,2.634
39.3316,2.637
39.3326,2.604
39.3336,2.38
39.3336,2.017
39.3346,1.627
39.3346,1.252
39.3346,1.244
39.3357,1.242
39.3357,1.245
39.3368,1.257
39.3368,1.313
39.3368,2.008
39.3387,2.342
39.3397,2.592
39.3422,2.625
39.3422,2.637
39.3458,2.604
39.3458,2.376
39.3469,1.638
39.3481,1.314
39.3501,1.252
39.3501,1.244
39.3534,1.242
39.3534,1.244
39.3545,1.311
39.3576,1.592
39.3584,1.972
39.3588,2.318
39.3617,2.577
39.3627,2.64
39.3627,2.644
39.3649,2.406
39.3657,2.048
39.3679,1.66
39.3687,1.327
39.3699,1.254
39.3728,1.244
39.3728,1.245
39.3739,1.254
39.3763,1.309
39.3763,1.573
39.3773,1.944
39.3807,2.313
39.3816,2.646
39.3816,2.643
39.3838,2.62
39.3846,2.427
39.3869,2.085
39.3875,1.695
39.3881,1.343
39.3917,1.245
39.3923,1.243
39.3923,1.245
39.3958,1.254
39.3958,1.303
39.4018,1.559
39.4121,2.555
39.4240,2.652
39.4270,2.636
39.4311,2.629
39.4320,2.439
39.4330,1.707
39.4330,1.35
39.4340,1.254
39.4340,1.244
39.4340,1.242
39.4350,1.244
39.4350,1.297
39.4360,1.546
39.4360,1.927
39.4360,2.28
39.4371,2.55
39.4371,2.649
39.4371,2.633
39.4382,2.443
39.4382,2.088
39.4392,1.697
39.4392,1.342
39.4402,1.255
39.4402,1.244
39.4402,1.243
39.4412,1.25
39.4412,1.283
39.4422,1.49
39.4423,1.859
39.4423,2.22
39.4434,2.49
39.4434,2.64
39.4434,2.597
39.4445,2.402
39.4453,2.07
39.4477,1.677
39.4487,1.327
39.4497,1.243
39.4517,1.241
39.4529,1.241
39.4539,1.248
39.4568,1.274
39.4568,1.445
39.4578,1.8
39.4604,2.467
39.4610,2.624
39.4627,2.662
39.4638,2.598
39.4650,2.401
39.4678,2.075
39.4678,1.343
39.4689,1.253
39.4713,1.244
39.4713,1.241
39.4723,1.241
39.4757,1.247
39.4767,1.27
39.4767,1.799
39.4797,2.168
39.4797,2.447
39.4807,2.618
39.4838,2.662
39.4838,2.603
39.4867,2.096
39.4871,1.722
39.4881,1.352
39.4904,1.255
39.4909,1.244
39.4920,1.24
39.4943,1.247
39.4951,1.269
39.4951,1.42
39.4985,1.792
39.4985,2.163
39.4993,2.444
39.5018,2.628
39.5028,2.617
39.5040,2.449
39.5077,2.135
39.5127,1.749
39.5219,1.379
39.5351,1.258
39.5372,1.242
39.5421,1.242
39.5421,1.249
39.5421,1.272
39.5430,1.444
39.5430,1.81
39.5442,2.184
39.5442,2.642
39.5452,2.631
39.5452,2.632
39.5452,2.511
39.5462,2.211
39.5462,1.803
39.5472,1.264
39.5472,1.248
39.5482,1.244
39.5492,1.244
39.5492,1.25
39.5503,1.279
39.5513,1.467
39.5513,2.213
39.5524,2.511
39.5524,2.651
39.5533,2.633
39.5533,2.643
39.5533,2.547
39.5543,2.252
39.5543,1.484
39.5553,1.268
39.5553,1.249
39.5563,1.244
39.5564,1.244
39.5564,1.25
39.5575,1.456
39.5575,1.831
39.5585,2.203
39.5607,2.501
39.5617,2.642
39.5626,2.64
39.5638,2.651
39.5646,2.279
39.5666,1.899
39.5679,1.517
39.5686,1.274
39.5718,1.25
39.5718,1.244
39.5730,1.244
39.5758,1.275
39.5758,1.442
39.5768,1.814
39.5792,2.191
39.5792,2.506
39.5802,2.637
39.5823,2.649
39.5832,2.569
39.5844,2.296
39.5865,1.922
39.5874,1.537
39.5884,1.278
39.5918,1.25
39.5918,1.244
39.5949,1.25
39.5949,1.275
39.5960,1.43
39.5982,1.804
39.5982,2.184
39.5991,2.496
39.6016,2.636
39.6026,2.633
39.6036,2.585
39.6057,2.337
39.6067,1.955
39.6077,1.567
39.6097,1.251
39.6107,1.245
39.6118,1.244
39.6136,1.25
39.6156,1.271
39.6189,1.416
39.6237,1.789
39.6299,2.464
39.6412,2.648
39.6442,2.64
39.6485,2.637
39.6495,2.603
39.6504,2.358
39.6504,1.986
39.6504,1.296
39.6514,1.253
39.6514,1.246
39.6524,1.244
39.6524,1.25
39.6535,1.271
39.6536,1.775
39.6536,2.157
39.6546,2.479
39.6546,2.635
39.6556,2.632
39.6556,2.638
39.6566,2.622
39.6566,1.99
39.6566,1.616
39.6576,1.305
39.6576,1.253
39.6586,1.246
39.6586,1.245
39.6596,1.25
39.6598,1.405
39.6598,1.767
39.6608,2.142
39.6618,2.47
39.6618,2.643
39.6618,2.635
39.6650,2.619
39.6663,2.408
39.6670,2.042
39.6670,1.664
39.6680,1.334
39.6690,1.257
39.6716,1.247
39.6726,1.25
39.6746,1.27
39.6757,1.408
39.6768,1.759
39.6798,2.141
39.6798,2.474
39.6808,2.639
39.6838,2.644
39.6838,2.641
39.6848,2.429
39.6875,2.069
39.6875,1.676
39.6885,1.338
39.6918,1.247
39.6918,1.245
39.6930,1.25
39.6958,1.27
39.6958,1.379
39.6979,1.732
39.6979,2.442
39.6990,2.637
39.7019,2.632
39.7029,2.632
39.7029,2.641
39.7055,2.429
39.7065,2.064
39.7075,1.333
39.7103,1.256
39.7103,1.247
39.7113,1.244
39.7146,1.25
39.7155,1.266
39.7155,1.729
39.7181,2.126
39.7181,2.456
39.7203,2.639
39.7214,2.629
39.7221,2.628
39.7286,2.476
39.7386,2.113
39.7488,1.726
39.7514,1.372
39.7550,1.26
39.7559,1.249
39.7559,1.246
39.7571,1.267
39.7571,1.379
39.7581,1.724
39.7581,2.101
39.7581,2.445
39.7591,2.637
39.7591,2.637
39.7601,2.634
39.7601,2.485
39.7611,2.139
39.7611,1.748
39.7611,1.383
39.7621,1.26
39.7621,1.246
39.7631,1.249
39.7631,1.265
39.7641,1.37
39.7641,1.71
39.7651,2.096
39.7656,2.632
39.7661,2.631
39.7672,2.637
39.7681,2.648
39.7683,2.506
39.7683,2.164
39.7693,1.778
39.7693,1.264
39.7704,1.249
39.7713,1.245
39.7723,1.249
39.7744,1.265
39.7753,1.36
39.7763,2.066
39.7797,2.421
39.7797,2.628
39.7814,2.634
39.7824,2.633
39.7838,2.646
39.7858,2.516
39.7865,1.794
39.7875,1.429
39.7910,1.265
39.7910,1.249
39.7910,1.247
39.7948,1.25
39.7948,1.358
39.7959,1.682
39.7976,2.073
39.7986,2.424
39.7996,2.63
39.8022,2.633
39.8022,2.64
39.8058,2.558
39.8058,2.23
39.8068,1.823
39.8098,1.448
39.8098,1.267
39.8108,1.25
39.8136,1.25
39.8136,1.263
39.8146,1.334
39.8167,1.613
39.8176,1.945
39.8185,2.24
39.8218,2.561
39.8218,2.552
39.8248,2.401
39.8250,2.137
39.8260,1.72
39.8284,1.319
39.8284,1.245
39.8295,1.233
39.8318,1.233
39.8364,1.235
39.8386,1.244
39.8482,1.281
39.8584,1.475
39.8614,2.189
39.8666,2.522
39.8666,2.662
39.8676,2.71
39.8676,2.71
39.8686,2.709
39.8686,2.597
39.8686,1.885
39.8698,1.559
39.8698,1.358
39.8709,1.291
39.8709,1.296
39.8719,1.404
39.8719,2.029
39.8719,2.409
39.8729,2.638
39.8729,2.702
39.8739,2.71
39.8739,2.711
39.8749,2.655
39.8750,2.458
39.8750,2.06
39.8760,1.649
39.8760,1.326
39.8770,1.257
39.8770,1.252
39.8770,1.267
39.8780,1.354
39.8780,1.667
39.8790,2.055
39.8790,2.411
39.8800,2.631
39.8817,2.694
39.8823,2.633
39.8850,2.615
39.8850,2.323
39.8870,1.94
39.8907,1.55
39.8907,1.253
39.8917,1.248
39.8917,1.249
39.8937,1.26
39.8947,1.315
39.8982,1.596
39.8983,1.984
39.9003,2.609
39.9003,2.634
39.9013,2.639
39.9023,2.63
39.9057,2.603
39.9057,2.325
39.9079,1.558
39.9088,1.291
39.9089,1.254
39.9128,1.248
39.9128,1.249
39.9138,1.259
39.9168,1.314
39.9168,1.969
39.9178,2.336
39.9204,2.601
39.9204,2.629
39.9214,2.637
39.9238,2.64
39.9244,2.323
39.9265,1.948
39.9276,1.568
39.9286,1.296
39.9317,1.254
39.9318,1.248
39.9326,1.248
39.9349,1.307
39.9359,1.56
39.9359,1.94
39.9395,2.315
39.9451,2.594
39.9551,2.637
39.9565,2.628
39.9681,2.618
39.9707,2.342
39.9751,1.961
39.9756,1.584
39.9756,1.301
39.9756,1.249
39.9766,1.248
39.9766,1.256
39.9776,1.308
39.9776,1.557
39.9776,1.933
39.9786,2.299
39.9786,2.633
39.9796,2.634
39.9796,2.634
39.9808,2.632
39.9808,2.381
39.9822,1.995
39.9828,1.311
39.9838,1.256
39.9838,1.249
39.9848,1.249
39.9848,1.256
39.9848,1.298
39.9858,1.534
39.9858,2.281
39.9870,2.574
39.9870,2.631
39.9880,2.635
39.9880,2.637
39.9880,2.621
39.9890,2.009
39.9890,1.623
39.9900,1.32
39.9900,1.257
39.9910,1.249
39.9927,1.248
39.9937,1.256
39.9967,1.506
39.9976,1.883
39.9983,2.258
39.9993,2.566
40.0003,2.632
40.0013,2.632
40.0035,2.631
40.0058,2.376
40.0058,2.011
40.0075,1.641
40.0087,1.317
40.0096,1.255
40.0131,1.248
40.0131,1.253
40.0143,1.278
40.0167,1.457
40.0205,1.824
40.0215,2.19
40.0215,2.512
40.0215,2.637
40.0225,2.634
40.0247,2.606
40.0255,2.348
40.0265,1.978
40.0275,1.594
40.0286,1.297
40.0307,1.253
40.0315,1.244
40.0325,1.249
40.0347,1.27
40.0355,1.411
40.0365,1.767
40.0387,2.145
40.0395,2.463
40.0405,2.636
40.0427,2.634
40.0435,2.585
40.0445,2.336
40.0479,1.981
40.0527,1.593
40.0676,1.252
40.0786,1.246
40.0817,1.244
40.0826,1.249
40.0866,1.266
40.0866,1.39
40.0876,1.739
40.0876,2.431
40.0886,2.621
40.0886,2.641
40.0886,2.65
40.0896,2.599
40.0896,2.345
40.0906,1.979
40.0906,1.299
40.0916,1.252
40.0916,1.244
40.0916,1.248
40.0926,1.373
40.0926,1.707
40.0936,2.083
40.0936,2.413
40.0936,2.623
40.0946,2.629
40.0946,2.651
40.0956,2.377
40.0956,2.015
40.0966,1.636
40.0966,1.32
40.0966,1.255
40.0976,1.246
40.0986,1.25
40.0996,1.268
40.0996,1.387
40.1006,1.734
40.1006,2.11
40.1016,2.45
40.1016,2.632
40.1025,2.632
40.1037,2.629
40.1045,2.46
40.1055,2.086
40.1087,1.72
40.1099,1.368
40.1107,1.261
40.1117,1.247
40.1138,1.251
40.1148,1.271
40.1148,1.406
40.1168,1.765
40.1178,2.139
40.1200,2.638
40.1208,2.631
40.1218,2.635
40.1248,2.631
40.1258,2.474
40.1258,2.124
40.1281,1.744
40.1281,1.263
40.1313,1.25
40.1321,1.248
40.1321,1.252
40.1348,1.271
40.1358,1.397
40.1368,1.745
40.1398,2.455
40.1409,2.631
40.1409,2.634
40.1420,2.637
40.1438,2.637
40.1448,2.471
40.1458,1.755
40.1481,1.395
40.1489,1.263
40.1499,1.25
40.1518,1.247
40.1528,1.251
40.1538,1.267
40.1558,1.712
40.1569,2.097
40.1579,2.43
40.1598,2.629
40.1608,2.631
40.1628,2.63
40.1638,2.636
40.1648,2.15
40.1668,1.765
40.1739,1.399
40.1827,1.261
40.2037,1.25
40.2069,1.246
40.2114,1.25
40.2117,1.364
40.2117,1.694
40.2127,2.071
40.2127,2.407
40.2137,2.624
40.2137,2.637
40.2137,2.638
40.2147,2.497
40.2157,2.168
40.2167,1.788
40.2177,1.423
40.2177,1.265
40.2177,1.249
40.2186,1.25
40.2186,1.264
40.2196,1.35
40.2196,1.667
40.2196,2.045
40.2206,2.388
40.2206,2.613
40.2216,2.635
40.2216,2.65
40.2226,2.509
40.2226,2.179
40.2236,1.799
40.2236,1.434
40.2246,1.25
40.2246,1.247
40.2256,1.249
40.2256,1.262
40.2266,1.343
40.2266,1.65
40.2276,2.026
40.2276,2.619
40.2286,2.631
40.2286,2.634
40.2286,2.653
40.2296,2.522
40.2306,2.2
40.2306,1.457
40.2321,1.269
40.2326,1.251
40.2336,1.247
40.2336,1.249
40.2346,1.262
40.2356,1.337
40.2366,2.01
40.2376,2.357
40.2396,2.603
40.2406,2.638
40.2416,2.634
40.2436,2.634
40.2446,2.242
40.2466,1.864
40.2477,1.486
40.2486,1.272
40.2506,1.252
40.2516,1.248
40.2526,1.261
40.2545,1.328
40.2555,1.617
40.2567,1.993
40.2587,2.341
40.2597,2.604
40.2607,2.637
40.2627,2.637
40.2637,2.523
40.2657,2.21
40.2668,1.842
40.2679,1.47
