37.5915,1.806
37.6362,1.884
37.6372,1.943
37.6382,1.978
37.6402,1.984
37.6412,1.963
37.6711,1.853
37.6861,1.765
37.6871,1.683
37.7289,1.611
37.7309,1.562
37.7379,1.54
37.7404,1.548
37.7449,1.638
37.7519,1.71
37.7579,1.799
37.7600,1.88
37.7711,1.94
37.7718,1.974
37.7738,1.97
37.7748,1.925
37.7758,1.853
37.7788,1.772
37.7818,1.688
37.7878,1.614
37.7938,1.567
37.7968,1.547
37.8027,1.576
37.8067,1.634
37.8087,1.71
37.8087,1.79
37.8097,1.874
37.8097,1.976
37.8107,1.985
37.8107,1.97
37.8112,1.927
37.8117,1.864
37.8117,1.784
37.8117,1.694
37.8127,1.567
37.8127,1.544
37.8127,1.551
37.8137,1.571
37.8140,1.63
37.8148,1.703
37.8148,1.868
37.8157,1.931
37.8157,1.975
37.8167,1.993
37.8167,1.972
37.8177,1.929
37.8181,1.865
37.8181,1.693
37.8181,1.621
37.8187,1.568
37.8194,1.545
37.8197,1.548
37.8197,1.57
37.8197,1.632
37.8204,1.785
37.8207,1.872
37.8207,1.932
37.8207,1.968
37.8207,1.986
37.8207,1.974
37.8217,1.87
37.8217,1.792
37.8217,1.7
37.8223,1.628
37.8227,1.573
37.8227,1.546
37.8227,1.55
37.8227,1.619
37.8237,1.694
37.8237,1.781
37.8237,1.863
37.8237,1.929
37.8237,1.967
37.8247,1.97
37.8247,1.941
37.8247,1.878
37.8247,1.793
37.8257,1.709
37.8257,1.633
37.8257,1.58
37.8257,1.549
37.8257,1.571
37.8267,1.625
37.8267,1.694
37.8267,1.782
37.8267,1.866
37.8267,1.971
37.8277,1.989
37.8277,1.984
37.8277,1.951
37.8277,1.885
37.8287,1.808
37.8287,1.646
37.8287,1.591
37.8287,1.56
37.8287,1.553
37.8297,1.575
37.8297,1.624
37.8297,1.78
37.8297,1.858
37.8297,1.928
37.8307,1.964
37.8307,1.982
37.8307,1.969
37.8307,1.936
37.8307,1.795
37.8317,1.703
37.8317,1.626
37.8326,1.569
37.8327,1.537
37.8327,1.528
37.8337,1.587
37.8337,1.662
37.8337,1.75
37.8347,1.833
37.8347,1.896
37.8347,1.939
37.8357,1.947
37.8357,1.929
37.8357,1.863
37.8367,1.789
37.8367,1.7
37.8367,1.624
37.8377,1.567
37.8377,1.529
37.8377,1.548
37.8377,1.597
37.8386,1.667
37.8386,1.754
37.8386,1.848
37.8396,1.968
37.8396,1.988
37.8396,1.978
37.8406,1.949
37.8406,1.891
37.8406,1.812
37.8416,1.647
37.8416,1.586
37.8416,1.551
37.8426,1.541
37.8426,1.559
37.8426,1.602
37.8436,1.754
37.8436,1.846
37.8436,1.913
37.8436,1.96
37.8446,1.985
37.8446,1.975
37.8446,1.949
37.8446,1.816
37.8446,1.729
37.8456,1.654
37.8456,1.592
37.8456,1.555
37.8456,1.555
37.8456,1.6
37.8466,1.669
37.8466,1.755
37.8466,1.841
37.8476,1.911
37.8476,1.959
37.8476,1.983
37.8486,1.959
37.8492,1.904
37.8496,1.832
37.8496,1.743
37.8496,1.664
37.8496,1.594
37.8496,1.547
37.8506,1.562
37.8506,1.601
37.8506,1.665
37.8514,1.75
37.8516,1.839
37.8516,1.961
37.8516,1.987
37.8516,1.979
37.8527,1.964
37.8527,1.912
37.8527,1.837
37.8536,1.665
37.8536,1.6
37.8536,1.559
37.8536,1.548
37.8536,1.564
37.8546,1.604
37.8546,1.746
37.8546,1.832
37.8546,1.904
37.8546,1.958
37.8556,1.995
37.8556,2.006
37.8556,1.991
37.8566,1.86
37.8566,1.768
37.8566,1.685
37.8566,1.621
37.8576,1.589
37.8576,1.575
37.8583,1.636
37.8586,1.674
37.8586,1.729
37.8586,1.793
37.8596,1.829
37.8600,1.842
37.8600,1.791
37.8606,1.731
37.8616,1.632
37.8637,1.521
37.8646,1.387
37.8656,1.295
37.8676,1.269
37.8686,1.255
37.8706,1.268
37.8716,1.364
37.8726,1.524
37.8746,1.625
37.8756,1.688
37.8766,1.838
37.8786,1.954
37.8796,2.021
37.8805,2.1
37.8825,2.139
37.8835,2.08
37.8845,1.884
37.8866,1.805
37.8875,1.764
37.8895,1.745
37.8905,1.757
37.8935,1.776
37.8995,1.842
37.9055,2.005
37.9065,2.069
37.9085,2.113
37.9095,2.122
37.9100,2.115
37.9105,2.093
37.9105,1.946
37.9105,1.85
37.9105,1.752
37.9105,1.696
37.9115,1.624
37.9115,1.583
37.9115,1.617
37.9125,1.675
37.9134,1.745
37.9144,1.833
37.9165,1.908
37.9175,1.965
37.9185,1.998
37.9205,1.985
37.9214,1.937
37.9235,1.871
37.9245,1.788
37.9254,1.699
37.9274,1.627
37.9284,1.552
37.9294,1.558
37.9314,1.58
37.9324,1.638
37.9334,1.713
37.9354,1.803
37.9364,1.941
37.9374,1.979
37.9394,1.982
37.9404,1.963
37.9424,1.916
37.9434,1.851
37.9444,1.68
37.9464,1.609
37.9474,1.563
37.9484,1.538
37.9504,1.544
37.9513,1.564
37.9527,1.625
37.9543,1.792
37.9553,1.869
37.9563,1.927
37.9584,1.963
37.9593,1.985
37.9614,1.96
37.9624,1.846
37.9633,1.766
37.9656,1.674
37.9663,1.617
37.9673,1.565
37.9693,1.535
37.9703,1.563
37.9713,1.617
37.9733,1.693
37.9743,1.785
37.9763,1.863
37.9773,1.924
37.9786,1.962
37.9806,1.962
37.9823,1.922
37.9823,1.854
37.9848,1.774
37.9853,1.687
37.9863,1.61
37.9889,1.535
37.9899,1.536
37.9909,1.562
37.9929,1.617
37.9939,1.69
37.9959,1.778
37.9969,1.923
38.0009,1.964
38.0079,1.973
38.0169,1.959
38.0194,1.921
38.0219,1.858
38.0230,1.697
38.0230,1.625
38.0239,1.568
38.0239,1.54
38.0239,1.547
38.0249,1.564
38.0249,1.688
38.0249,1.779
38.0258,1.86
38.0258,1.932
38.0258,1.973
38.0268,1.984
38.0268,1.974
38.0268,1.866
38.0278,1.789
38.0278,1.7
38.0278,1.622
38.0288,1.565
38.0288,1.547
38.0309,1.56
38.0323,1.613
38.0339,1.685
38.0349,1.774
38.0359,1.853
38.0379,1.92
38.0389,1.975
38.0399,1.963
38.0419,1.928
38.0429,1.868
38.0449,1.787
38.0459,1.697
38.0469,1.621
38.0490,1.535
38.0499,1.533
38.0509,1.55
38.0529,1.598
38.0539,1.669
38.0549,1.754
38.0570,1.905
38.0580,1.948
38.0589,1.967
38.0609,1.956
38.0620,1.917
38.0639,1.844
38.0649,1.679
38.0659,1.6
38.0679,1.546
38.0689,1.509
38.0699,1.507
38.0719,1.524
38.0729,1.636
38.0739,1.721
38.0763,1.808
38.0770,1.86
38.0779,1.922
38.0800,1.937
38.0809,1.923
38.0819,1.831
38.0840,1.754
38.0849,1.667
38.0866,1.594
38.0876,1.532
38.0886,1.495
38.0909,1.507
38.0915,1.554
38.0925,1.618
38.0945,1.704
38.0956,1.788
38.0990,1.858
38.1001,1.925
38.1015,1.895
38.1025,1.833
38.1035,1.754
38.1055,1.67
38.1065,1.534
38.1087,1.498
38.1125,1.491
38.1145,1.509
38.1266,1.555
38.1354,1.622
38.1374,1.795
38.1404,1.865
38.1408,1.911
38.1415,1.933
38.1415,1.931
38.1425,1.901
38.1425,1.768
38.1425,1.677
38.1435,1.602
38.1435,1.541
38.1435,1.501
38.1445,1.492
38.1445,1.505
38.1445,1.621
38.1455,1.699
38.1455,1.79
38.1465,1.863
38.1465,1.911
38.1465,1.937
38.1474,1.907
38.1474,1.852
38.1474,1.782
38.1484,1.694
38.1484,1.616
38.1484,1.556
38.1504,1.504
38.1504,1.522
38.1514,1.565
38.1525,1.633
38.1545,1.718
38.1554,1.801
38.1564,1.931
38.1589,1.954
38.1599,1.952
38.1619,1.93
38.1629,1.874
38.1639,1.8
38.1659,1.717
38.1669,1.578
38.1678,1.532
38.1699,1.519
38.1709,1.537
38.1719,1.565
38.1739,1.634
38.1748,1.805
38.1758,1.876
38.1778,1.931
38.1788,1.956
38.1809,1.957
38.1819,1.937
38.1832,1.806
38.1849,1.717
38.1858,1.639
38.1868,1.577
38.1890,1.531
38.1898,1.515
38.1908,1.53
38.1929,1.63
38.1939,1.7
38.1959,1.805
38.1969,1.873
38.1979,1.93
38.1993,1.958
38.2009,1.933
38.2018,1.881
38.2039,1.809
38.2049,1.723
38.2058,1.64
38.2078,1.575
38.2088,1.52
38.2098,1.534
38.2118,1.571
38.2128,1.631
38.2148,1.712
38.2158,1.8
38.2171,1.923
38.2188,1.946
38.2198,1.95
38.2211,1.932
38.2253,1.884
38.2328,1.814
38.2328,1.722
38.2432,1.574
38.2457,1.529
38.2507,1.512
38.2517,1.52
38.2517,1.559
38.2527,1.614
38.2527,1.784
38.2527,1.858
38.2537,1.918
38.2537,1.947
38.2537,1.953
38.2548,1.933
38.2548,1.887
38.2558,1.729
38.2558,1.646
38.2558,1.579
38.2568,1.533
38.2568,1.513
38.2568,1.521
38.2578,1.615
38.2578,1.691
38.2578,1.775
38.2588,1.859
38.2588,1.911
38.2588,1.947
38.2598,1.955
38.2620,1.884
38.2629,1.816
38.2640,1.733
38.2659,1.648
38.2669,1.582
38.2679,1.524
38.2699,1.516
38.2709,1.555
38.2729,1.61
38.2730,1.684
38.2740,1.774
38.2760,1.857
38.2780,1.915
38.2790,1.963
38.2802,1.941
38.2822,1.89
38.2832,1.819
38.2842,1.735
38.2853,1.651
38.2873,1.583
38.2883,1.522
38.2893,1.523
38.2914,1.543
38.2925,1.606
38.2934,1.682
38.2955,1.771
38.2965,1.91
38.2975,1.947
38.2999,1.956
38.3009,1.94
38.3019,1.9
38.3039,1.834
38.3049,1.747
38.3059,1.59
38.3083,1.534
38.3091,1.514
38.3104,1.52
38.3114,1.548
38.3125,1.6
38.3149,1.764
38.3159,1.841
38.3169,1.906
38.3191,1.946
38.3200,1.959
38.3210,1.945
38.3229,1.897
38.3239,1.751
38.3249,1.666
38.3291,1.592
38.3311,1.538
38.3383,1.517
38.3423,1.516
38.3484,1.597
38.3504,1.675
38.3536,1.765
38.3536,1.845
38.3536,1.912
38.3546,1.952
38.3546,1.965
38.3546,1.903
38.3556,1.844
38.3556,1.765
38.3556,1.669
38.3566,1.6
38.3571,1.552
38.3576,1.525
38.3581,1.543
38.3588,1.606
38.3588,1.674
38.3588,1.763
38.3598,1.843
38.3598,1.91
38.3598,1.965
38.3608,1.953
38.3618,1.917
38.3630,1.855
38.3650,1.773
38.3662,1.685
38.3670,1.553
38.3689,1.527
38.3699,1.523
38.3709,1.544
38.3731,1.591
38.3733,1.653
38.3759,1.825
38.3769,1.89
38.3779,1.93
38.3799,1.943
38.3809,1.93
38.3819,1.898
38.3839,1.834
38.3850,1.661
38.3851,1.587
38.3879,1.527
38.3889,1.497
38.3899,1.494
38.3919,1.518
38.3929,1.633
38.3949,1.722
38.3959,1.809
38.3971,1.876
38.3989,1.924
38.3999,1.94
38.4009,1.907
38.4031,1.845
38.4031,1.759
38.4041,1.672
38.4069,1.601
38.4079,1.541
38.4099,1.516
38.4109,1.535
38.4119,1.584
38.4138,1.655
38.4152,1.741
38.4152,1.82
38.4178,1.887
38.4182,1.951
38.4192,1.946
38.4219,1.915
38.4229,1.847
38.4239,1.772
38.4261,1.688
38.4270,1.553
38.4289,1.521
38.4299,1.514
38.4309,1.533
38.4322,1.582
38.4342,1.646
38.4342,1.82
38.4363,1.882
38.4372,1.931
38.4383,1.946
38.4409,1.939
38.4419,1.909
38.4429,1.849
38.4449,1.686
38.4459,1.605
38.4478,1.548
38.4508,1.517
38.4590,1.507
38.4701,1.529
38.4721,1.642
38.4749,1.727
38.4759,1.814
38.4759,1.883
38.4759,1.937
38.4769,1.959
38.4769,1.92
38.4769,1.858
38.4779,1.776
38.4779,1.693
38.4789,1.626
38.4790,1.557
38.4790,1.512
38.4790,1.53
38.4802,1.573
38.4810,1.64
38.4810,1.725
38.4822,1.811
38.4834,1.88
38.4842,1.956
38.4842,1.95
38.4850,1.925
38.4850,1.865
38.4850,1.788
38.4860,1.7
38.4870,1.561
38.4880,1.521
38.4901,1.513
38.4901,1.529
38.4912,1.572
38.4939,1.65
38.4949,1.833
38.4961,1.903
38.4979,1.95
38.4989,1.974
38.5009,1.973
38.5021,1.958
38.5029,1.898
38.5049,1.749
38.5059,1.652
38.5069,1.572
38.5089,1.515
38.5099,1.461
38.5109,1.438
38.5129,1.466
38.5141,1.51
38.5158,1.557
38.5166,1.585
38.5175,1.595
38.5197,1.569
38.5209,1.484
38.5219,1.401
38.5236,1.36
38.5246,1.41
38.5258,1.487
38.5279,1.476
38.5289,1.412
38.5299,1.386
38.5322,1.509
38.5322,1.644
38.5349,1.811
38.5359,2.017
38.5371,2.129
38.5389,2.169
38.5399,2.152
38.5409,2.132
38.5431,2.076
38.5470,2.008
38.5555,1.911
38.5639,1.77
38.5664,1.719
38.5694,1.693
38.5694,1.698
38.5704,1.71
38.5704,1.755
38.5704,1.911
38.5715,1.969
38.5715,2.015
38.5715,2.031
38.5726,2.019
38.5726,1.983
38.5726,1.925
38.5736,1.755
38.5736,1.672
38.5746,1.603
38.5746,1.544
38.5746,1.529
38.5755,1.539
38.5755,1.634
38.5755,1.711
38.5766,1.799
38.5766,1.872
38.5777,1.932
38.5787,1.96
38.5808,1.94
38.5819,1.885
38.5829,1.813
38.5849,1.726
38.5859,1.638
38.5879,1.561
38.5892,1.521
38.5892,1.504
38.5919,1.555
38.5929,1.603
38.5941,1.683
38.5959,1.774
38.5969,1.849
38.5979,1.938
38.5999,1.947
38.6004,1.923
38.6020,1.874
38.6039,1.805
38.6051,1.721
38.6069,1.57
38.6079,1.521
38.6089,1.499
38.6111,1.506
38.6119,1.538
38.6129,1.598
38.6149,1.765
38.6159,1.841
38.6171,1.903
38.6181,1.938
38.6201,1.943
38.6201,1.922
38.6222,1.873
38.6232,1.722
38.6253,1.637
38.6262,1.568
38.6272,1.521
38.6294,1.502
38.6303,1.505
38.6313,1.596
38.6336,1.671
38.6346,1.761
38.6356,1.836
38.6378,1.898
38.6389,1.935
38.6409,1.931
38.6419,1.883
38.6429,1.816
38.6449,1.735
38.6459,1.65
38.6469,1.577
38.6487,1.524
38.6501,1.503
38.6501,1.534
38.6529,1.595
38.6539,1.669
38.6549,1.76
38.6569,1.84
38.6579,1.94
38.6598,1.95
38.6611,1.935
38.6611,1.892
38.6639,1.829
38.6649,1.744
38.6663,1.586
38.6702,1.534
38.6783,1.507
38.6883,1.51
38.6903,1.538
38.6933,1.595
38.6942,1.757
38.6942,1.835
38.6942,1.897
38.6954,1.938
38.6954,1.95
38.6954,1.933
38.6964,1.898
38.6964,1.75
38.6974,1.662
38.6974,1.589
38.6974,1.535
38.6984,1.511
38.6984,1.513
38.6994,1.591
38.7004,1.667
38.7004,1.753
38.7015,1.833
38.7015,1.899
38.7015,1.938
38.7025,1.937
38.7025,1.899
38.7025,1.834
38.7035,1.748
38.7069,1.661
38.7069,1.588
38.7080,1.507
38.7108,1.507
38.7118,1.52
38.7129,1.572
38.7143,1.648
38.7143,1.729
38.7164,1.81
38.7187,1.917
38.7187,1.93
38.7219,1.916
38.7219,1.878
38.7230,1.809
38.7259,1.73
38.7259,1.563
38.7279,1.506
38.7289,1.479
38.7300,1.471
38.7310,1.494
38.7323,1.546
38.7340,1.703
38.7361,1.785
38.7361,1.85
38.7372,1.898
38.7398,1.91
38.7403,1.898
38.7415,1.865
38.7438,1.715
38.7448,1.624
38.7470,1.553
38.7479,1.494
38.7488,1.468
38.7509,1.468
38.7519,1.543
38.7531,1.612
38.7549,1.698
38.7559,1.778
38.7569,1.844
38.7591,1.893
38.7600,1.902
38.7620,1.867
38.7629,1.805
38.7639,1.728
38.7659,1.642
38.7669,1.568
38.7679,1.476
38.7702,1.472
38.7702,1.49
38.7770,1.539
38.7841,1.693
38.7942,1.841
38.7962,1.893
38.8012,1.91
38.8022,1.904
38.8022,1.875
38.8022,1.814
38.8033,1.651
38.8033,1.573
38.8044,1.513
38.8044,1.481
38.8044,1.474
38.8053,1.496
38.8053,1.613
38.8053,1.699
38.8063,1.786
38.8063,1.856
38.8063,1.904
38.8073,1.93
38.8073,1.89
38.8073,1.832
38.8084,1.757
38.8084,1.669
38.8084,1.59
38.8094,1.531
38.8094,1.503
38.8120,1.516
38.8120,1.559
38.8120,1.628
38.8154,1.717
38.8164,1.802
38.8174,1.871
38.8193,1.944
38.8193,1.936
38.8230,1.908
38.8230,1.851
38.8230,1.775
38.8259,1.69
38.8271,1.548
38.8279,1.512
38.8305,1.506
38.8305,1.52
38.8316,1.56
38.8335,1.628
38.8346,1.707
38.8357,1.869
38.8390,1.918
38.8390,1.942
38.8413,1.933
38.8418,1.911
38.8428,1.854
38.8459,1.693
38.8466,1.613
38.8474,1.544
38.8487,1.507
38.8497,1.495
38.8507,1.509
38.8540,1.613
38.8540,1.697
38.8551,1.785
38.8573,1.862
38.8573,1.91
38.8607,1.933
38.8607,1.907
38.8617,1.849
38.8650,1.781
38.8650,1.684
38.8661,1.604
38.8683,1.542
38.8684,1.507
38.8694,1.5
38.8729,1.54
38.8737,1.604
38.8737,1.684
38.8759,1.779
38.8767,1.849
38.8791,1.929
38.8797,1.927
38.8802,1.903
38.8865,1.85
38.8967,1.779
38.9102,1.688
38.9151,1.542
38.9161,1.505
38.9161,1.483
38.9174,1.498
38.9182,1.536
38.9182,1.599
38.9192,1.679
38.9192,1.838
38.9192,1.895
38.9202,1.92
38.9202,1.923
38.9212,1.903
38.9212,1.848
38.9212,1.694
38.9221,1.609
38.9221,1.543
38.9233,1.501
38.9233,1.484
38.9243,1.498
38.9243,1.598
38.9243,1.674
38.9253,1.76
38.9253,1.837
38.9263,1.895
38.9263,1.924
38.9263,1.929
38.9273,1.853
38.9273,1.782
38.9284,1.695
38.9284,1.611
38.9295,1.544
38.9295,1.501
38.9295,1.494
38.9305,1.528
38.9324,1.591
38.9337,1.67
38.9345,1.757
38.9379,1.832
38.9389,1.888
38.9399,1.922
38.9411,1.908
38.9419,1.856
38.9443,1.789
38.9449,1.702
38.9459,1.618
38.9487,1.552
38.9495,1.485
38.9495,1.494
38.9521,1.529
38.9531,1.589
38.9531,1.668
38.9570,1.755
38.9570,1.883
38.9580,1.917
38.9608,1.932
38.9608,1.907
38.9640,1.854
38.9640,1.789
38.9651,1.706
38.9660,1.558
38.9680,1.505
38.9690,1.485
38.9700,1.493
38.9720,1.524
38.9729,1.583
38.9760,1.749
38.9760,1.824
38.9770,1.886
38.9795,1.925
38.9795,1.93
38.9805,1.912
38.9837,1.866
38.9837,1.71
38.9870,1.627
38.9870,1.562
38.9880,1.511
38.9894,1.486
39.0025,1.495
39.0161,1.578
39.0190,1.653
39.0230,1.741
39.0230,1.821
39.0242,1.878
39.0242,1.916
39.0253,1.929
39.0253,1.867
39.0253,1.798
39.0263,1.712
39.0263,1.632
39.0273,1.568
39.0273,1.52
39.0282,1.503
39.0282,1.531
39.0282,1.584
39.0294,1.663
39.0294,1.752
39.0304,1.824
39.0304,1.885
39.0304,1.933
39.0314,1.913
39.0314,1.874
39.0328,1.81
39.0334,1.729
39.0346,1.645
39.0346,1.518
39.0357,1.495
39.0357,1.497
39.0366,1.517
39.0366,1.573
39.0376,1.644
39.0376,1.732
39.0386,1.871
39.0386,1.904
39.0396,1.917
39.0408,1.902
39.0418,1.857
39.0449,1.792
39.0459,1.621
39.0459,1.547
39.0487,1.499
39.0498,1.463
39.0509,1.466
39.0518,1.496
39.0527,1.619
39.0559,1.705
39.0559,1.791
39.0570,1.853
39.0600,1.898
39.0600,1.912
39.0611,1.866
39.0634,1.805
39.0634,1.72
39.0645,1.64
39.0667,1.571
39.0675,1.521
39.0710,1.496
39.0710,1.519
39.0721,1.574
39.0745,1.651
39.0745,1.738
39.0756,1.82
39.0789,1.888
39.0798,1.946
39.0798,1.936
39.0821,1.905
39.0827,1.836
39.0837,1.754
39.0861,1.667
39.0867,1.544
39.0887,1.518
39.0897,1.518
39.0912,1.541
39.0927,1.591
39.0937,1.664
39.0947,1.752
39.0967,1.903
39.1019,1.946
39.1149,1.962
39.1311,1.949
39.1343,1.917
39.1384,1.855
39.1394,1.689
39.1394,1.611
39.1394,1.554
39.1404,1.523
39.1404,1.523
39.1414,1.545
39.1414,1.662
39.1424,1.749
39.1424,1.831
39.1434,1.901
39.1436,1.948
39.1436,1.966
39.1448,1.917
39.1456,1.856
39.1456,1.776
39.1456,1.69
39.1466,1.617
39.1466,1.556
39.1476,1.524
39.1476,1.545
39.1476,1.593
39.1488,1.659
39.1500,1.746
39.1506,1.828
39.1506,1.895
39.1516,1.956
39.1516,1.951
39.1526,1.919
39.1526,1.859
39.1536,1.782
39.1536,1.697
39.1536,1.561
39.1548,1.527
39.1548,1.524
39.1548,1.55
39.1558,1.603
39.1558,1.678
39.1568,1.846
39.1568,1.908
39.1578,1.956
39.1588,1.985
39.1612,1.983
39.1618,1.952
39.1628,1.892
39.1653,1.714
39.1668,1.625
39.1675,1.551
39.1689,1.488
39.1699,1.443
39.1722,1.422
39.1723,1.479
39.1733,1.54
39.1758,1.58
39.1769,1.605
39.1779,1.61
39.1810,1.606
39.1810,1.55
39.1820,1.523
39.1844,1.627
39.1852,1.647
39.1852,1.583
39.1888,1.49
39.1895,1.447
39.1906,1.505
39.1926,1.604
39.1934,1.766
39.1947,1.955
39.1959,2.103
39.1967,2.153
39.1988,2.148
39.1997,2.132
39.2009,2.109
39.2040,2.056
39.2050,1.972
39.2050,1.898
39.2101,1.748
39.2141,1.694
39.2221,1.675
39.2356,1.673
39.2390,1.702
39.2426,1.749
39.2436,1.894
39.2436,1.957
39.2446,1.994
39.2446,1.999
39.2456,1.978
39.2458,1.944
39.2458,1.882
39.2468,1.704
39.2468,1.622
39.2478,1.561
39.2478,1.522
39.2488,1.51
39.2498,1.529
39.2510,1.624
39.2510,1.704
39.2522,1.787
39.2522,1.857
39.2530,1.908
39.2530,1.932
39.2540,1.897
39.2540,1.846
39.2540,1.774
39.2550,1.685
39.2550,1.605
39.2562,1.542
39.2562,1.481
39.2562,1.502
39.2572,1.538
39.2572,1.599
39.2582,1.68
39.2582,1.765
39.2592,1.835
39.2592,1.913
39.2592,1.911
39.2602,1.89
39.2640,1.837
39.2640,1.765
39.2650,1.68
39.2665,1.531
39.2680,1.483
39.2690,1.474
39.2717,1.491
39.2717,1.521
39.2727,1.585
39.2759,1.752
39.2769,1.822
39.2779,1.879
39.2791,1.91
39.2799,1.902
39.2822,1.885
39.2829,1.829
39.2839,1.677
39.2869,1.591
39.2879,1.532
39.2879,1.49
39.2910,1.474
39.2910,1.485
39.2920,1.583
39.2938,1.662
39.2948,1.744
39.2970,1.811
39.2978,1.873
39.2990,1.9
39.3020,1.884
39.3020,1.832
39.3031,1.761
39.3060,1.68
39.3060,1.599
39.3070,1.534
39.3098,1.495
39.3098,1.484
39.3108,1.513
39.3161,1.576
39.3273,1.651
39.3395,1.737
39.3425,1.811
39.3469,1.898
39.3477,1.901
39.3477,1.883
39.3488,1.838
39.3497,1.772
39.3507,1.688
39.3507,1.602
39.3517,1.49
39.3519,1.473
39.3519,1.481
39.3529,1.505
39.3529,1.561
39.3539,1.645
39.3539,1.805
39.3539,1.857
39.3550,1.898
39.3550,1.896
39.3559,1.878
39.3559,1.826
39.3569,1.762
39.3569,1.598
39.3580,1.529
39.3580,1.483
39.3580,1.463
39.3597,1.472
39.3600,1.5
39.3610,1.622
39.3610,1.707
39.3620,1.787
39.3620,1.843
39.3630,1.873
39.3630,1.88
39.3641,1.859
39.3642,1.744
39.3642,1.667
39.3653,1.58
39.3672,1.502
39.3674,1.464
39.3705,1.436
39.3706,1.473
39.3716,1.526
39.3749,1.603
39.3749,1.682
39.3761,1.751
39.3790,1.806
39.3790,1.846
39.3801,1.827
39.3822,1.786
39.3822,1.716
39.3833,1.628
39.3874,1.54
39.3874,1.475
39.3874,1.425
39.3895,1.408
39.3904,1.43
39.3926,1.479
39.3936,1.55
39.3947,1.637
39.3982,1.713
39.3982,1.802
39.3992,1.813
39.4020,1.801
39.4020,1.757
39.4031,1.689
39.4054,1.612
39.4062,1.531
39.4072,1.406
39.4096,1.384
39.4096,1.385
39.4107,1.409
39.4136,1.464
39.4146,1.532
39.4158,1.696
39.4166,1.76
39.4176,1.791
39.4198,1.8
39.4208,1.787
39.4250,1.751
39.4270,1.685
39.4364,1.521
39.4475,1.448
39.4505,1.401
39.4545,1.378
39.4545,1.377
39.4557,1.407
39.4557,1.525
39.4557,1.608
39.4567,1.688
39.4567,1.751
39.4577,1.793
39.4577,1.803
39.4587,1.792
39.4587,1.699
39.4597,1.62
39.4597,1.536
39.4597,1.419
39.4607,1.399
39.4607,1.42
39.4619,1.476
39.4619,1.547
39.4619,1.626
39.4629,1.707
39.4629,1.81
39.4639,1.825
39.4639,1.815
39.4639,1.779
39.4649,1.725
39.4661,1.649
39.4668,1.496
39.4681,1.443
39.4688,1.417
39.4698,1.416
39.4708,1.437
39.4732,1.489
39.4734,1.558
39.4744,1.727
39.4770,1.785
39.4780,1.82
39.4792,1.838
39.4808,1.833
39.4818,1.802
39.4838,1.658
39.4851,1.576
39.4861,1.507
39.4879,1.458
39.4889,1.429
39.4899,1.425
39.4919,1.491
39.4929,1.558
39.4939,1.637
39.4963,1.714
39.4971,1.779
39.4981,1.821
39.5001,1.839
39.5011,1.796
39.5023,1.735
39.5033,1.657
39.5043,1.571
39.5068,1.497
39.5075,1.439
39.5083,1.407
39.5108,1.423
39.5118,1.461
39.5130,1.527
39.5153,1.612
39.5160,1.693
39.5183,1.799
39.5184,1.818
39.5194,1.806
39.5227,1.775
39.5236,1.719
39.5236,1.64
39.5269,1.486
39.5269,1.423
39.5279,1.39
39.5321,1.385
39.5435,1.4
39.5558,1.442
39.5587,1.508
39.5625,1.664
39.5625,1.727
39.5635,1.769
39.5635,1.788
39.5645,1.783
39.5648,1.755
39.5658,1.62
39.5668,1.54
39.5678,1.461
39.5678,1.405
39.5688,1.377
39.5688,1.364
39.5698,1.379
39.5698,1.485
39.5708,1.561
39.5710,1.643
39.5720,1.712
39.5720,1.75
39.5720,1.772
39.5730,1.736
39.5730,1.681
39.5740,1.609
39.5740,1.526
39.5750,1.448
39.5750,1.395
39.5760,1.355
39.5760,1.371
39.5771,1.409
39.5771,1.468
39.5781,1.545
39.5781,1.627
39.5781,1.695
39.5791,1.763
39.5791,1.755
39.5801,1.729
39.5821,1.677
39.5836,1.605
39.5846,1.522
39.5877,1.386
39.5886,1.355
39.5886,1.347
39.5918,1.365
39.5928,1.396
39.5928,1.457
39.5949,1.536
39.5958,1.683
39.5968,1.732
39.5988,1.758
39.5998,1.753
39.6022,1.727
39.6027,1.671
39.6032,1.601
39.6064,1.445
39.6072,1.384
39.6072,1.352
39.6104,1.343
39.6104,1.353
39.6115,1.384
39.6147,1.525
39.6154,1.602
39.6154,1.667
39.6176,1.72
39.6186,1.742
39.6197,1.743
39.6238,1.718
39.6238,1.593
39.6248,1.512
39.6259,1.439
39.6269,1.377
39.6279,1.342
39.6309,1.332
39.6309,1.344
39.6339,1.434
39.6339,1.511
39.6349,1.589
39.6359,1.66
39.6389,1.705
39.6429,1.723
39.6528,1.707
39.6648,1.656
39.6678,1.59
39.6723,1.508
39.6728,1.426
39.6738,1.363
39.6738,1.33
39.6738,1.326
39.6748,1.353
39.6748,1.407
39.6758,1.476
39.6758,1.558
39.6768,1.627
39.6768,1.708
39.6778,1.709
39.6778,1.684
39.6778,1.63
39.6788,1.563
39.6788,1.48
39.6798,1.397
39.6798,1.306
39.6808,1.296
39.6808,1.302
39.6808,1.32
39.6818,1.366
39.6829,1.436
39.6838,1.514
39.6838,1.638
39.6849,1.668
39.6858,1.675
39.6858,1.657
39.6858,1.611
39.6868,1.547
39.6868,1.386
39.6878,1.331
39.6878,1.304
39.6888,1.297
39.6898,1.306
39.6919,1.327
39.6927,1.376
39.6958,1.525
39.6958,1.59
39.6969,1.642
39.6988,1.676
39.6999,1.672
39.7008,1.657
39.7030,1.617
39.7038,1.471
39.7048,1.391
39.7080,1.335
39.7080,1.304
39.7091,1.297
39.7119,1.302
39.7119,1.317
39.7129,1.425
39.7152,1.51
39.7159,1.579
39.7169,1.634
39.7189,1.666
39.7199,1.672
39.7220,1.61
39.7228,1.544
39.7238,1.464
39.7260,1.386
39.7268,1.327
39.7278,1.299
39.7308,1.292
39.7308,1.305
39.7319,1.343
39.7348,1.416
39.7348,1.495
39.7359,1.567
39.7382,1.622
39.7382,1.655
39.7393,1.637
39.7424,1.602
39.7434,1.536
39.7445,1.458
39.7484,1.38
39.7527,1.295
39.7627,1.287
39.7747,1.289
39.7774,1.299
39.7809,1.331
39.7819,1.389
39.7839,1.472
39.7839,1.601
39.7848,1.635
39.7848,1.644
39.7848,1.623
39.7858,1.586
39.7858,1.523
39.7868,1.446
39.7868,1.312
39.7878,1.289
39.7880,1.282
39.7880,1.283
39.7890,1.291
39.7890,1.319
39.7900,1.458
39.7900,1.538
39.7900,1.599
39.7910,1.635
39.7910,1.645
39.7920,1.622
39.7920,1.52
39.7930,1.448
39.7930,1.366
39.7942,1.317
39.7942,1.29
39.7952,1.282
39.7952,1.28
39.7952,1.296
39.7962,1.317
39.7962,1.359
39.7972,1.397
39.7972,1.422
39.7985,1.439
39.8004,1.379
39.8006,1.318
39.8037,1.275
39.8046,1.255
39.8046,1.248
39.8078,1.245
39.8084,1.25
39.8094,1.27
39.8108,1.273
39.8118,1.281
39.8128,1.3
39.8154,1.366
39.8165,1.472
39.8178,1.573
39.8190,1.826
39.8198,1.851
39.8220,1.807
39.8228,1.704
39.8238,1.589
39.8272,1.493
39.8272,1.39
39.8280,1.37
39.8308,1.381
39.8318,1.4
39.8318,1.437
39.8348,1.487
39.8348,1.556
39.8377,1.669
39.8381,1.7
39.8381,1.694
39.8419,1.674
39.8419,1.635
39.8429,1.565
39.8453,1.372
39.8453,1.31
39.8463,1.284
39.8485,1.276
39.8495,1.274
39.8503,1.276
39.8529,1.321
39.8539,1.384
39.8563,1.464
39.8563,1.523
39.8581,1.565
39.8605,1.584
39.8605,1.572
39.8615,1.479
39.8647,1.402
39.8658,1.326
39.8659,1.288
39.8687,1.272
39.8687,1.267
39.8697,1.27
39.8746,1.282
39.8766,1.306
39.8949,1.362
39.8979,1.432
39.9029,1.493
39.9039,1.533
39.9039,1.546
39.9050,1.512
39.9050,1.457
39.9061,1.386
39.9061,1.314
39.9061,1.282
39.9071,1.264
39.9071,1.262
39.9081,1.266
39.9081,1.275
39.9091,1.295
39.9091,1.341
39.9091,1.409
39.9101,1.516
39.9101,1.533
39.9112,1.528
39.9112,1.499
39.9112,1.44
39.9123,1.374
39.9123,1.279
39.9132,1.266
39.9132,1.262
39.9142,1.261
39.9142,1.264
39.9142,1.272
39.9162,1.29
39.9172,1.4
39.9172,1.458
39.9182,1.501
39.9182,1.522
39.9192,1.52
39.9223,1.493
39.9224,1.439
39.9235,1.309
39.9259,1.277
39.9269,1.265
39.9289,1.261
39.9299,1.26
39.9309,1.263
39.9320,1.286
39.9341,1.323
39.9351,1.388
39.9369,1.449
39.9379,1.496
39.9389,1.518
39.9409,1.512
39.9419,1.434
39.9429,1.368
39.9449,1.305
39.9461,1.276
39.9461,1.264
39.9491,1.259
39.9501,1.262
39.9511,1.268
39.9523,1.283
39.9533,1.317
39.9559,1.38
39.9569,1.446
39.9581,1.493
39.9599,1.509
39.9609,1.489
39.9619,1.435
39.9641,1.371
39.9649,1.309
39.9659,1.277
39.9679,1.259
39.9689,1.259
39.9701,1.261
39.9719,1.266
39.9729,1.28
39.9739,1.312
39.9761,1.37
39.9769,1.477
39.9789,1.497
39.9840,1.501
39.9942,1.478
39.9952,1.43
40.0068,1.362
40.0123,1.276
40.0135,1.265
40.0143,1.259
40.0143,1.257
40.0153,1.259
40.0153,1.263
40.0173,1.275
40.0203,1.352
40.0213,1.41
40.0213,1.461
40.0224,1.485
40.0225,1.484
40.0225,1.459
40.0235,1.346
40.0235,1.292
40.0245,1.27
40.0245,1.259
40.0255,1.255
40.0255,1.254
40.0255,1.255
40.0265,1.268
40.0265,1.288
40.0275,1.327
40.0275,1.381
40.0275,1.432
40.0285,1.462
40.0285,1.461
40.0295,1.393
40.0295,1.331
40.0305,1.287
40.0305,1.267
40.0305,1.258
40.0315,1.254
40.0328,1.254
40.0335,1.257
40.0344,1.266
40.0344,1.283
40.0344,1.318
40.0369,1.374
40.0379,1.424
40.0389,1.452
40.0409,1.438
40.0419,1.394
40.0429,1.329
40.0449,1.286
40.0459,1.269
40.0469,1.254
40.0485,1.252
40.0524,1.253
40.0524,1.257
40.0534,1.266
40.0534,1.28
40.0558,1.313
40.0569,1.419
40.0579,1.452
40.0599,1.457
40.0609,1.438
40.0619,1.397
40.0638,1.338
40.0648,1.292
40.0658,1.26
40.0679,1.255
40.0689,1.253
40.0699,1.255
40.0719,1.259
40.0729,1.267
40.0739,1.324
40.0759,1.385
40.0769,1.442
40.0779,1.473
40.0839,1.481
40.0861,1.463
40.1008,1.426
40.1238,1.308
40.1258,1.277
40.1308,1.264
40.1308,1.258
40.1318,1.258
40.1328,1.258
40.1338,1.273
40.1348,1.297
40.1348,1.346
40.1348,1.408
40.1358,1.468
40.1358,1.505
40.1368,1.512
40.1368,1.457
40.1377,1.394
40.1377,1.328
40.1387,1.286
40.1387,1.269
40.1387,1.261
40.1397,1.26
40.1397,1.264
40.1407,1.274
40.1407,1.297
40.1417,1.347
40.1417,1.412
40.1427,1.471
40.1427,1.494
40.1437,1.458
40.1437,1.398
40.1447,1.327
40.1447,1.268
40.1447,1.26
40.1457,1.259
40.1457,1.259
40.1467,1.262
40.1467,1.272
40.1477,1.293
40.1477,1.402
40.1487,1.458
40.1498,1.494
40.1507,1.505
40.1507,1.487
40.1517,1.451
40.1517,1.322
40.1517,1.283
40.1527,1.267
40.1527,1.26
40.1537,1.256
40.1537,1.256
40.1537,1.26
40.1547,1.288
40.1547,1.328
40.1557,1.391
40.1567,1.448
40.1577,1.484
40.1597,1.494
40.1607,1.446
40.1628,1.383
40.1638,1.316
40.1648,1.279
40.1669,1.264
40.1679,1.258
40.1689,1.256
40.1709,1.259
40.1719,1.267
40.1729,1.282
40.1749,1.317
40.1759,1.374
40.1769,1.433
40.1789,1.471
40.1800,1.472
40.1810,1.436
40.1829,1.379
40.1839,1.317
40.1859,1.279
40.1869,1.265
40.1879,1.255
40.1899,1.256
40.1939,1.258
40.1989,1.264
40.2058,1.279
40.2175,1.31
40.2202,1.367
40.2238,1.464
40.2248,1.477
40.2258,1.468
40.2268,1.435
40.2268,1.379
40.2278,1.317
40.2278,1.265
40.2288,1.258
40.2298,1.255
40.2308,1.256
40.2308,1.258
40.2318,1.266
40.2329,1.279
40.2338,1.365
40.2352,1.422
40.2358,1.464
40.2358,1.479
40.2368,1.469
40.2378,1.442
40.2378,1.32
40.2388,1.281
40.2388,1.265
40.2398,1.258
40.2398,1.255
40.2407,1.255
40.2407,1.257
40.2418,1.277
40.2418,1.306
40.2427,1.36
40.2427,1.417
40.2437,1.459
40.2447,1.475
40.2447,1.436
40.2457,1.38
40.2467,1.32
40.2467,1.281
40.2477,1.265
40.2477,1.257
40.2497,1.255
40.2517,1.256
40.2527,1.262
40.2527,1.274
40.2537,1.3
40.2557,1.351
40.2568,1.41
40.2577,1.448
40.2597,1.462
40.2607,1.434
40.2617,1.379
40.2637,1.32
40.2647,1.281
40.2658,1.265
40.2677,1.257
40.2687,1.254
40.2697,1.256
40.2717,1.261
40.2727,1.272
40.2737,1.297
40.2757,1.344
40.2767,1.399
40.2788,1.467
40.2796,1.463
40.2807,1.439
40.2826,1.382
40.2838,1.321
40.2846,1.282
40.2868,1.258
40.2878,1.255
40.2886,1.254
40.2908,1.256
40.2913,1.261
40.2923,1.274
40.2945,1.297
40.2953,1.402
40.2963,1.451
40.3012,1.473
40.3026,1.463
40.3103,1.439
40.3183,1.384
40.3208,1.321
40.3233,1.265
40.3243,1.258
40.3243,1.253
40.3243,1.253
40.3253,1.254
40.3253,1.258
40.3253,1.267
40.3263,1.323
40.3263,1.372
40.3263,1.417
40.3273,1.442
40.3273,1.442
40.3273,1.416
40.3283,1.364
40.3283,1.277
40.3283,1.262
40.3283,1.255
40.3293,1.252
40.3293,1.252
40.3303,1.253
40.3323,1.266
40.3334,1.283
40.3349,1.321
40.3359,1.372
40.3378,1.419
40.3384,1.443
40.3394,1.446
40.3414,1.382
40.3424,1.322
40.3434,1.283
40.3457,1.266
40.3464,1.258
40.3474,1.254
40.3494,1.253
40.3504,1.259
40.3514,1.267
40.3535,1.285
40.3544,1.324
40.3553,1.379
40.3578,1.431
40.3585,1.452
40.3609,1.437
40.3617,1.389
40.3625,1.328
40.3647,1.284
40.3655,1.267
40.3665,1.257
40.3688,1.253
40.3693,1.254
40.3703,1.258
40.3728,1.268
40.3738,1.285
40.3748,1.324
40.3768,1.379
40.3778,1.429
40.3788,1.46
40.3809,1.442
40.3818,1.397
40.3828,1.34
40.3848,1.29
40.3858,1.269
40.3868,1.259
40.3888,1.253
40.3898,1.255
40.3908,1.258
40.3928,1.267
40.3938,1.286
40.3948,1.324
40.3968,1.432
40.3978,1.463
40.3999,1.471
40.4009,1.451
40.4019,1.406
40.4039,1.35
40.4049,1.295
40.4059,1.26
40.4079,1.256
40.4119,1.255
40.4199,1.255
40.4289,1.258
40.4309,1.267
40.4348,1.284
40.4358,1.376
40.4358,1.432
40.4358,1.467
40.4369,1.474
40.4369,1.455
40.4379,1.417
40.4379,1.307
40.4379,1.279
40.4388,1.265
40.4388,1.259
40.4388,1.256
40.4398,1.257
40.4398,1.273
40.4398,1.293
40.4408,1.349
40.4408,1.41
40.4418,1.452
40.4418,1.456
40.4418,1.431
40.4428,1.313
40.4428,1.268
40.4438,1.253
40.4448,1.245
40.4469,1.24
40.4479,1.238
40.4499,1.236
40.4509,1.236
40.4519,1.236
40.4539,1.238
40.4549,1.244
40.4559,1.265
40.4579,1.312
40.4583,1.345
40.4594,1.324
40.4615,1.319
40.4627,1.332
40.4635,1.317
40.4658,1.318
40.4661,1.322
40.4671,1.305
40.4701,1.3
40.4701,1.309
40.4711,1.35
40.4739,1.424
40.4749,1.508
40.4759,1.565
40.4778,1.666
40.4782,1.666
40.4804,1.645
40.4822,1.598
40.4822,1.515
40.4844,1.431
40.4853,1.296
40.4862,1.276
40.4888,1.27
40.4894,1.269
40.4904,1.272
40.4926,1.281
40.4936,1.303
40.4946,1.427
40.4967,1.484
40.4976,1.512
40.4998,1.521
40.5008,1.507
40.5017,1.469
40.5038,1.338
40.5048,1.289
40.5058,1.27
40.5078,1.262
40.5088,1.26
40.5098,1.26
40.5118,1.263
40.5128,1.291
40.5138,1.337
40.5158,1.405
40.5192,1.463
40.5208,1.501
40.5287,1.514
40.5377,1.459
40.5397,1.397
40.5428,1.331
40.5437,1.286
40.5437,1.268
40.5447,1.26
40.5447,1.257
40.5447,1.262
40.5457,1.271
40.5457,1.289
40.5457,1.332
40.5467,1.395
40.5467,1.455
40.5467,1.512
40.5477,1.494
40.5477,1.461
40.5487,1.404
40.5487,1.339
40.5497,1.29
40.5507,1.27
40.5507,1.258
40.5507,1.259
40.5517,1.262
40.5517,1.271
40.5538,1.289
40.5549,1.334
40.5559,1.463
40.5579,1.504
40.5589,1.523
40.5599,1.511
40.5619,1.482
40.5628,1.422
40.5638,1.352
40.5658,1.273
40.5668,1.263
40.5678,1.26
40.5699,1.261
40.5708,1.264
40.5728,1.274
40.5738,1.34
40.5748,1.408
40.5769,1.472
40.5779,1.516
40.5789,1.534
40.5809,1.529
40.5819,1.5
40.5829,1.371
40.5849,1.307
40.5859,1.278
40.5869,1.267
40.5889,1.263
40.5899,1.262
40.5909,1.277
40.5929,1.298
40.5939,1.351
40.5952,1.422
40.5969,1.488
40.5979,1.531
40.6000,1.552
40.6009,1.52
40.6019,1.463
40.6029,1.39
40.6049,1.319
40.6059,1.285
40.6079,1.27
40.6089,1.264
40.6099,1.268
40.6119,1.278
40.6129,1.302
40.6139,1.357
40.6159,1.429
40.6169,1.494
40.6179,1.559
40.6199,1.555
40.6209,1.53
40.6219,1.473
40.6239,1.403
40.6249,1.329
40.6268,1.272
40.6328,1.267
40.6378,1.267
40.6468,1.27
40.6603,1.281
40.6637,1.305
40.6687,1.36
40.6687,1.496
40.6697,1.546
40.6697,1.567
40.6707,1.562
40.6717,1.535
40.6717,1.479
40.6727,1.335
40.6738,1.287
40.6738,1.272
40.6747,1.266
40.6757,1.265
40.6757,1.268
40.6766,1.277
40.6766,1.349
40.6766,1.42
40.6787,1.483
40.6787,1.533
40.6797,1.551
40.6797,1.545
40.6807,1.469
40.6817,1.395
40.6827,1.321
40.6837,1.285
40.6837,1.27
40.6847,1.264
40.6857,1.262
40.6857,1.273
40.6867,1.291
40.6877,1.331
40.6877,1.403
40.6877,1.471
40.6886,1.521
40.6896,1.543
40.6906,1.52
40.6906,1.466
40.6916,1.401
40.6916,1.328
40.6928,1.288
40.6936,1.271
40.6946,1.264
40.6946,1.266
40.6956,1.273
40.6966,1.292
40.6966,1.338
40.6976,1.415
40.6986,1.533
40.6986,1.557
40.6996,1.556
40.7006,1.533
40.7016,1.478
40.7036,1.411
40.7046,1.335
40.7059,1.274
40.7076,1.267
40.7086,1.265
40.7106,1.268
40.7116,1.275
40.7126,1.294
40.7146,1.411
40.7156,1.482
40.7166,1.534
40.7186,1.559
40.7196,1.567
40.7206,1.547
40.7226,1.436
40.7236,1.36
40.7246,1.303
40.7265,1.278
40.7275,1.27
40.7295,1.269
40.7335,1.271
40.7366,1.303
40.7415,1.351
40.7485,1.43
40.7582,1.501
40.7602,1.556
40.7625,1.584
40.7635,1.588
40.7635,1.524
40.7635,1.461
40.7644,1.381
40.7647,1.313
40.7654,1.284
40.7654,1.273
40.7665,1.275
40.7665,1.284
40.7674,1.309
40.7674,1.365
40.7674,1.444
40.7684,1.514
40.7684,1.568
40.7684,1.603
40.7694,1.589
40.7694,1.549
40.7694,1.476
40.7704,1.402
40.7704,1.328
40.7704,1.279
40.7704,1.274
40.7714,1.278
40.7714,1.288
40.7724,1.312
40.7734,1.367
40.7744,1.45
40.7764,1.583
40.7774,1.615
40.7794,1.619
40.7804,1.603
40.7814,1.558
40.7834,1.493
40.7844,1.342
40.7854,1.302
40.7874,1.282
40.7884,1.278
40.7914,1.321
40.7924,1.378
40.7944,1.463
40.7954,1.533
40.7964,1.595
40.7985,1.624
40.7994,1.631
40.8003,1.572
40.8023,1.509
40.8033,1.43
40.8053,1.356
40.8063,1.31
40.8073,1.288
40.8095,1.282
40.8103,1.293
40.8113,1.323
40.8133,1.377
40.8150,1.457
40.8153,1.537
40.8173,1.594
40.8183,1.638
40.8193,1.624
40.8213,1.58
40.8223,1.521
40.8233,1.446
40.8253,1.369
40.8263,1.29
40.8286,1.283
40.8295,1.286
40.8303,1.296
40.8323,1.329
40.8333,1.383
40.8343,1.544
40.8363,1.603
40.8373,1.637
40.8382,1.647
40.8402,1.629
40.8412,1.592
40.8422,1.533
40.8442,1.382
40.8492,1.32
40.8572,1.293
40.8692,1.287
40.8712,1.289
40.8751,1.3
40.8758,1.393
40.8761,1.477
40.8761,1.553
40.8771,1.609
40.8771,1.648
40.8771,1.666
40.8781,1.641
40.8781,1.548
40.8781,1.473
40.8791,1.392
40.8791,1.331
40.8801,1.299
40.8801,1.29
40.8801,1.302
40.8811,1.337
40.8811,1.395
40.8823,1.476
40.8831,1.559
40.8831,1.618
40.8841,1.658
40.8841,1.661
40.8841,1.627
40.8851,1.56
40.8851,1.49
40.8861,1.406
40.8861,1.344
40.8871,1.294
40.8881,1.296
40.8901,1.306
40.8911,1.343
40.8932,1.407
40.8942,1.486
40.8951,1.561
40.8971,1.665
40.8983,1.683
40.9001,1.67
40.9011,1.639
40.9021,1.578
40.9031,1.502
40.9051,1.357
40.9061,1.315
40.9071,1.301
40.9091,1.301
40.9101,1.311
40.9111,1.35
40.9131,1.414
40.9150,1.568
40.9161,1.632
40.9170,1.672
40.9190,1.693
40.9200,1.68
40.9220,1.651
40.9220,1.52
40.9240,1.437
40.9250,1.365
40.9270,1.322
40.9280,1.305
40.9300,1.306
40.9310,1.322
40.9330,1.424
40.9340,1.503
40.9350,1.58
40.9360,1.644
40.9380,1.689
40.9390,1.71
40.9400,1.702
40.9420,1.61
40.9430,1.538
40.9440,1.458
40.9460,1.388
40.9470,1.336
40.9490,1.316
40.9499,1.324
40.9509,1.363
40.9520,1.426
40.9539,1.499
40.9549,1.581
40.9569,1.643
40.9569,1.69
40.9619,1.695
40.9699,1.671
40.9729,1.621
40.9795,1.529
40.9811,1.452
40.9849,1.38
40.9849,1.308
40.9849,1.307
40.9859,1.316
40.9859,1.347
40.9869,1.406
40.9869,1.486
40.9869,1.565
40.9878,1.674
40.9878,1.696
40.9878,1.69
40.9888,1.663
40.9888,1.613
40.9888,1.538
40.9898,1.459
40.9898,1.335
40.9898,1.313
40.9908,1.311
40.9908,1.325
40.9918,1.36
40.9930,1.425
40.9948,1.506
40.9958,1.649
40.9968,1.7
40.9988,1.721
40.9998,1.719
41.0008,1.688
41.0028,1.638
41.0038,1.491
41.0048,1.411
41.0068,1.358
41.0078,1.33
41.0098,1.323
41.0108,1.337
41.0118,1.373
41.0138,1.512
41.0150,1.593
41.0158,1.661
41.0178,1.708
41.0188,1.733
41.0198,1.729
41.0218,1.65
41.0228,1.581
41.0238,1.501
41.0257,1.427
41.0267,1.366
41.0277,1.334
41.0297,1.328
41.0307,1.384
41.0317,1.44
41.0337,1.504
41.0347,1.591
41.0367,1.671
41.0377,1.719
41.0387,1.74
41.0407,1.72
41.0417,1.666
41.0427,1.601
41.0447,1.519
41.0457,1.444
41.0467,1.385
41.0487,1.337
41.0497,1.35
41.0507,1.384
41.0527,1.45
41.0537,1.524
41.0547,1.605
41.0567,1.673
41.0577,1.755
41.0587,1.754
41.0607,1.734
41.0616,1.677
41.0626,1.61
41.0646,1.528
41.0656,1.392
41.0678,1.357
41.0706,1.349
41.0786,1.358
41.0796,1.385
41.0896,1.45
41.0906,1.532
41.0940,1.695
41.0940,1.753
41.0946,1.787
41.0950,1.792
41.0956,1.764
41.0956,1.703
41.0956,1.576
41.0967,1.498
41.0967,1.438
41.0967,1.404
41.0977,1.384
41.0977,1.377
41.0986,1.385
41.0996,1.453
41.1005,1.496
41.1005,1.52
41.1015,1.544
41.1015,1.525
41.1022,1.482
41.1025,1.332
41.1025,1.28
41.1035,1.258
41.1055,1.247
41.1065,1.245
41.1075,1.249
41.1095,1.268
41.1105,1.312
41.1115,1.338
41.1135,1.388
41.1145,1.52
41.1155,1.67
41.1175,1.8
41.1185,2.022
41.1195,1.998
41.1216,1.943
41.1225,1.854
41.1245,1.768
41.1255,1.696
41.1265,1.583
41.1285,1.553
41.1295,1.566
41.1305,1.597
41.1325,1.644
41.1335,1.709
41.1345,1.783
41.1365,1.882
41.1374,1.912
41.1394,1.901
41.1404,1.874
41.1414,1.822
41.1434,1.747
41.1444,1.561
41.1455,1.483
41.1474,1.434
41.1484,1.413
41.1494,1.414
41.1514,1.436
41.1524,1.563
41.1534,1.647
41.1554,1.718
41.1564,1.776
41.1584,1.807
41.1594,1.817
41.1604,1.748
41.1614,1.68
41.1634,1.601
41.1644,1.523
41.1664,1.457
41.1674,1.408
41.1684,1.384
41.1704,1.415
41.1714,1.475
41.1724,1.55
41.1743,1.627
41.1753,1.694
41.1803,1.745
41.1844,1.806
41.1895,1.789
41.1976,1.748
41.1993,1.682
41.2023,1.604
41.2029,1.523
41.2033,1.413
41.2033,1.387
41.2033,1.389
41.2043,1.419
41.2043,1.475
41.2043,1.542
41.2053,1.623
41.2053,1.764
41.2053,1.795
41.2063,1.808
41.2063,1.794
41.2063,1.755
41.2073,1.694
41.2073,1.532
41.2073,1.465
41.2083,1.415
41.2083,1.395
41.2093,1.397
41.2103,1.422
41.2122,1.547
41.2132,1.629
41.2157,1.707
41.2166,1.767
41.2502,1.805
41.2511,1.817
41.2511,1.803
41.2511,1.7
41.2511,1.63
41.2511,1.546
41.2511,1.478
41.2511,1.433
41.2511,1.406
41.2511,1.426
41.2511,1.481
41.2511,1.553
41.2511,1.636
41.2511,1.716
41.2511,1.777
41.2511,1.831
41.2511,1.822
41.2511,1.783
41.2511,1.724
41.2511,1.647
41.2511,1.565
41.2511,1.502
41.2511,1.413
41.2511,1.425
41.2511,1.447
41.2511,1.493
41.2511,1.56
41.2511,1.637
41.2511,1.783
41.2511,1.826
41.2511,1.841
41.2511,1.833
41.2511,1.798
41.2511,1.74
41.2511,1.58
41.2511,1.51
41.2668,1.455
41.2678,1.428
41.2691,1.429
41.2701,1.45
41.2701,1.565
41.2701,1.649
41.2701,1.722
41.2765,1.788
41.2775,1.834
41.2775,1.847
41.2775,1.84
41.2816,1.749
41.2849,1.676
41.2868,1.586
41.2909,1.514
41.2950,1.463
41.3028,1.434
41.3059,1.45
41.3088,1.497
41.3103,1.564
41.3103,1.644
41.3103,1.725
41.3113,1.787
41.3113,1.844
41.3113,1.836
41.3113,1.805
41.3128,1.744
41.3128,1.666
41.3138,1.584
41.3138,1.512
41.3148,1.42
41.3150,1.414
41.3158,1.42
41.3168,1.477
41.3168,1.538
41.3168,1.613
41.3178,1.767
41.3178,1.813
41.3187,1.83
41.3197,1.82
41.3207,1.793
41.3227,1.736
41.3237,1.578
41.3257,1.504
41.3267,1.446
41.3277,1.418
41.3298,1.414
41.3307,1.424
41.3317,1.531
41.3337,1.616
41.3347,1.7
41.3357,1.768
41.3377,1.815
41.3387,1.832
41.3407,1.829
41.3417,1.739
41.3427,1.668
41.3447,1.589
41.3457,1.519
41.3467,1.46
41.3487,1.427
41.3497,1.435
41.3507,1.475
41.3527,1.541
41.3537,1.621
41.3547,1.704
41.3566,1.77
41.3576,1.841
41.3596,1.837
41.3606,1.813
41.3616,1.758
41.3636,1.69
41.3649,1.607
41.3656,1.533
41.3676,1.442
41.3686,1.438
41.3696,1.45
41.3716,1.489
41.3726,1.563
41.3736,1.636
41.3756,1.78
41.3766,1.838
41.3786,1.858
41.3796,1.851
41.3806,1.847
41.3826,1.792
41.3836,1.633
41.3846,1.558
41.3866,1.502
41.3876,1.468
41.3886,1.457
41.3906,1.472
41.3916,1.514
41.3955,1.66
41.3976,1.744
41.4045,1.813
41.4085,1.868
41.4138,1.891
41.4155,1.893
41.4185,1.814
41.4192,1.75
41.4195,1.665
41.4195,1.589
41.4205,1.526
41.4205,1.491
41.4205,1.494
41.4215,1.531
41.4215,1.588
41.4225,1.669
41.4225,1.755
41.4225,1.828
41.4235,1.901
41.4235,1.903
41.4235,1.882
41.4245,1.827
41.4245,1.762
41.4245,1.68
41.4255,1.6
41.4275,1.495
41.4285,1.484
41.4295,1.496
41.4317,1.53
41.4324,1.592
41.4334,1.668
41.4354,1.825
41.4364,1.873
41.4374,1.902
41.4394,1.907
41.4404,1.886
41.4415,1.835
41.4434,1.691
41.4444,1.608
41.4464,1.546
41.4474,1.506
41.4484,1.49
41.4504,1.501
41.4514,1.518
41.4524,1.665
41.4544,1.747
41.4554,1.817
41.4564,1.874
41.4584,1.902
41.4594,1.912
41.4614,1.838
41.4624,1.772
41.4654,1.612
41.4664,1.546
41.4683,1.486
41.4693,1.499
41.4703,1.523
41.4713,1.58
41.4733,1.661
41.4743,1.744
41.4763,1.88
41.4773,1.904
41.4783,1.909
41.4803,1.892
41.4813,1.847
41.4823,1.781
41.4843,1.7
41.4853,1.549
41.4873,1.51
41.4883,1.488
41.4893,1.499
41.4913,1.532
41.4923,1.587
41.4933,1.753
41.4953,1.82
41.4963,1.876
41.4973,1.908
41.4993,1.919
41.5003,1.902
41.5013,1.787
41.5052,1.702
41.5072,1.622
41.5142,1.557
41.5185,1.514
41.5239,1.497
41.5254,1.532
41.5282,1.589
41.5283,1.657
41.5283,1.744
41.5292,1.82
41.5292,1.882
41.5292,1.909
41.5302,1.902
41.5302,1.861
41.5302,1.795
41.5312,1.717
41.5312,1.64
41.5312,1.57
41.5332,1.509
41.5332,1.508
41.5332,1.538
41.5342,1.592
41.5342,1.659
41.5352,1.744
41.5352,1.877
41.5372,1.912
41.5382,1.925
41.5402,1.909
41.5412,1.87
41.5422,1.801
41.5441,1.654
41.5451,1.58
41.5461,1.53
41.5482,1.511
41.5491,1.516
41.5501,1.54
41.5521,1.593
41.5531,1.751
41.5541,1.825
41.5561,1.885
41.5571,1.924
41.5591,1.94
41.5601,1.918
41.5611,1.818
41.5631,1.742
41.5651,1.654
41.5651,1.585
41.5671,1.536
41.5681,1.511
41.5691,1.542
41.5711,1.599
41.5721,1.666
41.5741,1.752
41.5751,1.828
41.5761,1.892
41.5781,1.926
41.5790,1.925
41.5800,1.889
41.5821,1.825
41.5830,1.749
41.5840,1.672
41.5860,1.603
41.5870,1.52
41.5880,1.522
41.5900,1.545
41.5910,1.601
41.5930,1.674
41.5950,1.759
41.5950,1.892
41.5970,1.935
41.5981,1.945
41.5990,1.936
41.6010,1.915
41.6030,1.846
41.6040,1.768
41.6050,1.611
41.6070,1.559
41.6070,1.529
41.6090,1.524
41.6110,1.543
41.6120,1.583
41.6130,1.738
41.6173,1.815
41.6259,1.875
41.6349,1.919
41.6369,1.936
41.6399,1.925
41.6400,1.886
41.6409,1.748
41.6409,1.665
41.6409,1.592
41.6419,1.535
41.6419,1.504
41.6419,1.499
41.6429,1.525
41.6429,1.639
41.6429,1.727
41.6439,1.808
41.6439,1.871
41.6439,1.913
41.6449,1.93
41.6449,1.893
41.6459,1.832
41.6459,1.76
41.6459,1.68
41.6459,1.609
41.6469,1.555
41.6490,1.53
41.6499,1.546
41.6509,1.593
41.6529,1.661
41.6539,1.745
41.6558,1.826
41.6568,1.887
41.6578,1.949
41.6598,1.933
41.6608,1.91
41.6618,1.852
41.6638,1.776
41.6648,1.694
41.6658,1.619
41.6678,1.532
41.6688,1.527
41.6708,1.543
41.6718,1.591
41.6728,1.659
41.6748,1.74
41.6758,1.887
41.6768,1.935
41.6788,1.956
41.6798,1.946
41.6808,1.918
41.6828,1.859
41.6838,1.712
41.6848,1.63
41.6868,1.57
41.6878,1.542
41.6888,1.523
41.6908,1.544
41.6917,1.597
41.6937,1.742
41.6948,1.824
41.6957,1.889
41.6977,1.936
41.6987,1.96
41.6997,1.958
41.7017,1.931
41.7027,1.796
41.7037,1.714
41.7057,1.636
41.7067,1.578
41.7077,1.549
41.7098,1.534
41.7107,1.594
41.7127,1.659
41.7137,1.741
41.7147,1.823
41.7167,1.889
41.7177,1.941
41.7187,1.96
41.7207,1.933
41.7238,1.881
41.7247,1.802
41.7326,1.719
41.7356,1.641
41.7417,1.586
41.7436,1.549
41.7471,1.571
41.7471,1.619
41.7476,1.687
41.7476,1.768
41.7489,1.845
41.7496,1.911
41.7496,1.992
41.7506,1.995
41.7506,1.972
41.7506,1.92
41.7516,1.846
41.7516,1.747
41.7516,1.55
41.7526,1.477
41.7526,1.423
41.7526,1.397
41.7536,1.397
41.7536,1.422
41.7546,1.487
41.7556,1.515
41.7566,1.532
41.7586,1.529
41.7596,1.488
41.7606,1.48
41.7620,1.647
41.7630,1.637
41.7650,1.548
41.7660,1.467
41.7680,1.415
41.7690,1.465
41.7710,1.559
41.7710,1.857
41.7730,2.007
41.7750,2.07
41.7750,2.12
41.7770,2.147
41.7790,2.17
41.7800,2.143
41.7815,2.087
41.7830,2.011
41.7840,1.931
41.7850,1.851
41.7859,1.781
41.7879,1.699
41.7890,1.692
41.7899,1.72
41.7919,1.781
41.7939,1.844
41.7949,1.916
41.7959,1.974
41.7979,2.032
41.7989,2.023
41.7999,1.991
41.8019,1.936
41.8029,1.864
41.8049,1.774
41.8059,1.633
41.8069,1.584
41.8089,1.566
41.8099,1.58
41.8109,1.611
41.8129,1.671
41.8139,1.826
41.8150,1.897
41.8169,1.956
41.8179,1.983
41.8199,1.982
41.8209,1.957
41.8219,1.838
41.8238,1.757
41.8248,1.67
41.8258,1.603
41.8278,1.559
41.8288,1.54
41.8308,1.55
41.8338,1.652
41.8339,1.716
41.8408,1.807
41.8468,1.879
41.8506,1.932
41.8522,1.964
41.8548,1.951
41.8558,1.902
41.8558,1.833
41.8558,1.752
41.8568,1.67
41.8568,1.607
41.8568,1.543
41.8568,1.553
41.8578,1.584
41.8578,1.642
41.8578,1.713
41.8588,1.8
41.8588,1.874
41.8588,1.959
41.8598,1.965
41.8598,1.945
41.8617,1.909
41.8627,1.844
41.8649,1.76
41.8657,1.605
41.8667,1.565
41.8687,1.547
41.8697,1.549
41.8707,1.577
41.8727,1.636
41.8737,1.792
41.8747,1.867
41.8767,1.934
41.8777,1.964
41.8797,1.977
41.8807,1.957
41.8817,1.846
41.8837,1.767
41.8847,1.682
41.8857,1.616
41.8877,1.572
41.8887,1.548
41.8897,1.555
41.8917,1.635
41.8927,1.71
41.8947,1.796
41.8957,1.875
41.8967,1.931
41.8988,1.97
41.8996,1.957
41.9006,1.92
41.9026,1.848
41.9036,1.77
41.9046,1.685
41.9066,1.622
41.9076,1.551
41.9086,1.556
41.9106,1.581
41.9116,1.637
41.9136,1.711
41.9146,1.797
41.9156,1.866
41.9176,1.972
41.9186,1.983
41.9196,1.964
41.9216,1.915
41.9226,1.868
41.9236,1.787
41.9256,1.628
41.9266,1.568
41.9286,1.549
41.9296,1.556
41.9306,1.583
41.9326,1.637
41.9336,1.788
41.9346,1.861
41.9365,1.922
41.9375,1.963
41.9385,1.975
41.9407,1.962
41.9439,1.858
41.9515,1.781
41.9545,1.695
41.9595,1.623
41.9615,1.571
41.9649,1.541
41.9655,1.54
41.9655,1.615
41.9665,1.681
41.9665,1.767
41.9665,1.841
41.9675,1.904
41.9675,1.942
41.9675,1.935
41.9685,1.9
41.9685,1.834
41.9685,1.759
41.9695,1.675
41.9695,1.597
41.9705,1.512
41.9705,1.507
41.9705,1.534
41.9715,1.589
41.9725,1.644
41.9744,1.745
41.9754,1.88
41.9765,1.928
41.9784,1.933
41.9794,1.924
41.9816,1.89
41.9824,1.827
41.9834,1.749
41.9854,1.593
41.9864,1.539
41.9874,1.511
41.9894,1.511
41.9904,1.531
41.9914,1.578
41.9934,1.733
41.9944,1.812
41.9954,1.872
41.9974,1.916
41.9988,1.93
42.0004,1.922
42.0014,1.833
42.0024,1.763
42.0044,1.678
42.0054,1.601
42.0064,1.55
42.0084,1.522
42.0094,1.518
42.0103,1.588
42.0123,1.65
42.0133,1.736
42.0143,1.818
42.0163,1.883
42.0173,1.928
42.0193,1.937
42.0203,1.911
42.0213,1.85
42.0233,1.78
42.0243,1.685
42.0253,1.617
42.0273,1.529
42.0283,1.524
42.0293,1.545
42.0315,1.595
42.0323,1.663
42.0333,1.742
42.0354,1.839
42.0363,1.94
42.0383,1.964
42.0393,1.963
42.0403,1.932
42.0423,1.871
42.0433,1.797
42.0443,1.649
42.0463,1.59
42.0473,1.558
42.0482,1.55
42.0502,1.576
42.0552,1.611
42.0632,1.763
42.0722,1.853
42.0744,1.924
42.0778,1.967
42.0782,1.988
42.0782,1.985
42.0782,1.896
42.0792,1.81
42.0792,1.75
42.0802,1.666
42.0802,1.603
42.0802,1.559
42.0812,1.561
42.0812,1.621
42.0822,1.686
42.0822,1.77
42.0832,1.849
42.0832,1.92
42.0832,1.97
42.0842,1.981
42.0842,1.96
42.0851,1.9
42.0851,1.827
42.0851,1.744
42.0861,1.666
42.0861,1.571
42.0881,1.557
42.0891,1.574
42.0917,1.614
42.0921,1.68
42.0933,1.76
42.0954,1.844
42.0961,1.962
42.0971,1.984
42.0991,1.983
42.1001,1.96
42.1011,1.9
42.1031,1.831
42.1041,1.668
42.1061,1.604
42.1071,1.568
42.1081,1.556
42.1101,1.57
42.1111,1.609
42.1121,1.754
42.1141,1.838
42.1151,1.907
42.1161,1.958
42.1181,1.984
42.1191,1.982
42.1201,1.909
42.1220,1.833
42.1230,1.748
42.1250,1.668
42.1262,1.606
42.1270,1.569
42.1290,1.556
42.1301,1.604
42.1320,1.667
42.1334,1.747
42.1340,1.833
42.1350,1.899
42.1370,1.953
42.1400,1.959
42.1420,1.909
42.1430,1.839
42.1440,1.757
42.1460,1.611
42.1470,1.575
42.1482,1.558
42.1500,1.57
42.1510,1.604
42.1530,1.667
42.1540,1.83
42.1550,1.891
42.1570,1.959
42.1580,1.985
42.1590,1.983
42.1609,1.96
42.1619,1.911
42.1659,1.756
42.1739,1.683
42.1759,1.617
42.1831,1.571
42.1839,1.554
42.1869,1.566
42.1879,1.659
42.1879,1.74
42.1889,1.831
42.1889,1.897
42.1889,1.944
42.1899,1.996
42.1899,1.968
42.1899,1.909
42.1909,1.846
42.1909,1.766
42.1919,1.688
42.1919,1.623
42.1919,1.553
42.1929,1.565
42.1929,1.601
42.1929,1.663
42.1939,1.743
42.1949,1.818
42.1959,1.911
42.1978,1.986
42.1990,1.995
42.1998,1.973
42.2019,1.923
42.2028,1.862
42.2048,1.769
42.2058,1.627
42.2068,1.581
42.2088,1.562
42.2098,1.568
42.2108,1.601
42.2128,1.655
42.2138,1.817
42.2158,1.893
42.2168,1.973
42.2178,1.99
42.2188,1.993
42.2208,1.972
42.2218,1.862
42.2238,1.781
42.2248,1.692
42.2258,1.625
42.2278,1.581
42.2288,1.562
42.2298,1.569
42.2318,1.662
42.2328,1.733
42.2348,1.819
42.2357,1.894
42.2368,1.949
42.2387,1.982
42.2397,1.98
42.2407,1.942
42.2427,1.875
42.2437,1.792
42.2447,1.704
42.2467,1.634
42.2477,1.573
42.2487,1.577
42.2507,1.601
42.2517,1.659
42.2527,1.728
42.2547,1.813
42.2557,1.879
42.2577,1.992
42.2587,1.998
42.2597,1.984
42.2617,1.945
42.2627,1.881
42.2637,1.797
42.2657,1.639
42.2667,1.586
42.2677,1.563
42.2697,1.564
42.2706,1.581
42.2736,1.646
42.2756,1.798
42.2826,1.876
42.2854,1.938
42.2937,1.97
42.2954,1.985
42.2986,1.969
42.2996,1.925
42.2996,1.779
42.3006,1.696
42.3006,1.621
42.3006,1.571
42.3016,1.55
42.3016,1.553
42.3016,1.634
42.3026,1.712
42.3026,1.791
42.3026,1.876
42.3036,1.94
42.3036,1.98
42.3036,1.997
42.3046,1.927
42.3046,1.888
42.3056,1.817
42.3056,1.724
42.3056,1.653
42.3076,1.601
42.3086,1.584
42.3095,1.604
42.3115,1.655
42.3125,1.723
42.3135,1.812
42.3155,1.891
42.3165,1.955
42.3185,2.008
42.3195,1.994
42.3205,1.945
42.3225,1.897
42.3235,1.819
42.3245,1.734
42.3265,1.605
42.3275,1.579
42.3285,1.576
42.3305,1.6
42.3315,1.652
42.3325,1.724
42.3345,1.813
42.3355,1.955
42.3365,1.989
42.3385,2.013
42.3395,2.005
42.3525,1.969
42.3534,1.908
42.3534,1.74
42.3534,1.669
42.3544,1.615
42.3544,1.586
42.3554,1.582
42.3554,1.602
42.3554,1.655
42.3564,1.811
42.3564,1.883
42.3564,1.949
42.3574,1.995
42.3584,2.012
42.3594,2.006
42.3615,1.91
42.3624,1.836
42.3648,1.75
42.3654,1.675
42.3664,1.622
42.3684,1.595
42.3694,1.59
42.3704,1.658
42.3724,1.724
42.3734,1.805
42.3744,1.886
42.3764,1.953
42.3774,1.999
42.3784,2.018
42.3830,1.977
42.3843,1.92
42.3853,1.85
42.3943,1.771
42.3983,1.705
42.4053,1.647
42.4083,1.615
42.4113,1.63
42.4123,1.673
42.4123,1.745
42.4133,1.834
42.4133,1.919
42.4133,1.993
42.4143,2.065
42.4153,2.024
42.4163,1.97
42.4163,1.871
42.4173,1.763
42.4173,1.633
42.4183,1.427
42.4183,1.358
42.4183,1.311
42.4193,1.3
42.4193,1.295
42.4203,1.323
42.4203,1.362
42.4213,1.523
42.4213,1.74
42.4213,1.905
42.4222,1.926
42.4222,1.863
42.4232,1.797
42.4232,1.716
42.4242,1.715
42.4264,1.749
42.4272,1.836
42.4282,1.864
42.4302,1.849
42.4312,1.861
42.4332,1.995
42.4342,2.077
42.4352,2.14
42.4372,2.19
42.4382,2.212
42.4392,2.204
42.4412,2.102
42.4422,2.017
42.4432,1.92
42.4452,1.826
42.4462,1.76
42.4472,1.719
42.4492,1.692
42.4502,1.719
42.4522,1.774
42.4532,1.839
42.4542,1.915
42.4563,1.975
42.4572,2.042
42.4582,2.033
42.4601,2.005
42.4611,1.954
42.4621,1.88
42.4641,1.791
42.4651,1.713
42.4671,1.61
42.4681,1.596
42.4701,1.606
42.4711,1.643
42.4721,1.704
42.4731,1.784
42.4751,1.934
42.4761,1.989
42.4771,2.014
42.4792,2.011
42.4801,1.986
42.4811,1.93
42.4831,1.773
42.4841,1.694
42.4861,1.632
42.4901,1.592
42.4921,1.577
42.5000,1.591
42.5040,1.692
42.5120,1.772
42.5142,1.858
42.5180,1.927
42.5180,1.979
42.5180,2.003
42.5191,2.003
42.5191,1.928
42.5191,1.861
42.5200,1.767
42.5200,1.679
42.5200,1.638
42.5210,1.589
42.5210,1.588
42.5210,1.618
42.5210,1.681
42.5220,1.763
42.5220,1.85
42.5220,1.919
42.5230,2.001
42.5230,2.003
42.5230,1.979
42.5240,1.925
42.5240,1.857
42.5250,1.775
42.5260,1.692
42.5270,1.585
42.5280,1.569
42.5291,1.584
42.5300,1.619
42.5320,1.68
42.5339,1.754
42.5349,1.918
42.5369,1.973
42.5379,2.001
42.5389,2.006
42.5409,1.988
42.5419,1.937
42.5429,1.784
42.5449,1.705
42.5459,1.636
42.5469,1.594
42.5489,1.572
42.5499,1.584
42.5519,1.677
42.5529,1.75
42.5539,1.837
42.5559,1.911
42.5569,1.97
42.5579,2.0
42.5599,2.004
42.5609,1.929
42.5619,1.86
42.5639,1.781
42.5649,1.705
42.5669,1.636
42.5679,1.587
42.5689,1.578
42.5708,1.61
42.5718,1.661
42.5728,1.74
42.5748,1.838
42.5758,1.908
42.5778,1.999
42.5788,2.005
42.5798,1.988
42.5814,1.936
42.5828,1.869
42.5838,1.785
42.5858,1.699
42.5868,1.583
42.5878,1.56
42.5898,1.566
42.5908,1.591
42.5918,1.651
42.5938,1.733
42.5948,1.89
42.5981,1.951
42.5998,1.972
42.6068,1.987
42.6157,1.969
42.6177,1.927
42.6207,1.771
42.6209,1.688
42.6217,1.619
42.6217,1.568
42.6217,1.547
42.6227,1.546
42.6227,1.574
42.6227,1.695
42.6237,1.783
42.6237,1.865
42.6237,1.923
42.6247,1.955
42.6247,1.959
42.6247,1.895
42.6257,1.828
42.6257,1.751
42.6257,1.657
42.6267,1.589
42.6277,1.541
42.6287,1.521
42.6307,1.549
42.6319,1.603
42.6327,1.676
42.6347,1.761
42.6357,1.838
42.6367,1.937
42.6387,1.949
42.6397,1.934
42.6407,1.888
42.6427,1.826
42.6437,1.75
42.6457,1.659
42.6466,1.545
42.6476,1.522
42.6496,1.523
42.6506,1.549
42.6516,1.602
42.6536,1.67
42.6546,1.837
42.6556,1.896
42.6576,1.938
42.6586,1.952
42.6596,1.939
42.6616,1.902
42.6626,1.755
42.6646,1.669
42.6656,1.604
42.6666,1.551
42.6686,1.524
42.6696,1.528
42.6706,1.552
42.6726,1.679
42.6736,1.764
42.6746,1.846
42.6766,1.912
42.6776,1.956
42.6786,1.971
42.6806,1.913
42.6818,1.866
42.6828,1.787
42.6840,1.703
42.6850,1.628
42.6850,1.58
42.6880,1.543
42.6890,1.58
42.6890,1.639
42.6890,1.705
42.6890,1.793
42.6890,1.875
42.6890,1.989
42.6890,2.001
42.6990,1.987
42.7000,1.953
42.7000,1.888
42.7030,1.818
42.7039,1.732
42.7039,1.605
42.7039,1.578
42.7039,1.578
42.7039,1.597
42.7039,1.649
42.7039,1.72
42.7147,1.884
42.7177,1.955
42.7209,1.999
42.7246,2.014
42.7325,2.001
42.7335,1.969
42.7360,1.83
42.7360,1.746
42.7360,1.671
42.7360,1.619
42.7360,1.588
42.7360,1.578
42.7360,1.595
42.7360,1.72
42.7360,1.806
42.7360,1.883
42.7360,1.951
42.7360,1.997
42.7360,2.012
42.7360,1.973
42.7360,1.907
42.7360,1.832
42.7360,1.742
42.7360,1.665
42.7360,1.603
42.7491,1.57
42.7491,1.583
42.7501,1.633
42.7501,1.701
42.7501,1.789
42.7501,1.87
42.7559,1.979
42.7569,2.002
42.7569,1.995
42.7569,1.965
42.7569,1.904
42.7569,1.83
42.7569,1.743
42.7663,1.599
42.7663,1.567
42.7663,1.565
42.7663,1.583
42.7709,1.629
42.7719,1.695
42.7719,1.861
42.7749,1.923
42.7749,1.978
42.7749,1.995
42.7749,1.983
42.7749,1.955
42.7749,1.828
42.7838,1.737
42.7847,1.661
42.7867,1.606
42.7877,1.57
42.7897,1.564
42.7907,1.577
42.7917,1.689
42.7937,1.773
42.7947,1.855
42.7957,1.926
42.7977,1.975
42.7987,1.997
42.7997,1.962
42.8016,1.905
42.8026,1.83
42.8046,1.745
42.8056,1.667
42.8066,1.604
42.8086,1.551
42.8096,1.562
42.8106,1.61
42.8136,1.69
42.8156,1.92
42.8166,1.973
42.8176,1.996
42.8196,1.99
42.8206,1.967
42.8216,1.91
42.8236,1.838
42.8246,1.674
42.8256,1.608
42.8276,1.573
42.8286,1.558
42.8306,1.568
42.8336,1.617
42.8346,1.76
42.8425,1.842
42.8458,1.921
42.8521,1.974
42.8539,1.995
42.8572,1.992
42.8575,1.912
42.8575,1.838
42.8575,1.752
42.8585,1.673
42.8585,1.608
42.8595,1.574
42.8595,1.56
42.8595,1.613
42.8605,1.678
42.8605,1.761
42.8605,1.843
42.8615,1.918
42.8615,1.973
42.8625,1.995
42.8625,1.973
42.8625,1.911
42.8635,1.837
42.8645,1.758
42.8655,1.681
42.8665,1.578
42.8685,1.567
42.8695,1.58
42.8705,1.616
42.8725,1.681
42.8735,1.76
42.8745,1.915
42.8764,1.97
42.8775,2.0
42.8784,2.005
42.8804,1.983
42.8820,1.928
42.8824,1.858
42.8844,1.694
42.8854,1.631
42.8875,1.588
42.8884,1.573
42.8894,1.57
42.8914,1.599
42.8924,1.74
42.8934,1.826
42.8954,1.908
42.8964,1.96
42.8974,2.0
42.8994,1.997
42.9004,1.912
42.9024,1.845
42.9034,1.757
42.9044,1.673
42.9064,1.608
42.9074,1.567
42.9084,1.551
42.9104,1.579
42.9114,1.643
42.9124,1.712
42.9147,1.809
42.9153,1.884
42.9163,1.94
42.9188,1.978
42.9193,1.955
42.9203,1.91
42.9223,1.839
42.9233,1.759
42.9254,1.678
42.9263,1.573
42.9273,1.556
42.9293,1.563
42.9303,1.6
42.9313,1.663
42.9333,1.744
42.9343,1.899
42.9363,1.958
42.9373,1.992
42.9383,1.996
42.9403,1.979
42.9443,1.938
42.9453,1.862
42.9530,1.698
43.0004,1.625
43.0038,1.586
43.0053,1.562
43.0071,1.571
43.0071,1.6
43.0081,1.735
43.0081,1.817
43.0081,1.901
43.0091,1.958
43.0091,1.99
43.0091,2.002
43.0091,1.981
43.0091,1.871
43.0091,1.785
43.0091,1.702
43.0091,1.633
43.0091,1.587
43.0091,1.566
43.0091,1.604
43.0091,1.661
43.0091,1.733
43.0091,1.82
43.0091,1.9
43.0091,1.955
43.0091,1.992
43.0091,1.988
43.0091,1.941
43.0091,1.875
43.0091,1.788
43.0153,1.701
43.0153,1.639
43.0163,1.563
43.0163,1.569
43.0163,1.597
43.0173,1.653
43.0173,1.726
43.0173,1.814
43.0173,1.896
43.0173,1.996
43.0173,2.003
43.0173,1.985
43.0173,1.945
43.0173,1.878
43.0173,1.798
43.0173,1.71
43.0173,1.59
43.0173,1.565
43.0173,1.573
43.0173,1.598
43.0173,1.656
43.0173,1.732
43.0173,1.912
43.0173,1.982
43.0173,2.025
43.0173,2.025
43.0173,2.012
43.0173,1.975
43.0173,1.916
43.0173,1.753
43.0173,1.685
43.0173,1.63
43.0173,1.596
43.0430,1.586
43.0440,1.592
43.0450,1.673
43.0450,1.729
43.0450,1.775
43.0450,1.825
43.0450,1.846
43.0450,1.833
43.0450,1.783
43.0450,1.607
43.0450,1.5
43.0450,1.428
43.0450,1.443
43.0450,1.523
43.0450,1.571
43.0450,1.581
43.0450,1.626
43.0450,1.688
43.0450,1.816
43.0450,1.925
43.0581,2.067
43.0601,2.205
43.0680,2.267
43.0720,2.211
43.0782,2.109
43.0830,2.002
43.0840,1.902
43.0840,1.831
43.0840,1.761
43.0850,1.764
43.0850,1.784
43.0850,1.824
43.0860,1.877
43.0860,1.953
43.0860,2.021
43.0870,2.101
43.0870,2.103
43.0870,2.079
43.0880,2.038
43.0880,1.961
43.0880,1.861
43.0890,1.677
43.0890,1.614
43.0900,1.584
43.0900,1.571
43.0900,1.588
43.0920,1.637
43.0930,1.706
43.0940,1.876
43.0960,1.943
43.0970,1.988
43.0990,2.006
43.1000,1.994
43.1010,1.959
43.1021,1.811
43.1039,1.726
43.1050,1.652
43.1069,1.589
43.1079,1.551
43.1089,1.549
43.1109,1.618
43.1119,1.686
43.1129,1.772
43.1149,1.852
43.1159,1.915
43.1179,1.961
43.1189,1.97
43.1199,1.94
43.1219,1.877
43.1229,1.8
43.1243,1.713
43.1259,1.643
43.1269,1.579
43.1279,1.542
43.1299,1.561
43.1309,1.608
43.1329,1.677
43.1339,1.754
43.1349,1.834
43.1369,1.949
43.1379,1.967
43.1389,1.961
43.1408,1.933
43.1418,1.872
43.1438,1.798
43.1448,1.635
43.1458,1.573
43.1478,1.535
43.1488,1.529
43.1499,1.547
43.1518,1.594
43.1528,1.742
43.1538,1.826
43.1558,1.891
43.1568,1.942
43.1588,1.963
43.1598,1.958
43.1608,1.929
43.1628,1.798
43.1638,1.705
43.1648,1.627
43.1688,1.567
43.1767,1.532
43.1780,1.517
43.1875,1.586
43.1893,1.652
43.1917,1.732
43.1927,1.816
43.1927,1.882
43.1937,1.935
43.1937,1.952
43.1937,1.925
43.1947,1.868
43.1947,1.792
43.1947,1.704
43.1958,1.625
43.1958,1.561
43.1967,1.513
43.1967,1.528
43.1967,1.568
43.1980,1.635
43.1987,1.717
43.1997,1.798
43.1997,1.917
43.2007,1.943
43.2007,1.937
43.2007,1.916
43.2017,1.859
43.2027,1.784
43.2047,1.621
43.2057,1.556
43.2077,1.517
43.2087,1.503
43.2097,1.514
43.2117,1.553
43.2127,1.697
43.2137,1.781
43.2157,1.85
43.2166,1.906
43.2176,1.932
43.2196,1.936
43.2206,1.904
43.2226,1.774
43.2236,1.68
43.2246,1.598
43.2266,1.544
43.2276,1.498
43.2286,1.481
43.2306,1.528
43.2316,1.589
43.2326,1.669
43.2346,1.753
43.2356,1.82
43.2366,1.877
43.2386,1.9
43.2396,1.875
43.2416,1.818
43.2426,1.744
43.2436,1.655
43.2456,1.573
43.2466,1.462
43.2476,1.443
43.2496,1.452
43.2506,1.484
43.2515,1.545
43.2535,1.622
43.2545,1.703
43.2555,1.83
43.2576,1.857
43.2585,1.858
43.2605,1.844
43.2615,1.787
43.2625,1.717
43.2646,1.547
43.2655,1.484
43.2665,1.443
43.2685,1.424
43.2695,1.441
43.2715,1.469
43.2745,1.607
43.2769,1.697
43.2795,1.773
43.2855,1.83
43.2947,1.86
43.2965,1.865
43.2994,1.843
43.3004,1.73
43.3004,1.645
43.3004,1.565
43.3014,1.499
43.3014,1.449
43.3014,1.43
43.3024,1.474
43.3024,1.539
43.3024,1.618
43.3034,1.711
43.3034,1.781
43.3034,1.843
43.3034,1.887
43.3044,1.876
43.3044,1.823
43.3044,1.757
43.3054,1.676
43.3054,1.595
43.3064,1.484
43.3074,1.464
43.3094,1.477
43.3104,1.511
43.3114,1.575
43.3134,1.652
43.3144,1.814
43.3164,1.882
43.3174,1.925
43.3184,1.928
43.3194,1.904
43.3214,1.869
43.3224,1.805
43.3244,1.648
43.3254,1.58
43.3263,1.533
43.3283,1.513
43.3293,1.523
43.3303,1.557
43.3324,1.695
43.3333,1.784
43.3343,1.863
43.3363,1.927
43.3373,1.963
43.3383,1.973
43.3403,1.914
43.3413,1.853
43.3433,1.763
43.3443,1.678
43.3453,1.616
43.3473,1.569
43.3483,1.539
43.3493,1.574
43.3514,1.634
43.3523,1.707
43.3533,1.794
43.3553,1.872
43.3563,1.934
43.3573,1.986
43.3593,1.967
43.3603,1.922
43.3623,1.857
43.3632,1.77
43.3642,1.684
43.3662,1.562
43.3672,1.537
43.3682,1.541
43.3702,1.564
43.3712,1.625
43.3722,1.696
43.3742,1.854
43.3752,1.917
43.3772,1.957
43.3782,1.963
43.3792,1.947
43.3812,1.908
43.3822,1.852
43.3872,1.678
43.3942,1.613
43.4041,1.551
43.4061,1.527
43.4101,1.53
43.4105,1.551
43.4111,1.681
43.4111,1.765
43.4111,1.846
43.4121,1.91
43.4121,1.95
43.4121,1.961
43.4131,1.91
43.4131,1.845
43.4131,1.764
43.4141,1.673
43.4141,1.602
43.4152,1.548
43.4161,1.523
43.4161,1.546
43.4161,1.6
43.4171,1.671
43.4171,1.753
43.4171,1.829
43.4181,1.898
43.4181,1.955
43.4191,1.942
43.4201,1.906
43.4211,1.842
43.4231,1.763
43.4241,1.673
43.4251,1.551
43.4271,1.517
43.4281,1.517
43.4301,1.542
43.4319,1.595
43.4321,1.661
43.4341,1.83
43.4351,1.896
43.4361,1.94
43.4380,1.959
43.4390,1.947
43.4400,1.909
43.4420,1.85
43.4430,1.681
43.4450,1.609
43.4461,1.552
43.4480,1.519
43.4490,1.521
43.4501,1.546
43.4520,1.668
43.4530,1.752
43.4550,1.828
43.4560,1.896
43.4570,1.941
43.4590,1.962
43.4590,1.92
43.4610,1.857
43.4620,1.779
43.4646,1.693
43.4650,1.619
43.4670,1.559
43.4680,1.524
43.4700,1.545
43.4710,1.596
43.4720,1.66
43.4740,1.754
43.4750,1.834
43.4760,1.898
43.4779,1.965
43.4789,1.958
43.4801,1.929
43.4819,1.865
43.4829,1.788
43.4841,1.704
43.4859,1.567
43.4889,1.538
43.4899,1.548
43.4919,1.599
43.4929,1.746
43.4969,1.836
43.5049,1.906
43.5138,1.955
43.5149,1.976
43.5168,1.967
43.5198,1.931
43.5198,1.799
43.5208,1.714
43.5208,1.626
43.5218,1.58
43.5218,1.545
43.5218,1.531
43.5228,1.597
43.5228,1.667
43.5228,1.752
43.5238,1.834
43.5238,1.904
43.5238,1.954
43.5248,1.964
43.5248,1.937
43.5248,1.871
43.5258,1.796
43.5258,1.712
43.5258,1.633
43.5268,1.576
43.5278,1.527
43.5298,1.535
43.5308,1.576
43.5328,1.637
43.5338,1.716
43.5348,1.801
43.5358,1.87
43.5378,1.937
43.5388,1.939
43.5408,1.91
43.5418,1.853
43.5428,1.775
43.5448,1.69
43.5458,1.55
43.5468,1.517
43.5490,1.503
43.5497,1.523
43.5507,1.568
43.5521,1.636
43.5530,1.717
43.5550,1.881
43.5560,1.933
43.5570,1.962
43.5590,1.963
43.5600,1.942
43.5620,1.882
43.5630,1.721
43.5650,1.635
43.5660,1.572
43.5670,1.533
43.5690,1.518
43.5700,1.545
43.5710,1.585
43.5730,1.727
43.5740,1.813
43.5750,1.882
43.5769,1.931
43.5779,1.958
43.5790,1.958
43.5809,1.876
43.5819,1.807
43.5831,1.719
43.5849,1.64
43.5859,1.579
43.5871,1.539
43.5889,1.52
43.5899,1.574
43.5919,1.641
43.5929,1.72
43.5942,1.806
43.5959,1.879
43.5969,1.932
43.5979,1.955
43.6001,1.935
43.6039,1.885
43.6109,1.814
43.6148,1.727
43.6220,1.648
43.6238,1.579
43.6272,1.526
43.6278,1.539
43.6278,1.571
43.6278,1.639
43.6288,1.721
43.6288,1.806
43.6288,1.931
43.6298,1.958
43.6298,1.964
43.6298,1.946
43.6308,1.887
43.6313,1.822
43.6318,1.727
43.6318,1.581
43.6329,1.534
43.6329,1.518
43.6338,1.532
43.6338,1.573
43.6338,1.621
43.6348,1.8
43.6355,1.87
43.6368,1.929
43.6378,1.956
43.6388,1.96
43.6408,1.95
43.6418,1.841
43.6428,1.764
43.6448,1.687
43.6458,1.616
43.6469,1.563
43.6488,1.545
43.6498,1.561
43.6518,1.661
43.6527,1.744
43.6537,1.831
43.6557,1.895
43.6567,1.934
43.6577,1.936
43.6597,1.85
43.6607,1.754
43.6627,1.647
43.6637,1.525
43.6647,1.405
43.6667,1.303
43.6677,1.261
43.6687,1.259
43.6707,1.259
43.6717,1.266
43.6727,1.295
43.6747,1.477
43.6757,1.712
43.6767,1.835
43.6787,1.823
43.6797,1.791
43.6817,1.816
43.6827,1.812
43.6837,1.808
43.6857,1.824
43.6867,1.767
43.6877,1.73
43.6896,1.714
43.6906,1.747
43.6916,1.813
43.6936,1.96
43.6946,2.049
43.6956,2.112
43.6976,2.15
43.6986,2.149
43.7006,2.117
43.7016,2.058
43.7026,1.879
43.7046,1.794
43.7056,1.707
43.7066,1.642
43.7096,1.606
43.7116,1.603
43.7186,1.663
43.7285,1.727
43.7305,1.81
43.7345,1.879
43.7351,1.939
43.7355,1.971
43.7355,1.961
43.7355,1.911
43.7365,1.846
43.7365,1.761
43.7365,1.673
43.7375,1.607
43.7375,1.525
43.7375,1.529
43.7385,1.556
43.7385,1.614
43.7395,1.684
43.7395,1.768
43.7395,1.85
43.7405,1.947
43.7405,1.955
43.7405,1.942
43.7415,1.893
43.7425,1.827
43.7435,1.745
43.7445,1.588
43.7465,1.536
43.7475,1.512
43.7495,1.52
43.7505,1.54
43.7515,1.587
43.7535,1.751
43.7545,1.821
43.7555,1.89
43.7575,1.931
43.7585,1.943
43.7595,1.928
43.7615,1.89
43.7625,1.74
43.7634,1.657
43.7655,1.587
43.7664,1.526
43.7674,1.504
43.7694,1.509
43.7704,1.584
43.7714,1.655
43.7734,1.74
43.7744,1.825
43.7764,1.887
43.7774,1.927
43.7784,1.948
43.7804,1.899
43.7814,1.833
43.7824,1.753
43.7844,1.664
43.7854,1.59
43.7864,1.53
43.7884,1.501
43.7894,1.524
43.7904,1.576
43.7924,1.655
43.7934,1.742
43.7944,1.821
43.7964,1.882
43.7974,1.94
43.7984,1.933
43.8004,1.896
43.8013,1.831
43.8034,1.755
43.8043,1.669
43.8053,1.539
43.8073,1.506
43.8083,1.51
43.8093,1.531
43.8113,1.586
43.8123,1.65
43.8133,1.736
43.8153,1.885
43.8163,1.929
43.8173,1.946
43.8194,1.931
43.8233,1.892
43.8313,1.829
43.8323,1.758
43.8418,1.589
43.8439,1.543
43.8472,1.513
43.8472,1.504
43.8482,1.528
43.8488,1.578
43.8492,1.734
43.8502,1.816
43.8502,1.877
43.8502,1.924
43.8512,1.944
43.8512,1.933
43.8512,1.902
43.8522,1.764
43.8522,1.677
43.8522,1.6
43.8532,1.544
43.8532,1.511
43.8542,1.502
43.8542,1.568
43.8542,1.638
43.8552,1.722
43.8552,1.804
43.8552,1.873
43.8574,1.914
43.8582,1.936
43.8592,1.895
43.8612,1.828
43.8622,1.754
43.8632,1.665
43.8652,1.589
43.8662,1.527
43.8672,1.486
43.8692,1.503
43.8702,1.548
43.8712,1.604
43.8732,1.692
43.8742,1.771
43.8762,1.845
43.8771,1.904
43.8781,1.892
43.8791,1.87
43.8812,1.803
43.8821,1.721
43.8841,1.638
43.8851,1.498
43.8861,1.461
43.8881,1.455
43.8891,1.47
43.8901,1.513
43.8921,1.576
43.8931,1.66
43.8941,1.813
43.8966,1.86
43.8971,1.884
43.8981,1.878
43.9001,1.85
43.9011,1.793
43.9031,1.721
43.9041,1.551
43.9051,1.488
43.9071,1.451
43.9081,1.442
43.9091,1.455
43.9111,1.497
43.9121,1.641
43.9134,1.729
43.9150,1.799
43.9164,1.85
43.9170,1.879
43.9191,1.873
43.9200,1.845
43.9210,1.711
43.9230,1.626
43.9240,1.547
43.9260,1.484
43.9290,1.453
43.9310,1.437
43.9400,1.494
43.9440,1.559
43.9509,1.642
43.9519,1.728
43.9556,1.79
43.9559,1.861
43.9559,1.875
43.9569,1.849
43.9569,1.794
43.9569,1.72
43.9579,1.633
43.9579,1.552
43.9579,1.499
43.9589,1.445
43.9589,1.462
43.9589,1.503
43.9599,1.567
43.9599,1.652
43.9599,1.737
43.9609,1.806
43.9609,1.892
43.9609,1.887
43.9619,1.861
43.9619,1.811
43.9629,1.74
43.9629,1.655
43.9659,1.577
43.9669,1.473
43.9679,1.457
43.9699,1.471
43.9709,1.508
43.9719,1.574
43.9739,1.645
43.9749,1.81
43.9759,1.862
43.9779,1.89
43.9789,1.894
43.9799,1.869
43.9819,1.817
43.9829,1.733
43.9839,1.583
43.9859,1.511
43.9869,1.467
43.9878,1.45
43.9898,1.461
43.9908,1.498
43.9928,1.641
43.9938,1.728
43.9948,1.802
43.9968,1.854
43.9978,1.88
43.9988,1.885
44.0008,1.855
44.0018,1.732
44.0028,1.644
44.0048,1.567
44.0058,1.499
44.0072,1.455
44.0088,1.444
44.0098,1.487
44.0118,1.547
44.0128,1.626
44.0138,1.714
44.0158,1.788
44.0168,1.843
44.0178,1.869
44.0198,1.85
44.0208,1.799
44.0218,1.734
44.0238,1.65
44.0247,1.562
44.0257,1.495
44.0277,1.447
44.0287,1.442
44.0307,1.472
44.0317,1.53
44.0327,1.603
44.0337,1.687
44.0357,1.766
44.0367,1.854
44.0402,1.859
44.0417,1.843
44.0497,1.793
44.0587,1.721
44.0603,1.639
44.0609,1.561
44.0649,1.438
44.0649,1.419
44.0659,1.427
44.0659,1.46
44.0669,1.518
44.0669,1.592
44.0669,1.757
44.0669,1.816
44.0669,1.849
44.0669,1.858
44.0669,1.832
44.0669,1.786
44.0669,1.718
44.0669,1.554
44.0669,1.485
44.0669,1.44
44.0669,1.415
44.0669,1.421
44.0669,1.451
44.0669,1.588
44.0669,1.671
44.0669,1.732
44.0669,1.812
44.0669,1.842
44.0669,1.849
44.0669,1.833
44.0811,1.721
44.0821,1.635
44.0831,1.553
44.0850,1.484
44.0867,1.432
44.0877,1.412
44.0900,1.439
44.0900,1.5
44.0920,1.572
44.0940,1.657
44.0940,1.736
44.0962,1.796
44.0972,1.826
44.0995,1.821
44.1006,1.781
44.1016,1.715
44.1026,1.631
44.1039,1.541
44.1059,1.471
44.1069,1.426
44.1089,1.406
44.1099,1.429
44.1117,1.49
44.1129,1.559
44.1139,1.643
44.1156,1.724
44.1168,1.816
44.1178,1.838
44.1198,1.815
44.1208,1.773
44.1218,1.708
44.1238,1.623
44.1248,1.538
44.1258,1.418
44.1278,1.394
44.1289,1.396
44.1298,1.422
44.1318,1.477
44.1328,1.553
44.1338,1.722
44.1358,1.784
44.1368,1.82
44.1398,1.832
44.1438,1.818
44.1488,1.78
44.1567,1.719
44.1597,1.558
44.1627,1.485
44.1627,1.425
44.1637,1.404
44.1637,1.399
44.1647,1.419
44.1647,1.469
44.1657,1.629
44.1657,1.697
44.1667,1.763
44.1667,1.801
44.1667,1.809
44.1677,1.793
44.1677,1.603
44.1677,1.522
44.1687,1.449
44.1687,1.402
44.1687,1.367
44.1697,1.387
44.1707,1.44
44.1724,1.508
44.1737,1.596
44.1747,1.673
44.1767,1.732
44.1777,1.783
44.1787,1.77
44.1807,1.736
44.1819,1.675
44.1827,1.597
44.1847,1.512
44.1857,1.387
44.1867,1.364
44.1887,1.371
44.1897,1.39
44.1917,1.442
44.1926,1.513
44.1936,1.601
44.1956,1.75
44.1966,1.788
44.1976,1.805
44.1996,1.794
44.2006,1.761
44.2016,1.694
44.2036,1.538
44.2046,1.453
44.2056,1.395
44.2076,1.371
44.2086,1.362
44.2106,1.387
44.2116,1.44
44.2126,1.587
44.2146,1.669
44.2156,1.735
44.2166,1.782
44.2186,1.799
44.2196,1.792
44.2206,1.691
44.2226,1.616
44.2236,1.533
44.2246,1.456
44.2266,1.395
44.2276,1.364
44.2295,1.368
44.2305,1.409
44.2315,1.472
44.2335,1.549
44.2345,1.626
44.2355,1.683
44.2375,1.716
44.2385,1.719
44.2395,1.694
44.2415,1.643
44.2425,1.576
44.2435,1.492
44.2455,1.429
44.2465,1.374
44.2485,1.367
44.2495,1.392
44.2505,1.433
44.2526,1.521
44.2555,1.592
44.2575,1.744
44.2606,1.782
44.2663,1.804
44.2704,1.791
44.2778,1.76
44.2798,1.693
44.2834,1.618
44.2834,1.455
44.2844,1.391
44.2844,1.358
44.2854,1.355
44.2854,1.383
44.2854,1.427
44.2864,1.585
44.2864,1.681
44.2864,1.753
44.2874,1.803
44.2874,1.815
44.2884,1.807
44.2884,1.784
44.2884,1.665
44.2894,1.583
44.2894,1.507
44.2894,1.445
44.2904,1.391
44.2904,1.355
44.2914,1.335
44.2914,1.356
44.2924,1.373
44.2944,1.42
44.2954,1.461
44.2964,1.461
44.2984,1.436
44.2998,1.329
44.3004,1.286
44.3024,1.26
44.3034,1.252
44.3043,1.254
44.3063,1.273
44.3073,1.289
44.3083,1.284
44.3103,1.294
44.3113,1.376
44.3123,1.535
44.3143,1.682
44.3153,1.854
44.3163,2.009
44.3183,2.008
44.3193,1.955
44.3203,1.886
44.3224,1.82
44.3233,1.711
44.3253,1.669
44.3263,1.537
44.3273,1.53
44.3293,1.539
44.3303,1.568
44.3313,1.614
44.3333,1.669
44.3343,1.745
44.3353,1.853
44.3373,1.858
44.3383,1.858
44.3393,1.83
44.3412,1.756
44.3422,1.671
44.3434,1.485
44.3452,1.421
44.3462,1.378
44.3472,1.359
44.3492,1.368
44.3510,1.406
44.3522,1.465
44.3532,1.629
44.3542,1.701
44.3562,1.757
44.3572,1.775
44.3622,1.776
44.3692,1.745
44.3732,1.631
44.3794,1.542
44.3812,1.463
44.3821,1.393
44.3851,1.353
44.3861,1.337
44.3861,1.347
44.3861,1.436
44.3871,1.514
44.3871,1.598
44.3877,1.665
44.3881,1.723
44.3881,1.75
44.3881,1.742
44.3891,1.681
44.3891,1.608
44.3891,1.523
44.3901,1.444
44.3901,1.378
44.3911,1.337
44.3911,1.334
44.3911,1.363
44.3921,1.416
44.3921,1.499
44.3931,1.587
44.3951,1.654
44.3961,1.709
44.3981,1.743
44.3991,1.73
44.4001,1.674
44.4021,1.606
44.4031,1.523
44.4041,1.439
44.4062,1.375
44.4071,1.326
44.4081,1.333
44.4101,1.359
44.4111,1.409
44.4121,1.493
44.4141,1.579
44.4160,1.709
44.4160,1.733
44.4182,1.741
44.4200,1.722
44.4200,1.674
44.4220,1.609
44.4230,1.526
44.4240,1.375
44.4260,1.335
44.4280,1.321
44.4280,1.329
44.4304,1.353
44.4314,1.408
44.4334,1.477
44.4344,1.641
44.4354,1.698
44.4374,1.73
44.4384,1.739
44.4394,1.72
44.4414,1.677
44.4424,1.526
44.4434,1.443
44.4453,1.378
44.4463,1.335
44.4477,1.322
44.4493,1.323
44.4503,1.402
44.4513,1.477
44.4533,1.566
44.4543,1.638
44.4563,1.697
44.4573,1.729
44.4583,1.738
44.4603,1.679
44.4613,1.615
44.4624,1.535
44.4644,1.442
44.4653,1.375
44.4663,1.338
44.4683,1.327
44.4693,1.348
44.4703,1.399
44.4723,1.471
44.4733,1.559
44.4753,1.636
44.4763,1.696
44.4773,1.737
44.4813,1.724
44.4822,1.677
44.4902,1.611
44.4922,1.531
44.5019,1.448
44.5038,1.338
44.5062,1.319
44.5072,1.321
44.5072,1.343
44.5072,1.396
44.5082,1.463
44.5082,1.613
44.5082,1.676
44.5092,1.715
44.5092,1.724
44.5102,1.707
44.5102,1.663
44.5102,1.595
44.5112,1.426
44.5112,1.357
44.5112,1.315
44.5122,1.302
44.5122,1.302
44.5122,1.316
44.5132,1.421
44.5132,1.504
44.5153,1.577
44.5162,1.643
44.5172,1.682
44.5182,1.696
44.5192,1.677
44.5211,1.572
44.5221,1.499
44.5231,1.409
44.5252,1.343
44.5261,1.306
44.5271,1.292
44.5291,1.308
44.5301,1.347
44.5321,1.409
44.5331,1.493
44.5341,1.568
44.5361,1.633
44.5371,1.681
44.5381,1.666
44.5401,1.632
44.5411,1.569
44.5421,1.491
44.5441,1.404
44.5451,1.339
44.5461,1.292
44.5481,1.294
44.5491,1.302
44.5501,1.335
44.5521,1.397
44.5531,1.481
44.5541,1.622
44.5561,1.665
44.5570,1.675
44.5590,1.664
44.5600,1.631
44.5610,1.571
44.5630,1.497
44.5640,1.343
44.5650,1.302
44.5670,1.292
44.5681,1.292
44.5690,1.304
44.5710,1.338
44.5730,1.478
44.5730,1.563
44.5750,1.622
44.5760,1.665
44.5780,1.684
44.5790,1.676
44.5810,1.643
44.5820,1.513
44.5840,1.43
44.5850,1.362
44.5860,1.316
44.5880,1.3
44.5920,1.297
44.5920,1.351
44.6001,1.411
44.6079,1.497
44.6099,1.577
44.6109,1.641
44.6135,1.685
44.6149,1.696
44.6149,1.662
44.6149,1.603
44.6159,1.529
44.6159,1.444
44.6159,1.371
44.6169,1.319
44.6169,1.302
44.6169,1.314
44.6179,1.354
44.6179,1.414
44.6179,1.493
44.6189,1.575
44.6189,1.683
44.6189,1.7
44.6199,1.683
44.6199,1.658
44.6219,1.6
44.6229,1.526
44.6239,1.367
44.6259,1.321
44.6269,1.3
44.6279,1.298
44.6299,1.308
44.6309,1.341
44.6318,1.4
44.6338,1.562
44.6348,1.624
44.6368,1.678
44.6378,1.704
44.6388,1.691
44.6408,1.662
44.6418,1.529
44.6438,1.443
44.6448,1.37
44.6458,1.315
44.6478,1.296
44.6488,1.295
44.6498,1.306
44.6518,1.399
44.6528,1.473
44.6538,1.554
44.6558,1.62
44.6568,1.674
44.6578,1.693
44.6598,1.665
44.6608,1.606
44.6618,1.536
44.6638,1.452
44.6648,1.373
44.6668,1.324
44.6678,1.296
44.6687,1.306
44.6707,1.334
44.6717,1.389
44.6727,1.468
44.6747,1.551
44.6757,1.617
44.6767,1.694
44.6787,1.682
44.6797,1.66
44.6807,1.604
44.6827,1.535
44.6837,1.459
44.6857,1.319
44.6867,1.298
44.6877,1.293
44.6897,1.303
44.6907,1.328
44.6917,1.382
44.6938,1.458
44.6972,1.607
44.6977,1.654
44.7057,1.691
44.7096,1.684
44.7166,1.657
44.7186,1.603
44.7196,1.451
44.7196,1.372
44.7206,1.318
44.7206,1.296
44.7206,1.291
44.7206,1.297
44.7216,1.319
44.7216,1.443
44.7216,1.537
44.7226,1.611
44.7226,1.665
44.7226,1.688
44.7236,1.687
44.7236,1.612
44.7236,1.541
44.7246,1.457
44.7246,1.38
44.7256,1.325
44.7276,1.301
44.7286,1.297
44.7296,1.328
44.7316,1.381
44.7328,1.457
44.7336,1.541
44.7356,1.612
44.7366,1.668
44.7376,1.684
44.7396,1.656
44.7406,1.601
44.7426,1.536
44.7436,1.457
44.7445,1.379
44.7465,1.3
44.7475,1.295
44.7485,1.3
44.7505,1.321
44.7515,1.369
44.7525,1.445
44.7545,1.536
44.7555,1.658
44.7565,1.685
44.7585,1.69
44.7595,1.672
44.7605,1.618
44.7625,1.546
44.7635,1.386
44.7655,1.332
44.7665,1.302
44.7675,1.297
44.7695,1.303
44.7705,1.324
44.7715,1.375
44.7735,1.538
44.7745,1.611
44.7755,1.661
44.7775,1.685
44.7785,1.69
44.7795,1.67
44.7814,1.554
44.7824,1.468
44.7834,1.383
44.7854,1.323
44.7864,1.299
44.7874,1.291
44.7894,1.296
44.7904,1.363
44.7924,1.432
44.7934,1.516
44.7944,1.592
44.7964,1.644
44.7974,1.667
44.7984,1.637
44.8004,1.584
44.8014,1.522
44.8024,1.446
44.8044,1.367
44.8084,1.312
44.8104,1.29
44.8184,1.29
44.8273,1.303
44.8293,1.341
44.8333,1.411
44.8339,1.496
44.8343,1.573
44.8343,1.674
44.8343,1.673
44.8353,1.659
44.8353,1.616
44.8353,1.552
44.8363,1.474
44.8363,1.33
44.8363,1.304
44.8373,1.296
44.8373,1.3
44.8383,1.312
44.8383,1.354
44.8383,1.429
44.8393,1.644
44.8393,1.679
44.8393,1.686
44.8403,1.671
44.8413,1.561
44.8423,1.479
44.8433,1.401
44.8453,1.34
44.8463,1.304
44.8473,1.295
44.8493,1.299
44.8503,1.36
44.8513,1.426
44.8533,1.507
44.8543,1.586
44.8552,1.642
44.8572,1.678
44.8582,1.674
44.8592,1.636
44.8612,1.57
44.8622,1.48
44.8642,1.4
44.8652,1.337
44.8662,1.303
44.8683,1.298
44.8692,1.314
44.8702,1.359
44.8722,1.425
44.8732,1.515
44.8742,1.588
44.8762,1.687
44.8772,1.698
44.8782,1.683
44.8802,1.643
44.8812,1.578
44.8832,1.493
44.8842,1.347
44.8852,1.311
44.8872,1.298
44.8882,1.3
44.8892,1.318
44.8912,1.359
44.8921,1.421
44.8931,1.585
44.8951,1.646
44.8961,1.687
44.8971,1.698
44.8992,1.679
44.9001,1.637
44.9011,1.502
44.9031,1.411
44.9041,1.35
44.9061,1.318
44.9071,1.31
44.9081,1.315
44.9101,1.335
44.9111,1.445
44.9121,1.532
44.9143,1.614
44.9181,1.682
44.9271,1.725
44.9281,1.736
44.9384,1.686
44.9400,1.608
44.9430,1.509
44.9440,1.394
44.9440,1.312
44.9450,1.276
44.9450,1.264
44.9450,1.26
44.9460,1.261
44.9460,1.266
44.9470,1.275
44.9470,1.288
44.9478,1.3
44.9480,1.314
44.9490,1.44
44.9490,1.55
44.9500,1.535
44.9503,1.433
44.9503,1.336
44.9510,1.288
44.9510,1.292
44.9510,1.337
44.9520,1.46
44.9520,1.593
44.9520,1.669
44.9540,1.722
44.9550,1.813
44.9560,1.863
44.9580,1.887
44.9590,1.865
44.9600,1.843
44.9620,1.799
44.9630,1.712
44.9640,1.529
44.9660,1.459
44.9670,1.416
44.9680,1.397
44.9699,1.406
44.9709,1.444
44.9729,1.577
44.9739,1.641
44.9749,1.694
44.9769,1.73
44.9779,1.743
44.9793,1.726
44.9809,1.691
44.9819,1.549
44.9829,1.465
44.9849,1.391
44.9859,1.337
44.9879,1.313
44.9889,1.312
44.9899,1.323
44.9909,1.421
44.9929,1.505
44.9939,1.587
44.9959,1.648
44.9969,1.691
44.9979,1.706
44.9999,1.662
45.0009,1.605
45.0019,1.532
45.0039,1.445
45.0049,1.37
45.0058,1.323
45.0078,1.306
45.0088,1.311
45.0098,1.342
45.0118,1.403
45.0128,1.486
45.0143,1.566
45.0158,1.626
45.0168,1.678
45.0183,1.695
45.0198,1.661
45.0208,1.602
45.0228,1.535
45.0238,1.453
45.0250,1.38
45.0288,1.306
45.0378,1.303
45.0398,1.313
45.0487,1.339
45.0511,1.397
45.0547,1.479
45.0587,1.561
45.0587,1.679
45.0597,1.697
45.0597,1.691
45.0607,1.665
45.0607,1.605
45.0617,1.53
45.0617,1.447
45.0627,1.327
45.0627,1.303
45.0627,1.302
45.0637,1.312
45.0637,1.344
45.0651,1.399
45.0657,1.476
45.0657,1.639
45.0667,1.69
45.0667,1.703
45.0677,1.693
45.0677,1.672
45.0677,1.617
45.0687,1.458
45.0687,1.375
45.0697,1.323
45.0697,1.3
45.0697,1.298
45.0707,1.309
45.0707,1.334
45.0727,1.48
45.0737,1.561
45.0747,1.629
45.0767,1.679
45.0777,1.71
45.0787,1.706
45.0806,1.676
45.0818,1.548
45.0826,1.462
45.0846,1.391
45.0856,1.334
45.0866,1.306
45.0886,1.299
45.0896,1.33
45.0906,1.382
45.0926,1.468
45.0936,1.558
45.0946,1.616
45.0966,1.674
45.0976,1.7
45.0996,1.679
45.1006,1.623
45.1018,1.557
45.1036,1.469
45.1046,1.39
45.1056,1.332
45.1076,1.304
45.1086,1.311
45.1096,1.34
45.1116,1.401
45.1126,1.479
45.1136,1.558
45.1156,1.629
45.1166,1.684
45.1185,1.689
45.1195,1.665
45.1209,1.61
45.1225,1.535
45.1235,1.452
45.1245,1.317
45.1265,1.296
45.1275,1.29
45.1285,1.296
45.1305,1.318
45.1315,1.364
45.1445,1.436
45.1584,1.593
45.1604,1.649
45.1607,1.671
45.1634,1.668
45.1644,1.646
45.1654,1.59
45.1664,1.44
45.1664,1.363
45.1664,1.309
45.1674,1.287
45.1674,1.281
45.1674,1.286
45.1684,1.301
45.1684,1.404
45.1684,1.493
45.1694,1.57
45.1694,1.623
45.1694,1.657
45.1704,1.665
45.1704,1.591
45.1704,1.518
45.1714,1.433
45.1714,1.352
45.1714,1.304
45.1724,1.286
45.1724,1.283
45.1724,1.297
45.1734,1.333
45.1734,1.403
45.1734,1.496
45.1744,1.567
45.1764,1.622
45.1774,1.657
45.1784,1.643
45.1805,1.595
45.1824,1.529
45.1834,1.447
45.1844,1.362
45.1854,1.291
45.1874,1.288
45.1884,1.29
45.1894,1.302
45.1914,1.346
45.1923,1.411
45.1933,1.495
45.1953,1.625
45.1964,1.661
45.1973,1.668
45.1993,1.65
45.2003,1.606
45.2023,1.538
45.2033,1.375
45.2043,1.323
45.2066,1.301
45.2073,1.293
45.2083,1.297
45.2103,1.312
45.2113,1.358
45.2123,1.52
45.2143,1.609
45.2153,1.67
45.2163,1.698
45.2183,1.708
45.2193,1.687
45.2203,1.585
45.2223,1.503
45.2233,1.417
45.2253,1.358
45.2263,1.319
45.2273,1.309
45.2292,1.331
45.2302,1.383
45.2312,1.455
45.2332,1.542
45.2342,1.615
45.2352,1.676
45.2372,1.713
45.2382,1.702
45.2392,1.659
45.2412,1.595
45.2422,1.517
45.2462,1.437
45.2542,1.367
45.2583,1.313
45.2662,1.319
45.2691,1.338
45.2702,1.385
45.2702,1.459
45.2702,1.541
45.2711,1.62
45.2711,1.711
45.2711,1.719
45.2721,1.703
45.2721,1.667
45.2721,1.605
45.2731,1.528
45.2731,1.373
45.2731,1.329
45.2741,1.311
45.2741,1.315
45.2751,1.338
45.2751,1.387
45.2751,1.446
45.2761,1.604
45.2761,1.666
45.2761,1.708
45.2771,1.724
45.2796,1.711
45.2810,1.671
45.2821,1.526
45.2831,1.443
45.2841,1.375
45.2861,1.331
45.2871,1.311
45.2881,1.306
45.2901,1.351
45.2911,1.416
45.2921,1.509
45.2941,1.587
45.2951,1.655
45.2961,1.695
45.2991,1.702
45.2991,1.658
45.3001,1.597
45.3021,1.515
45.3031,1.421
45.3051,1.355
45.3060,1.316
45.3070,1.299
45.3090,1.309
45.3100,1.347
45.3110,1.414
45.3130,1.499
45.3150,1.578
45.3150,1.645
45.3170,1.697
45.3180,1.681
45.3190,1.649
45.3210,1.587
45.3220,1.504
45.3230,1.427
45.3250,1.315
45.3270,1.299
45.3280,1.299
45.3292,1.312
45.3310,1.354
45.3320,1.418
45.3330,1.493
45.3340,1.638
45.3360,1.687
45.3380,1.706
45.3390,1.688
45.3400,1.659
45.3419,1.594
45.3419,1.432
45.3439,1.371
45.3459,1.315
45.3469,1.299
45.3479,1.3
45.3499,1.31
45.3519,1.411
45.3549,1.498
45.3559,1.581
45.3639,1.648
45.3729,1.684
45.3739,1.698
45.3769,1.688
45.3780,1.596
45.3780,1.521
45.3788,1.439
45.3788,1.368
45.3788,1.32
45.3798,1.303
45.3798,1.316
45.3798,1.351
45.3810,1.412
45.3810,1.492
45.3819,1.571
45.3819,1.638
45.3828,1.682
45.3828,1.686
45.3828,1.652
45.3838,1.594
45.3838,1.522
45.3838,1.439
45.3848,1.363
45.3868,1.297
45.3878,1.292
45.3888,1.303
45.3908,1.332
45.3918,1.384
45.3928,1.469
45.3948,1.605
45.3958,1.648
45.3978,1.668
45.3988,1.662
45.3998,1.642
45.4018,1.584
45.4028,1.505
45.4038,1.353
45.4058,1.312
45.4068,1.296
45.4078,1.291
45.4098,1.305
45.4108,1.339
45.4118,1.477
45.4138,1.559
45.4148,1.629
45.4167,1.675
45.4177,1.694
45.4187,1.691
45.4207,1.65
45.4217,1.527
45.4227,1.442
45.4247,1.367
45.4257,1.316
45.4267,1.294
45.4287,1.296
45.4297,1.338
45.4317,1.398
45.4327,1.475
45.4337,1.557
45.4347,1.625
45.4367,1.671
45.4377,1.693
45.4397,1.663
45.4407,1.609
45.4417,1.537
45.4437,1.456
45.4447,1.378
45.4457,1.326
45.4477,1.301
45.4487,1.312
45.4497,1.341
45.4517,1.396
45.4527,1.474
45.4546,1.558
45.4556,1.679
45.4566,1.698
45.4607,1.699
45.4616,1.671
45.4686,1.613
45.4706,1.544
45.4786,1.463
45.4806,1.323
45.4843,1.305
45.4846,1.303
45.4846,1.312
45.4846,1.343
45.4856,1.408
45.4856,1.563
45.4856,1.629
45.4866,1.68
45.4866,1.704
45.4866,1.701
45.4876,1.677
45.4876,1.631
45.4876,1.482
45.4876,1.402
45.4886,1.356
45.4886,1.32
45.4886,1.31
45.4896,1.316
45.4905,1.402
45.4915,1.484
45.4935,1.568
45.4945,1.63
45.4965,1.681
45.4977,1.705
45.4985,1.685
45.5005,1.639
45.5015,1.576
45.5025,1.499
45.5045,1.43
45.5075,1.378
45.5085,1.332
45.5095,1.364
45.5115,1.424
45.5125,1.501
45.5135,1.594
45.5155,1.711
45.5165,1.728
45.5175,1.714
45.5195,1.668
45.5205,1.593
45.5225,1.489
45.5235,1.384
45.5245,1.272
45.5265,1.258
45.5275,1.253
45.5284,1.251
45.5304,1.251
45.5314,1.253
45.5324,1.282
45.5344,1.403
45.5354,1.577
45.5364,1.649
45.5384,1.629
45.5394,1.588
45.5404,1.533
45.5424,1.464
45.5434,1.457
45.5444,1.499
45.5464,1.527
45.5474,1.518
45.5494,1.488
45.5504,1.531
45.5514,1.608
45.5536,1.707
45.5544,1.775
45.5554,1.838
45.5574,1.88
45.5584,1.859
45.5594,1.812
45.5614,1.736
45.5624,1.647
45.5644,1.554
45.5654,1.475
45.5664,1.41
45.5683,1.394
45.5723,1.414
45.5755,1.469
45.5810,1.534
45.5893,1.61
45.5913,1.675
45.5943,1.746
45.5943,1.745
45.5943,1.724
45.5953,1.68
45.5953,1.611
45.5953,1.527
45.5963,1.374
45.5963,1.335
45.5963,1.319
45.5973,1.325
45.5973,1.352
45.5984,1.405
45.5993,1.469
45.5993,1.627
45.5993,1.684
45.6003,1.717
45.6003,1.722
45.6003,1.703
45.6013,1.654
45.6013,1.513
45.6033,1.428
45.6042,1.365
45.6062,1.324
45.6072,1.311
45.6082,1.314
45.6102,1.33
45.6112,1.445
45.6122,1.525
45.6143,1.595
45.6152,1.651
45.6162,1.687
45.6182,1.696
45.6192,1.631
45.6202,1.565
45.6222,1.486
45.6232,1.406
45.6252,1.346
45.6262,1.316
45.6272,1.309
45.6292,1.33
45.6302,1.384
45.6312,1.457
45.6332,1.544
45.6342,1.623
45.6352,1.686
45.6372,1.721
45.6382,1.719
45.6392,1.682
45.6411,1.619
45.6421,1.542
45.6431,1.46
45.6451,1.38
45.6461,1.312
45.6471,1.319
45.6491,1.341
45.6501,1.401
45.6521,1.473
45.6531,1.563
45.6541,1.705
45.6561,1.739
45.6571,1.757
45.6581,1.738
45.6601,1.697
45.6611,1.636
45.6621,1.556
45.6642,1.408
45.6651,1.36
45.6661,1.342
45.6681,1.34
45.6691,1.356
45.6701,1.404
45.6721,1.473
45.6741,1.64
45.6741,1.697
45.6761,1.735
45.6810,1.748
45.6880,1.733
45.6970,1.697
45.7000,1.56
45.7030,1.477
45.7035,1.405
45.7040,1.355
45.7040,1.334
45.7040,1.333
45.7050,1.35
45.7050,1.468
45.7050,1.549
45.7060,1.625
45.7060,1.688
45.7060,1.73
45.7070,1.741
45.7070,1.719
45.7070,1.639
45.7080,1.559
45.7080,1.472
45.7080,1.405
45.7090,1.353
45.7096,1.328
45.7100,1.348
45.7100,1.396
45.7120,1.463
45.7130,1.547
45.7143,1.628
45.7159,1.689
45.7169,1.731
45.7179,1.736
45.7199,1.699
45.7209,1.636
45.7219,1.557
45.7239,1.475
45.7249,1.403
45.7259,1.327
45.7279,1.322
45.7289,1.338
45.7309,1.382
45.7319,1.448
45.7329,1.531
45.7349,1.615
45.7359,1.718
45.7369,1.735
45.7381,1.715
45.7399,1.671
45.7409,1.61
45.7419,1.538
45.7431,1.385
45.7452,1.332
45.7468,1.315
45.7478,1.31
45.7488,1.323
45.7508,1.362
45.7518,1.424
45.7538,1.578
45.7548,1.639
45.7558,1.683
45.7578,1.704
45.7588,1.696
45.7598,1.665
45.7618,1.605
45.7628,1.452
45.7638,1.379
45.7658,1.329
45.7668,1.309
45.7678,1.309
45.7698,1.317
45.7708,1.351
45.7717,1.5
45.7737,1.569
45.7747,1.646
45.7767,1.688
45.7777,1.706
45.7787,1.696
45.7807,1.61
45.7817,1.538
45.7827,1.451
45.7847,1.382
45.7857,1.328
45.7867,1.308
45.7887,1.313
45.7897,1.351
45.7917,1.417
45.7937,1.501
45.7970,1.58
45.8017,1.65
45.8096,1.702
45.8106,1.71
45.8156,1.684
45.8156,1.627
45.8156,1.554
45.8166,1.47
45.8166,1.397
45.8166,1.317
45.8176,1.319
45.8176,1.333
45.8176,1.37
45.8176,1.431
45.8186,1.512
45.8186,1.597
45.8186,1.714
45.8196,1.734
45.8196,1.73
45.8196,1.706
45.8206,1.646
45.8226,1.574
45.8236,1.418
45.8246,1.365
45.8266,1.335
45.8276,1.328
45.8296,1.345
45.8306,1.384
45.8316,1.528
45.8336,1.607
45.8346,1.67
45.8356,1.719
45.8376,1.748
45.8386,1.748
45.8396,1.719
45.8416,1.591
45.8426,1.506
45.8436,1.429
45.8456,1.367
45.8465,1.336
45.8475,1.329
45.8495,1.377
45.8505,1.434
45.8526,1.508
45.8535,1.595
45.8545,1.663
45.8565,1.715
45.8575,1.738
45.8585,1.706
45.8605,1.652
45.8615,1.582
45.8625,1.497
45.8645,1.417
45.8655,1.357
45.8665,1.317
45.8685,1.329
45.8695,1.36
45.8715,1.418
45.8725,1.496
45.8735,1.578
45.8755,1.698
45.8765,1.72
45.8775,1.72
45.8795,1.694
45.8805,1.632
45.8815,1.577
45.8836,1.491
45.8844,1.357
45.8854,1.322
45.8874,1.313
45.8884,1.324
45.8904,1.351
45.8914,1.411
45.8924,1.569
45.8944,1.633
45.8954,1.683
45.8964,1.708
45.8985,1.709
45.9014,1.69
45.9014,1.636
45.9084,1.481
45.9174,1.403
45.9184,1.344
45.9213,1.314
45.9218,1.307
45.9223,1.314
45.9223,1.393
45.9223,1.466
45.9233,1.544
45.9233,1.614
45.9233,1.67
45.9233,1.697
45.9243,1.702
45.9243,1.631
45.9243,1.562
45.9253,1.479
45.9253,1.401
45.9253,1.338
45.9263,1.31
45.9273,1.309
45.9293,1.334
45.9309,1.388
45.9323,1.461
45.9333,1.549
45.9343,1.61
45.9363,1.698
45.9373,1.701
45.9383,1.679
45.9403,1.63
45.9413,1.561
45.9423,1.48
45.9444,1.396
45.9453,1.307
45.9463,1.3
45.9483,1.305
45.9493,1.334
45.9503,1.382
45.9523,1.457
45.9533,1.613
45.9553,1.671
45.9563,1.697
45.9573,1.703
45.9592,1.684
45.9602,1.639
45.9612,1.573
45.9632,1.415
45.9642,1.349
45.9652,1.317
45.9672,1.308
45.9682,1.313
45.9692,1.335
45.9712,1.465
45.9722,1.547
45.9732,1.621
45.9753,1.674
45.9762,1.703
45.9782,1.714
45.9792,1.696
45.9802,1.585
45.9822,1.505
45.9832,1.423
45.9842,1.358
45.9862,1.32
45.9872,1.309
45.9882,1.336
45.9902,1.387
45.9912,1.46
45.9922,1.542
45.9942,1.616
45.9952,1.664
45.9971,1.708
45.9981,1.686
45.9991,1.642
46.0011,1.573
46.0021,1.494
46.0031,1.407
46.0071,1.343
46.0083,1.301
46.0151,1.302
46.0241,1.316
46.0261,1.361
46.0291,1.435
46.0291,1.523
46.0301,1.652
46.0301,1.684
46.0301,1.691
46.0311,1.67
46.0321,1.629
46.0321,1.567
46.0321,1.414
46.0331,1.349
46.0331,1.316
46.0331,1.307
46.0331,1.309
46.0340,1.325
46.0340,1.376
46.0340,1.533
46.0350,1.612
46.0350,1.673
46.0361,1.702
46.0370,1.707
46.0390,1.693
46.0400,1.589
46.0410,1.512
46.0430,1.433
46.0440,1.366
46.0450,1.325
46.0475,1.309
46.0491,1.311
46.0491,1.379
46.0510,1.446
46.0520,1.532
46.0530,1.599
46.0550,1.668
46.0560,1.698
46.0580,1.701
46.0590,1.661
46.0600,1.598
46.0620,1.521
46.0640,1.436
46.0650,1.369
46.0660,1.324
46.0680,1.312
46.0680,1.329
46.0700,1.371
46.0719,1.439
46.0729,1.525
46.0749,1.598
46.0759,1.701
46.0769,1.706
46.0789,1.693
46.0799,1.658
46.0809,1.596
46.0829,1.521
46.0839,1.372
46.0849,1.331
46.0869,1.315
46.0879,1.317
46.0889,1.334
46.0909,1.377
46.0919,1.443
46.0929,1.603
46.0949,1.662
46.0959,1.696
46.0979,1.721
46.0989,1.699
46.1000,1.664
46.1019,1.526
46.1029,1.444
46.1039,1.377
46.1059,1.331
46.1069,1.315
46.1088,1.316
46.1098,1.334
46.1108,1.442
46.1118,1.529
46.1138,1.61
46.1148,1.67
46.1178,1.708
46.1188,1.734
46.1268,1.7
46.1309,1.645
46.1378,1.562
46.1394,1.471
46.1423,1.403
46.1428,1.36
46.1428,1.339
46.1438,1.363
46.1438,1.402
46.1438,1.453
46.1448,1.51
46.1448,1.555
46.1448,1.583
46.1448,1.55
46.1457,1.507
46.1457,1.436
46.1457,1.343
46.1467,1.278
46.1467,1.256
46.1467,1.242
46.1478,1.241
46.1478,1.241
46.1488,1.244
46.1507,1.262
46.1517,1.303
46.1527,1.384
46.1547,1.505
46.1557,1.577
46.1567,1.66
46.1587,1.695
46.1597,1.725
46.1617,1.727
46.1627,1.634
46.1637,1.556
46.1657,1.487
46.1667,1.462
46.1677,1.458
46.1697,1.463
46.1707,1.504
46.1717,1.672
46.1737,1.753
46.1747,1.802
46.1757,1.842
46.1778,1.844
46.1807,1.822
46.1817,1.629
46.1827,1.538
46.1846,1.468
46.1856,1.399
46.1876,1.344
46.1886,1.356
46.1896,1.392
46.1916,1.454
46.1926,1.528
46.1937,1.603
46.1956,1.655
46.1966,1.746
46.1976,1.721
46.1996,1.699
46.2006,1.642
46.2016,1.568
46.2036,1.486
46.2046,1.363
46.2056,1.331
46.2076,1.322
46.2086,1.334
46.2106,1.367
46.2116,1.439
46.2126,1.514
46.2146,1.659
46.2156,1.705
46.2166,1.727
46.2186,1.711
46.2196,1.687
46.2205,1.649
46.2225,1.485
46.2235,1.416
46.2245,1.355
46.2275,1.322
46.2295,1.317
46.2365,1.333
46.2445,1.433
46.2455,1.514
46.2495,1.583
46.2505,1.668
46.2505,1.709
46.2505,1.731
46.2515,1.727
46.2515,1.648
46.2515,1.58
46.2525,1.496
46.2525,1.416
46.2535,1.369
46.2535,1.327
46.2535,1.344
46.2535,1.382
46.2545,1.438
46.2545,1.522
46.2545,1.599
46.2555,1.666
46.2565,1.703
46.2574,1.742
46.2584,1.71
46.2604,1.655
46.2614,1.59
46.2624,1.504
46.2644,1.432
46.2654,1.346
46.2664,1.341
46.2684,1.35
46.2694,1.385
46.2715,1.45
46.2724,1.535
46.2734,1.684
46.2754,1.73
46.2764,1.759
46.2774,1.751
46.2794,1.719
46.2804,1.695
46.2814,1.611
46.2834,1.468
46.2844,1.409
46.2854,1.371
46.2874,1.36
46.2884,1.371
46.2894,1.409
46.2914,1.534
46.2924,1.627
46.2944,1.695
46.2953,1.75
46.2963,1.766
46.2983,1.782
46.2993,1.759
46.3003,1.631
46.3024,1.574
46.3033,1.492
46.3043,1.435
46.3063,1.404
46.3073,1.399
46.3083,1.445
46.3103,1.509
46.3113,1.586
46.3133,1.681
46.3143,1.745
46.3153,1.786
46.3173,1.838
46.3184,1.813
46.3193,1.764
46.3213,1.695
46.3223,1.608
46.3233,1.533
46.3253,1.467
46.3263,1.414
46.3273,1.423
46.3293,1.451
46.3303,1.516
46.3313,1.598
46.3355,1.684
46.3366,1.749
46.3442,1.824
46.3532,1.839
46.3552,1.814
46.3582,1.766
46.3587,1.684
46.3587,1.626
46.3592,1.478
46.3592,1.435
46.3592,1.424
46.3602,1.433
46.3602,1.462
46.3602,1.524
46.3612,1.597
46.3612,1.731
46.3612,1.819
46.3622,1.815
46.3622,1.841
46.3622,1.812
46.3632,1.76
46.3632,1.609
46.3632,1.529
46.3652,1.467
46.3652,1.42
46.3672,1.398
46.3682,1.405
46.3692,1.426
46.3711,1.547
46.3721,1.646
46.3731,1.706
46.3751,1.758
46.3761,1.776
46.3771,1.787
46.3791,1.708
46.3801,1.644
46.3821,1.558
46.3831,1.501
46.3841,1.425
46.3861,1.383
46.3871,1.361
46.3881,1.403
46.3901,1.463
46.3911,1.523
46.3921,1.607
46.3941,1.677
46.3951,1.729
46.3961,1.762
46.3981,1.721
46.3991,1.736
46.4001,1.649
46.4021,1.564
46.4031,1.484
46.4041,1.421
46.4061,1.349
46.4070,1.372
46.4080,1.391
46.4100,1.443
46.4110,1.506
46.4120,1.592
46.4141,1.66
46.4150,1.761
46.4170,1.758
46.4180,1.742
46.4200,1.701
46.4210,1.642
46.4220,1.564
46.4230,1.414
46.4250,1.385
46.4260,1.364
46.4270,1.374
46.4291,1.393
46.4307,1.446
46.4310,1.516
46.4330,1.677
46.4340,1.724
46.4350,1.779
46.4370,1.79
46.4380,1.766
46.4400,1.73
46.4420,1.655
46.4420,1.492
46.4441,1.439
46.4469,1.395
46.4479,1.372
46.4549,1.372
46.4560,1.395
46.4649,1.507
46.4689,1.593
46.4702,1.672
46.4702,1.74
46.4709,1.776
46.4709,1.787
46.4709,1.771
46.4719,1.694
46.4719,1.621
46.4719,1.54
46.4729,1.476
46.4729,1.421
46.4729,1.392
46.4739,1.403
46.4739,1.478
46.4739,1.533
46.4749,1.606
46.4749,1.7
46.4749,1.75
46.4769,1.792
46.4779,1.788
46.4799,1.747
46.4809,1.695
46.4819,1.603
46.4838,1.527
46.4848,1.463
46.4858,1.386
46.4878,1.386
46.4888,1.416
46.4908,1.464
46.4918,1.525
46.4928,1.609
46.4948,1.736
46.4958,1.772
46.4968,1.778
46.4988,1.771
46.4998,1.734
46.5018,1.646
46.5028,1.532
46.5038,1.445
46.5058,1.396
46.5068,1.367
46.5078,1.381
46.5098,1.399
46.5108,1.446
46.5118,1.612
46.5138,1.683
46.5148,1.742
46.5158,1.781
46.5178,1.793
46.5188,1.785
46.5197,1.699
46.5217,1.623
46.5227,1.539
46.5247,1.473
46.5257,1.417
46.5267,1.393
46.5287,1.391
46.5297,1.451
46.5307,1.525
46.5327,1.595
46.5337,1.671
46.5347,1.731
46.5367,1.769
46.5377,1.769
46.5397,1.745
46.5407,1.677
46.5417,1.623
46.5437,1.537
46.5447,1.456
46.5457,1.376
46.5477,1.381
46.5487,1.382
46.5497,1.452
46.5518,1.512
46.5557,1.582
46.5636,1.726
46.5646,1.769
46.5726,1.782
46.5749,1.769
46.5776,1.738
46.5782,1.674
46.5786,1.598
46.5786,1.452
46.5786,1.392
46.5796,1.365
46.5796,1.359
46.5796,1.373
46.5806,1.412
46.5808,1.55
46.5808,1.627
46.5816,1.69
46.5826,1.729
46.5826,1.739
46.5826,1.727
46.5836,1.703
46.5836,1.552
46.5836,1.474
46.5836,1.401
46.5856,1.34
46.5866,1.313
46.5876,1.311
46.5896,1.351
46.5906,1.41
46.5916,1.485
46.5936,1.559
46.5945,1.625
46.5955,1.654
46.5975,1.663
46.5986,1.644
46.6005,1.588
46.6015,1.516
46.6025,1.434
46.6045,1.354
46.6055,1.311
46.6065,1.29
46.6085,1.299
46.6095,1.321
46.6105,1.371
46.6125,1.444
46.6135,1.527
46.6145,1.635
46.6165,1.653
46.6175,1.646
46.6195,1.62
46.6205,1.565
46.6215,1.484
46.6225,1.402
46.6245,1.294
46.6255,1.283
46.6275,1.28
46.6285,1.286
46.6295,1.304
46.6314,1.346
46.6324,1.491
46.6334,1.557
46.6354,1.601
46.6364,1.616
46.6374,1.612
46.6394,1.588
46.6404,1.529
46.6424,1.381
46.6434,1.314
46.6444,1.285
46.6465,1.276
46.6474,1.275
46.6484,1.279
46.6504,1.326
46.6514,1.397
46.6524,1.483
46.6544,1.552
46.6554,1.598
46.6564,1.618
46.6584,1.618
46.6594,1.538
46.6604,1.474
46.6644,1.401
46.6658,1.329
46.6723,1.295
46.6735,1.283
46.6835,1.283
46.6843,1.295
46.6873,1.333
46.6873,1.398
46.6883,1.474
46.6883,1.535
46.6883,1.59
46.6893,1.62
46.6893,1.597
46.6893,1.547
46.6903,1.482
46.6903,1.403
46.6903,1.328
46.6913,1.277
46.6913,1.273
46.6913,1.276
46.6923,1.283
46.6923,1.308
46.6923,1.361
46.6933,1.419
46.6943,1.479
46.6963,1.496
46.6983,1.461
46.6983,1.408
46.7003,1.353
46.7013,1.31
46.7023,1.269
46.7043,1.265
46.7053,1.266
46.7062,1.271
46.7082,1.282
46.7092,1.305
46.7112,1.354
46.7122,1.52
46.7132,1.598
46.7152,1.661
46.7162,1.691
46.7172,1.694
46.7192,1.681
46.7202,1.564
46.7212,1.484
46.7232,1.409
46.7242,1.356
46.7252,1.325
46.7272,1.314
46.7282,1.346
46.7292,1.398
46.7312,1.47
46.7322,1.561
46.7342,1.63
46.7352,1.678
46.7362,1.69
46.7382,1.678
46.7392,1.625
46.7402,1.553
46.7422,1.467
46.7432,1.386
46.7441,1.334
46.7461,1.303
46.7471,1.307
46.7481,1.328
46.7501,1.374
46.7511,1.43
46.7531,1.507
46.7541,1.589
46.7551,1.673
46.7571,1.685
46.7581,1.661
46.7591,1.609
46.7611,1.514
46.7621,1.395
46.7631,1.264
46.7651,1.252
46.7661,1.247
46.7671,1.245
46.7691,1.244
46.7701,1.245
46.7711,1.246
46.7750,1.258
46.7770,1.26
46.7840,1.265
46.7870,1.281
46.7932,1.361
46.7950,1.427
46.7980,1.39
46.7980,1.273
46.7990,1.265
46.7990,1.274
46.7990,1.287
46.8000,1.341
46.8000,1.45
46.8000,1.605
46.8000,1.673
46.8010,1.743
46.8010,1.802
46.8010,1.844
46.8020,1.862
46.8020,1.842
46.8020,1.748
46.8020,1.668
46.8030,1.589
46.8040,1.509
46.8060,1.443
46.8070,1.428
46.8080,1.457
46.8090,1.503
46.8110,1.564
46.8129,1.64
46.8140,1.707
46.8149,1.754
46.8169,1.791
46.8179,1.775
46.8190,1.736
46.8209,1.671
46.8219,1.601
46.8230,1.519
46.8249,1.407
46.8259,1.389
46.8279,1.395
46.8289,1.423
46.8309,1.478
46.8322,1.545
46.8329,1.631
46.8349,1.76
46.8359,1.795
46.8369,1.808
46.8389,1.793
46.8399,1.759
46.8409,1.692
46.8429,1.53
46.8439,1.468
46.8459,1.418
46.8469,1.397
46.8479,1.397
46.8489,1.421
46.8508,1.54
46.8538,1.623
46.8548,1.77
46.8558,1.808
46.8578,1.814
46.8588,1.762
46.8608,1.695
46.8618,1.616
46.8628,1.532
46.8648,1.465
46.8658,1.416
46.8678,1.397
46.8688,1.42
46.8698,1.47
46.8718,1.539
46.8728,1.624
46.8738,1.699
46.8758,1.799
46.8768,1.817
46.8778,1.803
46.8798,1.766
46.8808,1.698
46.8818,1.627
46.8848,1.552
46.8892,1.424
46.8939,1.406
46.9030,1.403
46.9067,1.425
46.9077,1.477
46.9077,1.545
46.9077,1.709
46.9087,1.775
46.9087,1.809
46.9087,1.827
46.9087,1.82
46.9097,1.785
46.9097,1.645
46.9097,1.566
46.9107,1.502
46.9107,1.447
46.9107,1.421
46.9117,1.421
46.9117,1.443
46.9117,1.565
46.9127,1.649
46.9138,1.727
46.9147,1.791
46.9157,1.837
46.9177,1.855
46.9187,1.826
46.9207,1.762
46.9217,1.682
46.9227,1.597
46.9247,1.526
46.9257,1.477
46.9266,1.453
46.9286,1.478
46.9296,1.529
46.9306,1.602
46.9326,1.685
46.9336,1.77
46.9356,1.889
46.9366,1.909
46.9376,1.896
46.9396,1.873
46.9406,1.821
46.9416,1.745
46.9436,1.666
46.9446,1.528
46.9456,1.502
46.9476,1.496
46.9486,1.524
46.9496,1.574
46.9516,1.649
46.9526,1.814
46.9546,1.877
46.9556,1.933
46.9566,1.951
46.9586,1.949
46.9596,1.918
46.9606,1.783
46.9625,1.706
46.9635,1.638
46.9645,1.575
46.9665,1.544
46.9675,1.539
46.9695,1.614
46.9705,1.678
46.9715,1.768
46.9735,1.852
46.9745,1.916
46.9755,1.968
46.9777,1.986
46.9785,1.954
46.9795,1.895
46.9815,1.823
46.9825,1.737
46.9835,1.663
46.9855,1.606
46.9865,1.578
46.9875,1.598
46.9895,1.645
46.9905,1.718
46.9945,1.816
46.9975,1.907
47.0031,1.982
47.0127,2.058
47.0145,2.061
47.0174,2.045
47.0184,1.99
47.0184,1.922
47.0184,1.845
47.0194,1.712
47.0194,1.69
47.0194,1.689
47.0194,1.722
47.0204,1.769
47.0204,1.846
47.0204,1.934
47.0214,2.107
47.0214,2.165
47.0214,2.201
47.0224,2.202
47.0224,2.184
47.0224,2.124
47.0224,1.98
47.0234,1.907
47.0244,1.845
47.0254,1.816
47.0274,1.81
47.0284,1.825
47.0294,1.876
47.0314,2.029
47.0324,2.117
47.0334,2.188
47.0354,2.239
47.0364,2.265
47.0373,2.263
47.0394,2.235
47.0403,2.11
47.0423,2.024
47.0433,1.946
47.0443,1.885
47.0463,1.85
47.0473,1.843
47.0483,1.904
47.0503,1.969
47.0513,2.047
47.0523,2.138
47.0543,2.211
47.0553,2.264
47.0563,2.293
47.0583,2.275
47.0593,2.211
47.0603,2.134
47.0623,2.045
47.0633,1.976
47.0653,1.909
47.0663,1.859
47.0673,1.876
47.0693,1.918
47.0703,1.973
47.0713,2.051
47.0733,2.134
47.0742,2.206
47.0752,2.298
47.0772,2.268
47.0782,2.248
47.0792,2.205
47.0812,2.065
47.0822,2.054
47.0832,1.373
47.0852,1.645
47.0862,1.806
47.0872,1.834
47.0892,1.892
47.0902,1.985
47.0922,2.075
47.0932,2.233
47.0942,2.284
47.0962,2.318
47.0972,2.318
47.0982,2.086
47.1002,2.251
47.1012,2.102
47.1052,2.007
47.1082,1.947
47.1131,1.909
47.1141,1.89
47.1228,1.903
47.1245,1.918
47.1273,2.076
47.1281,2.163
47.1281,2.22
47.1281,2.322
47.1291,2.318
47.1291,2.124
47.1291,2.302
47.1301,2.232
47.1301,2.156
47.1307,2.068
47.1321,2.001
47.1321,1.96
47.1321,1.949
47.1331,1.991
47.1331,2.056
47.1331,2.142
47.1331,2.229
47.1341,2.299
47.1351,2.36
47.1361,2.329
47.1381,2.355
47.1391,2.111
47.1401,2.253
47.1421,2.19
47.1431,2.112
47.1441,2.001
47.1461,1.512
47.1473,1.726
47.1490,1.678
47.1500,1.533
47.1513,1.455
47.1530,1.709
47.1540,1.961
47.1550,1.354
47.1571,1.395
47.1580,1.377
47.1590,1.233
47.1610,1.235
47.1620,1.237
47.1640,1.237
47.1650,1.236
47.1660,1.236
47.1670,1.234
47.1690,1.352
47.1710,1.942
47.1710,2.688
47.1730,2.688
47.1740,2.688
47.1760,2.689
47.1770,2.691
47.1780,2.691
47.1808,1.234
47.1810,1.236
47.1820,1.237
47.1840,1.237
47.1859,1.237
47.1869,1.236
47.1879,1.234
47.1889,2.083
47.1909,2.69
47.1929,2.688
47.1929,2.688
47.1949,2.688
47.1960,2.689
47.1979,2.692
47.1989,1.43
47.2009,1.234
47.2019,1.236
47.2029,1.237
47.2049,1.237
47.2059,1.236
47.2069,1.234
47.2089,1.273
47.2099,2.108
47.2131,2.69
47.2149,2.688
47.2229,2.688
47.2268,2.689
47.2288,2.69
47.2298,2.692
47.2298,1.541
47.2298,1.234
47.2338,1.236
47.2348,1.237
47.2378,1.237
47.2389,1.236
47.2389,1.234
47.2398,1.255
47.2398,2.14
47.2398,2.69
47.2408,2.688
47.2408,2.688
47.2408,2.689
47.2418,2.69
47.2418,2.692
47.2418,1.62
47.2428,1.236
47.2428,1.237
47.2438,1.237
47.2452,1.237
47.2468,1.236
47.2479,1.235
47.2498,1.244
47.2508,2.69
47.2518,2.688
47.2538,2.688
47.2548,2.688
47.2558,2.689
47.2578,2.69
47.2588,1.689
47.2598,1.234
47.2617,1.236
47.2627,1.237
47.2646,1.237
47.2657,1.237
47.2667,1.236
47.2677,1.234
47.2697,1.994
47.2707,2.69
47.2727,2.689
47.2737,2.688
47.2747,2.688
47.2767,2.69
47.2777,2.692
47.2787,1.787
47.2809,1.233
47.2817,1.236
47.2827,1.237
47.2847,1.237
47.2857,1.236
47.2877,1.235
47.2887,1.234
47.2897,2.523
47.2917,2.691
47.2927,2.688
47.2937,1.24
47.2957,1.238
47.2967,1.238
47.2977,1.238
47.2996,1.235
47.3006,1.234
47.3016,1.233
47.3036,1.232
47.3046,1.232
47.3056,1.232
47.3076,1.232
47.3086,1.233
47.3096,1.235
47.3116,1.241
47.3126,1.265
47.3146,1.287
47.3156,1.283
47.3166,1.262
47.3186,1.249
47.3216,1.24
47.3226,1.233
47.3283,1.233
47.3361,1.232
47.3394,1.232
47.3410,1.232
47.3440,1.232
47.3440,1.233
47.3440,1.238
47.3440,1.248
47.3440,1.261
47.3440,1.278
47.3440,1.274
47.3440,1.256
47.3440,1.247
47.3440,1.234
47.3480,1.233
47.3490,1.232
47.3490,1.232
47.3490,1.232
47.3490,1.232
47.3490,1.232
47.3490,1.234
47.3490,1.236
47.3490,1.245
47.3490,1.254
47.3490,1.271
47.3490,1.266
47.3490,1.244
47.3580,1.239
47.3590,1.235
47.3600,1.233
47.3600,1.232
47.3600,1.232
47.3657,1.232
47.3657,1.232
47.3657,1.233
47.3657,1.234
47.3657,1.237
47.3657,1.246
47.3657,1.258
47.3657,1.279
47.3825,1.261
47.3825,1.249
47.3825,1.241
47.3825,1.235
47.3825,1.233
47.3825,1.232
47.3825,1.232
47.3825,1.232
47.3825,1.232
47.3825,1.233
47.3889,1.234
47.3899,1.238
47.3899,1.248
47.3929,1.281
47.3939,1.283
47.3939,1.267
47.3971,1.251
47.3981,1.242
47.4006,1.236
47.4016,1.233
47.4026,1.232
47.4046,1.232
47.4056,1.232
47.4066,1.232
47.4086,1.233
47.4096,1.235
47.4106,1.256
47.4127,1.287
47.4136,1.352
47.4156,1.368
47.4166,1.322
47.4176,1.271
47.4196,1.251
47.4206,1.234
47.4216,1.233
47.4236,1.232
47.4246,1.232
47.4256,1.232
47.4276,1.233
47.4308,1.233
47.4325,1.241
47.4405,1.264
47.4495,1.31
47.4505,1.404
47.4535,1.417
47.4545,1.374
47.4545,1.256
47.4545,1.24
47.4555,1.235
47.4555,1.233
47.4555,1.233
47.4565,1.233
47.4565,1.233
47.4565,1.234
47.4575,1.236
47.4575,1.244
47.4575,1.268
47.4575,1.319
47.4585,1.422
47.4585,1.452
47.4595,1.343
47.4595,1.283
47.4595,1.245
47.4605,1.236
47.4625,1.233
47.4635,1.233
47.4649,1.233
47.4665,1.233
47.4675,1.235
47.4685,1.238
47.4705,1.248
47.4714,1.288
47.4734,1.396
47.4744,1.504
47.4754,1.45
47.4774,1.318
47.4784,1.267
47.4794,1.242
47.4814,1.236
47.4824,1.233
47.4834,1.232
47.4854,1.233
47.4864,1.233
47.4874,1.233
47.4895,1.236
47.4904,1.243
47.4914,1.337
47.4934,1.445
47.4944,1.501
47.4954,1.444
47.4974,1.315
47.4984,1.259
47.5004,1.241
47.5014,1.233
47.5024,1.233
47.5044,1.232
47.5054,1.232
47.5064,1.233
47.5083,1.233
47.5093,1.242
47.5103,1.28
47.5123,1.428
47.5133,1.577
47.5143,1.619
47.5163,1.575
47.5173,1.44
47.5183,1.246
47.5203,1.237
47.5213,1.233
47.5223,1.233
47.5253,1.232
47.5273,1.233
47.5283,1.234
47.5293,1.238
47.5313,1.25
47.5323,1.281
47.5333,1.344
47.5373,1.312
47.5384,1.265
47.5452,1.25
47.5542,1.237
47.5552,1.234
47.5562,1.233
47.5592,1.232
47.5592,1.232
47.5602,1.232
47.5602,1.232
47.5602,1.232
47.5612,1.233
47.5612,1.24
47.5612,1.261
47.5622,1.354
47.5622,1.346
47.5622,1.294
47.5622,1.265
47.5632,1.242
47.5632,1.236
47.5632,1.232
47.5645,1.232
47.5645,1.232
47.5663,1.233
47.5672,1.233
47.5682,1.236
47.5702,1.242
47.5712,1.366
47.5732,1.51
47.5742,1.6
47.5752,1.545
47.5772,1.436
47.5782,1.329
47.5792,1.25
47.5812,1.234
47.5821,1.233
47.5831,1.233
47.5851,1.232
47.5861,1.233
47.5871,1.234
47.5891,1.243
47.5901,1.277
47.5911,1.418
47.5931,1.568
47.5941,1.643
47.5961,1.579
47.5973,1.475
47.5981,1.255
47.6001,1.239
47.6011,1.234
47.6021,1.233
47.6041,1.232
47.6051,1.233
47.6061,1.234
47.6081,1.236
47.6091,1.242
47.6101,1.273
47.6121,1.384
47.6131,1.54
47.6141,1.635
47.6161,1.457
47.6171,1.34
47.6181,1.256
47.6200,1.239
47.6210,1.234
47.6230,1.233
47.6242,1.233
47.6250,1.233
47.6271,1.233
47.6280,1.236
47.6291,1.241
47.6310,1.267
47.6320,1.394
47.6330,1.622
47.6350,1.592
47.6361,1.483
47.6370,1.344
47.6390,1.254
47.6400,1.239
47.6415,1.234
47.6430,1.233
47.6470,1.232
47.6540,1.233
47.6569,1.233
47.6649,1.235
47.6649,1.241
47.6659,1.27
47.6659,1.531
47.6659,1.645
47.6669,1.615
47.6669,1.511
47.6669,1.365
47.6669,1.265
47.6679,1.234
47.6679,1.233
47.6679,1.232
47.6689,1.232
47.6689,1.233
47.6689,1.234
47.6699,1.236
47.6699,1.272
47.6719,1.426
47.6729,1.579
47.6769,1.689
47.6769,1.656
47.6779,1.566
47.6784,1.408
47.6799,1.241
47.6812,1.235
47.6819,1.233
47.6839,1.233
47.6849,1.232
47.6869,1.233
47.6879,1.233
47.6889,1.241
47.6905,1.267
47.6919,1.402
47.6929,1.559
47.6948,1.667
47.6958,1.655
47.6968,1.557
47.6988,1.273
47.6998,1.242
47.7018,1.235
47.7028,1.233
47.7038,1.233
47.7058,1.232
47.7068,1.233
47.7078,1.235
47.7088,1.241
47.7108,1.26
47.7118,1.367
47.7128,1.535
47.7148,1.651
47.7158,1.505
47.7178,1.377
47.7188,1.279
47.7198,1.242
47.7218,1.235
47.7228,1.233
47.7238,1.233
47.7258,1.233
47.7268,1.233
47.7278,1.234
47.7298,1.24
47.7308,1.254
47.7317,1.345
47.7337,1.489
47.7347,1.598
47.7357,1.504
47.7377,1.353
47.7387,1.273
47.7397,1.241
47.7417,1.235
47.7427,1.233
47.7437,1.232
47.7457,1.232
47.7467,1.233
47.7487,1.234
47.7497,1.238
47.7507,1.255
47.7517,1.34
47.7547,1.582
47.7567,1.581
47.7647,1.514
47.7726,1.368
47.7746,1.281
47.7766,1.243
47.7796,1.235
47.7826,1.232
47.7956,1.232
47.7960,1.233
47.7996,1.234
47.7996,1.234
47.7996,1.241
47.8006,1.259
47.8006,1.475
47.8006,1.599
47.8016,1.584
47.8016,1.507
47.8016,1.376
47.8026,1.279
47.8026,1.235
47.8026,1.233
47.8026,1.233
47.8036,1.233
47.8036,1.233
47.8036,1.233
47.8046,1.234
47.8046,1.251
47.8046,1.31
47.8046,1.442
47.8056,1.559
47.8056,1.562
47.8056,1.502
47.8065,1.366
47.8065,1.242
47.8065,1.235
47.8075,1.233
47.8075,1.232
47.8075,1.232
47.8085,1.233
47.8085,1.234
47.8085,1.237
47.8095,1.247
47.8115,1.293
47.8125,1.394
47.8145,1.515
47.8155,1.506
47.8165,1.307
47.8185,1.265
47.8195,1.242
47.8205,1.235
47.8225,1.233
47.8236,1.232
47.8245,1.233
47.8265,1.233
47.8275,1.233
47.8285,1.235
47.8305,1.25
47.8315,1.286
47.8325,1.35
47.8345,1.453
47.8355,1.351
47.8365,1.297
47.8385,1.258
47.8395,1.239
47.8405,1.235
47.8425,1.234
47.8435,1.233
47.8454,1.233
47.8464,1.233
47.8474,1.234
47.8494,1.238
47.8504,1.251
47.8514,1.315
47.8534,1.555
47.8544,1.586
47.8554,1.518
47.8574,1.396
47.8584,1.302
47.8594,1.248
47.8614,1.234
47.8654,1.233
47.8714,1.233
47.8794,1.233
47.8814,1.233
47.8853,1.235
47.8860,1.239
47.8863,1.308
47.8863,1.456
47.8863,1.565
47.8873,1.59
47.8873,1.526
47.8883,1.377
47.8883,1.293
47.8883,1.238
47.8893,1.234
47.8893,1.233
47.8893,1.233
47.8903,1.233
47.8903,1.234
47.8903,1.239
47.8913,1.252
47.8913,1.32
47.8923,1.491
47.8933,1.601
47.8943,1.653
47.8963,1.61
47.8977,1.356
47.8993,1.256
47.9003,1.24
47.9013,1.235
47.9033,1.234
47.9043,1.233
47.9053,1.234
47.9073,1.235
47.9083,1.241
47.9093,1.26
47.9113,1.361
47.9123,1.555
47.9133,1.698
47.9153,1.7
47.9163,1.564
47.9173,1.455
47.9193,1.267
47.9202,1.242
47.9222,1.236
47.9232,1.233
47.9242,1.233
47.9263,1.233
47.9272,1.234
47.9282,1.237
47.9302,1.249
47.9312,1.286
47.9322,1.682
47.9342,1.788
47.9352,1.75
47.9362,1.612
47.9382,1.489
47.9392,1.274
47.9402,1.237
47.9422,1.234
47.9432,1.234
47.9452,1.234
47.9462,1.235
47.9472,1.238
47.9492,1.247
47.9502,1.378
47.9512,1.604
47.9532,1.748
47.9542,1.779
47.9552,1.679
47.9571,1.64
47.9581,1.317
47.9591,1.255
47.9612,1.239
47.9621,1.236
47.9631,1.234
47.9651,1.235
47.9664,1.236
47.9681,1.248
47.9691,1.274
47.9701,1.428
47.9741,1.659
47.9761,1.777
47.9831,1.855
47.9841,1.692
47.9930,1.592
47.9948,1.35
47.9950,1.258
47.9990,1.239
47.9995,1.236
48.0000,1.235
48.0000,1.235
48.0000,1.238
48.0010,1.247
48.0010,1.269
48.0010,1.415
48.0020,1.652
48.0020,1.8
48.0020,1.829
48.0030,1.724
48.0030,1.601
48.0030,1.341
48.0040,1.253
48.0040,1.238
48.0040,1.234
48.0050,1.234
48.0050,1.235
48.0070,1.237
48.0080,1.244
48.0090,1.263
48.0110,1.397
48.0130,1.771
48.0140,1.855
48.0150,1.817
48.0160,1.685
48.0180,1.547
48.0192,1.311
48.0210,1.235
48.0220,1.234
48.0230,1.233
48.0250,1.233
48.0260,1.233
48.0280,1.235
48.0290,1.242
48.0305,1.323
48.0319,1.546
48.0329,1.704
48.0341,1.784
48.0359,1.763
48.0369,1.651
48.0381,1.296
48.0399,1.247
48.0409,1.235
48.0424,1.233
48.0439,1.233
48.0449,1.233
48.0469,1.233
48.0479,1.238
48.0489,1.248
48.0509,1.323
48.0519,1.568
48.0529,1.748
48.0549,1.854
48.0559,1.674
48.0569,1.51
48.0589,1.325
48.0599,1.248
48.0619,1.236
48.0629,1.233
48.0639,1.233
48.0659,1.233
48.0669,1.235
48.0686,1.242
48.0698,1.26
48.0708,1.4
48.0718,1.677
48.0738,1.921
48.0748,1.879
48.0758,1.768
48.0778,1.604
48.0788,1.35
48.0818,1.249
48.0838,1.236
48.0928,1.233
48.0940,1.233
48.1028,1.234
48.1038,1.235
48.1067,1.237
48.1072,1.245
48.1077,1.279
48.1077,1.35
48.1077,1.49
48.1087,1.495
48.1087,1.423
48.1087,1.291
48.1097,1.247
48.1097,1.233
48.1097,1.232
48.1107,1.232
48.1107,1.232
48.1117,1.232
48.1117,1.232
48.1117,1.232
48.1127,1.233
48.1127,1.234
48.1127,1.234
48.1137,1.232
48.1159,1.233
48.1168,1.232
48.1177,1.232
48.1197,1.232
48.1207,1.232
48.1217,1.232
48.1237,1.232
48.1247,1.232
48.1257,1.233
48.1277,1.233
48.1287,1.233
48.1307,1.233
48.1317,1.233
48.1327,1.233
48.1347,1.233
48.1357,1.233
48.1367,1.233
48.1387,1.233
48.1397,1.233
48.1407,1.233
48.1427,1.233
48.1436,1.233
48.1446,1.233
48.1466,1.232
48.1476,1.232
48.1486,1.232
48.1506,1.232
48.1516,1.232
48.1526,1.232
48.1546,1.232
48.1556,1.232
48.1566,1.232
48.1586,1.232
48.1596,1.232
48.1616,1.232
48.1626,1.232
48.1636,1.232
48.1656,1.232
48.1666,1.232
48.1676,1.232
48.1696,1.232
48.1706,1.233
48.1716,1.244
48.1736,1.522
48.1746,1.553
48.1756,1.565
48.1776,1.498
48.1786,1.338
48.1795,1.263
48.1815,1.234
48.1825,1.233
48.1855,1.234
48.1875,1.235
48.1935,1.237
48.2035,1.243
48.2055,1.314
48.2085,1.905
48.2095,2.117
48.2135,2.247
48.2274,2.151
48.2285,1.549
48.2311,1.374
48.2314,1.248
48.2324,1.237
48.2324,1.234
48.2324,1.233
48.2334,1.234
48.2334,1.238
48.2334,1.268
48.2334,1.433
48.2344,1.739
48.2344,1.926
48.2344,2.021
48.2354,2.02
48.2354,1.749
48.2354,1.509
48.2364,1.266
48.2364,1.237
48.2364,1.233
48.2364,1.233
48.2374,1.232
48.2374,1.233
48.2374,1.233
48.2384,1.238
48.2384,1.284
48.2384,1.586
48.2384,1.839
48.2394,1.968
48.2394,1.918
48.2394,1.774
48.2404,1.587
48.2404,1.322
48.2404,1.247
48.2426,1.234
48.2434,1.234
48.2454,1.235
48.2464,1.237
48.2474,1.241
48.2494,1.283
48.2504,1.467
48.2514,2.005
48.2534,2.162
48.2544,2.178
48.2553,2.104
48.2573,1.91
48.2583,1.74
48.2593,1.252
48.2613,1.238
48.2623,1.235
48.2633,1.234
48.2653,1.235
48.2663,1.237
48.2683,1.241
48.2693,1.394
48.2703,1.72
48.2723,1.944
48.2733,2.059
48.2743,2.08
48.2763,2.01
48.2773,1.638
48.2783,1.321
48.2803,1.248
48.2813,1.236
48.2823,1.234
48.2842,1.233
48.2852,1.234
48.2862,1.237
48.2889,1.252
48.2899,1.316
48.2909,1.584
48.2929,1.823
48.2939,1.957
48.2949,1.906
48.2969,1.725
48.2979,1.581
48.2989,1.289
48.3029,1.243
48.3109,1.235
48.3198,1.234
48.3218,1.233
48.3248,1.234
48.3258,1.236
48.3258,1.246
48.3268,1.284
48.3268,1.506
48.3268,1.892
48.3278,1.934
48.3278,1.859
48.3278,1.682
48.3288,1.511
48.3288,1.268
48.3288,1.241
48.3298,1.233
48.3305,1.233
48.3308,1.233
48.3308,1.234
48.3318,1.235
48.3318,1.243
48.3328,1.266
48.3328,1.646
48.3338,1.777
48.3348,1.829
48.3358,1.74
48.3368,1.576
48.3388,1.43
48.3398,1.238
48.3408,1.234
48.3428,1.233
48.3438,1.232
48.3448,1.233
48.3468,1.234
48.3478,1.235
48.3488,1.255
48.3508,1.38
48.3518,1.628
48.3531,1.766
48.3547,1.823
48.3557,1.732
48.3577,1.614
48.3588,1.267
48.3597,1.244
48.3610,1.235
48.3627,1.234
48.3638,1.233
48.3657,1.233
48.3667,1.234
48.3677,1.244
48.3697,1.261
48.3707,1.408
48.3717,1.642
48.3737,1.767
48.3747,1.841
48.3757,1.766
48.3777,1.497
48.3787,1.28
48.3797,1.243
48.3817,1.235
48.3827,1.234
48.3837,1.233
48.3857,1.234
48.3867,1.235
48.3877,1.244
48.3897,1.258
48.3907,1.369
48.3926,1.602
48.3936,1.75
48.3946,1.766
48.3966,1.64
48.3976,1.505
48.3986,1.283
48.4006,1.243
48.4016,1.235
48.4026,1.234
48.4046,1.233
48.4056,1.233
48.4096,1.235
48.4166,1.241
48.4226,1.251
48.4246,1.342
48.4276,1.582
48.4305,1.792
48.4305,1.74
48.4316,1.619
48.4316,1.461
48.4325,1.277
48.4325,1.241
48.4335,1.235
48.4335,1.233
48.4335,1.233
48.4335,1.233
48.4335,1.234
48.4345,1.239
48.4345,1.249
48.4345,1.318
48.4345,1.654
48.4345,1.743
48.4355,1.686
48.4365,1.563
48.4375,1.419
48.4395,1.271
48.4405,1.234
48.4415,1.233
48.4435,1.233
48.4445,1.233
48.4455,1.233
48.4475,1.234
48.4485,1.238
48.4495,1.297
48.4515,1.491
48.4525,1.634
48.4535,1.731
48.4556,1.67
48.4565,1.562
48.4575,1.413
48.4595,1.241
48.4605,1.235
48.4615,1.233
48.4635,1.232
48.4645,1.233
48.4664,1.233
48.4674,1.234
48.4684,1.244
48.4705,1.282
48.4714,1.456
48.4724,1.589
48.4744,1.691
48.4754,1.643
48.4764,1.406
48.4785,1.28
48.4795,1.241
48.4805,1.235
48.4825,1.233
48.4835,1.233
48.4845,1.233
48.4865,1.234
48.4875,1.236
48.4885,1.243
48.4906,1.263
48.4916,1.383
48.4936,1.547
48.4946,1.603
48.4956,1.507
48.4976,1.385
48.4986,1.278
48.4996,1.241
48.5016,1.234
48.5027,1.233
48.5037,1.233
48.5057,1.233
48.5067,1.234
48.5077,1.235
48.5097,1.243
48.5107,1.276
48.5117,1.573
48.5137,1.69
48.5147,1.661
48.5157,1.565
48.5206,1.413
48.5246,1.291
48.5296,1.244
48.5393,1.233
48.5410,1.233
48.5436,1.233
48.5440,1.233
48.5446,1.234
48.5446,1.235
48.5446,1.274
48.5446,1.432
48.5456,1.594
48.5456,1.708
48.5456,1.671
48.5456,1.598
48.5466,1.435
48.5466,1.244
48.5476,1.235
48.5480,1.233
48.5486,1.233
48.5496,1.233
48.5496,1.233
48.5496,1.235
48.5506,1.243
48.5506,1.269
48.5516,1.419
48.5526,1.566
48.5536,1.694
48.5557,1.675
48.5567,1.424
48.5577,1.301
48.5597,1.246
48.5607,1.236
48.5616,1.234
48.5637,1.233
48.5656,1.233
48.5666,1.234
48.5676,1.235
48.5686,1.243
48.5706,1.264
48.5716,1.401
48.5726,1.559
48.5746,1.647
48.5756,1.589
48.5766,1.428
48.5787,1.308
48.5798,1.246
48.5807,1.236
48.5827,1.234
48.5837,1.233
48.5847,1.233
48.5867,1.234
48.5877,1.235
48.5897,1.242
48.5907,1.265
48.5917,1.542
48.5937,1.674
48.5947,1.668
48.5957,1.572
48.5977,1.417
48.5987,1.298
48.5997,1.246
48.6017,1.233
48.6027,1.233
48.6037,1.233
48.6056,1.233
48.6066,1.234
48.6076,1.235
48.6096,1.272
48.6106,1.404
48.6116,1.561
48.6137,1.658
48.6146,1.617
48.6166,1.506
48.6176,1.364
48.6186,1.242
48.6206,1.236
48.6216,1.233
48.6226,1.233
48.6246,1.233
48.6256,1.233
48.6266,1.236
48.6306,1.245
48.6346,1.272
48.6397,1.412
48.6492,1.557
48.6526,1.649
48.6532,1.634
48.6536,1.364
48.6536,1.285
48.6536,1.245
48.6547,1.236
48.6547,1.234
48.6547,1.233
48.6547,1.233
48.6557,1.234
48.6557,1.236
48.6557,1.246
48.6557,1.272
48.6567,1.422
48.6567,1.588
48.6567,1.651
48.6577,1.579
48.6577,1.395
48.6577,1.289
48.6597,1.246
48.6608,1.236
48.6618,1.234
48.6638,1.233
48.6648,1.233
48.6658,1.234
48.6676,1.236
48.6686,1.244
48.6696,1.269
48.6718,1.559
48.6731,1.652
48.6748,1.665
48.6758,1.585
48.6768,1.399
48.6789,1.298
48.6800,1.247
48.6810,1.233
48.6819,1.233
48.6840,1.233
48.6841,1.233
48.6877,1.233
48.6882,1.236
48.6882,1.262
48.6918,1.385
48.6918,1.562
48.6946,1.665
48.6947,1.665
48.6957,1.596
48.6977,1.426
48.6998,1.246
48.6998,1.237
48.7027,1.234
48.7037,1.233
48.7037,1.233
48.7060,1.233
48.7071,1.235
48.7081,1.242
48.7112,1.262
48.7112,1.376
48.7122,1.541
48.7137,1.65
48.7147,1.676
48.7169,1.468
48.7181,1.365
48.7191,1.252
48.7218,1.238
48.7222,1.234
48.7233,1.233
48.7253,1.233
48.7262,1.233
48.7262,1.235
48.7299,1.239
48.7309,1.249
48.7309,1.317
48.7332,1.501
48.7342,1.68
48.7424,1.602
48.7547,1.49
48.7720,1.372
48.7760,1.251
48.7813,1.239
48.7822,1.234
48.7835,1.232
48.7835,1.233
48.7845,1.233
48.7855,1.234
48.7855,1.239
48.7865,1.249
48.7865,1.475
48.7875,1.617
48.7875,1.678
48.7886,1.617
48.7886,1.478
48.7897,1.363
48.7907,1.252
48.7907,1.234
48.7917,1.233
48.7917,1.233
48.7927,1.233
48.7938,1.233
48.7938,1.234
48.7949,1.247
48.7949,1.296
48.7959,1.466
48.7959,1.611
48.7978,1.665
48.7988,1.618
48.7988,1.496
48.8000,1.252
48.8000,1.239
48.8011,1.235
48.8011,1.233
48.8021,1.233
48.8021,1.233
48.8031,1.233
48.8041,1.238
48.8041,1.247
48.8052,1.299
48.8052,1.467
48.8063,2.395
48.8063,2.691
48.8073,2.691
48.8073,2.691
48.8083,2.691
48.8083,2.691
48.8093,2.691
48.8103,2.691
48.8104,2.691
48.8104,2.691
48.8114,2.691
48.8124,2.691
48.8125,2.691
48.8134,2.691
48.8144,2.691
48.8154,2.691
48.8166,2.691
48.8166,2.691
48.8176,2.691
48.8186,2.691
48.8218,2.691
48.8228,2.691
48.8228,2.691
48.8259,2.691
48.8270,2.691
48.8279,2.691
48.8290,2.691
48.8298,2.691
48.8319,2.691
48.8330,2.675
48.8338,2.691
48.8369,2.573
48.8379,1.574
48.8379,1.381
48.8409,1.24
48.8419,1.235
48.8419,1.233
48.8451,1.233
48.8624,1.233
48.8759,1.233
48.8788,1.237
48.8850,1.243
48.8858,1.272
48.8868,1.403
48.8868,1.526
48.8878,1.916
48.8888,2.691
48.8888,2.691
48.8898,2.691
48.8898,2.691
48.8910,2.691
48.8920,2.691
48.8920,2.691
48.8930,2.691
48.8930,2.691
48.8940,2.691
48.8940,2.691
48.8950,2.691
48.8950,2.691
48.8960,2.691
48.8973,2.691
48.8980,2.691
48.8990,2.691
48.9000,2.691
48.9000,2.691
48.9010,2.691
48.9010,2.691
48.9022,2.691
48.9022,2.691
48.9032,2.691
48.9032,2.691
48.9042,2.691
48.9042,2.691
48.9052,2.691
48.9052,2.691
48.9062,2.691
48.9072,2.691
48.9074,2.691
48.9074,2.691
48.9084,2.691
48.9084,2.691
48.9094,2.691
48.9094,2.691
48.9104,2.691
48.9114,2.691
48.9114,2.691
48.9125,2.691
48.9125,2.691
48.9146,2.691
48.9155,2.691
48.9165,2.691
48.9175,2.691
48.9209,2.691
48.9218,2.691
48.9228,2.691
48.9243,2.691
48.9253,2.691
48.9280,2.691
48.9280,2.144
48.9290,2.348
48.9302,2.691
48.9313,2.691
48.9323,2.652
48.9358,2.323
48.9368,1.589
48.9368,1.418
48.9399,1.294
48.9410,1.245
48.9420,1.234
48.9429,1.233
48.9439,1.233
48.9463,1.233
48.9471,1.234
48.9474,1.235
48.9499,2.123
48.9509,2.691
48.9561,2.691
48.9700,2.691
48.9719,2.691
48.9863,2.691
48.9893,2.691
48.9943,2.691
48.9956,2.691
48.9963,2.691
48.9963,2.691
48.9973,2.691
48.9993,2.691
48.9993,2.691
49.0003,2.691
49.0003,2.691
49.0015,2.691
49.0015,2.691
49.0025,2.691
49.0025,2.691
49.0035,2.691
49.0035,2.691
49.0045,2.691
49.0055,2.691
49.0055,2.691
49.0065,2.692
49.0065,2.691
49.0077,2.691
49.0077,2.691
49.0087,2.691
49.0087,2.691
49.0097,2.692
49.0097,2.691
49.0107,2.692
49.0107,2.691
49.0117,2.691
49.0127,2.691
49.0127,2.692
49.0137,2.691
49.0137,2.691
49.0157,2.691
49.0157,2.691
49.0167,2.691
49.0167,2.691
49.0177,2.691
49.0187,2.691
49.0189,2.692
49.0189,2.691
49.0199,2.691
49.0209,2.691
49.0209,2.691
49.0219,2.692
49.0219,2.691
49.0229,2.691
49.0229,2.692
49.0241,2.692
49.0251,2.692
49.0279,2.691
49.0289,2.691
49.0299,2.691
49.0311,2.691
49.0320,2.692
49.0342,2.691
49.0353,2.692
49.0353,2.692
49.0384,2.691
49.0393,2.692
49.0402,2.691
49.0416,2.691
49.0428,2.692
49.0438,2.692
49.0456,2.691
49.0469,2.691
49.0480,2.691
49.0504,2.692
49.0514,2.691
49.0514,2.692
49.0538,2.691
49.0547,2.691
49.0581,2.691
49.0581,2.692
49.0591,2.691
49.0611,2.692
49.0671,2.692
49.0795,2.692
49.0955,2.692
49.1004,2.692
49.1056,2.691
49.1066,2.692
49.1076,2.692
49.1086,2.692
49.1096,2.692
49.1096,2.692
49.1110,2.692
49.1118,2.692
49.1126,2.692
49.1136,2.691
49.1156,2.692
49.1168,2.692
49.1176,2.692
49.1178,2.692
49.1186,2.691
49.1196,2.692
49.1196,2.692
49.1206,2.692
49.1216,2.692
49.1226,2.692
49.1236,2.692
49.1246,2.692
49.1256,2.692
49.1266,2.692
49.1276,2.692
49.1286,2.692
49.1296,2.692
49.1306,2.692
49.1314,2.692
49.1326,2.692
49.1336,2.692
49.1346,2.692
49.1346,2.692
49.1356,2.692
49.1366,2.692
49.1376,2.692
49.1386,2.692
49.1396,2.692
49.1406,2.692
49.1416,2.692
49.1425,2.692
49.1425,2.692
49.1435,2.692
49.1445,2.692
49.1455,2.692
49.1465,2.692
49.1475,2.692
49.1485,2.692
49.1495,2.692
49.1505,2.692
49.1515,2.692
49.1525,2.692
49.1536,2.692
49.1536,2.692
49.1547,2.692
49.1547,2.692
49.1555,2.692
49.1565,2.692
49.1565,2.692
49.1575,2.692
49.1575,2.692
49.1585,2.692
49.1585,2.692
49.1595,2.692
49.1595,2.692
49.1605,2.692
49.1605,2.692
49.1615,2.692
49.1625,2.692
49.1625,2.692
49.1635,2.692
49.1635,2.692
49.1645,2.692
49.1655,2.692
49.1686,2.692
49.1696,2.692
49.1747,2.692
49.1886,2.692
49.1908,2.692
49.2065,2.692
49.2105,2.692
49.2155,2.692
49.2166,2.692
49.2175,2.692
49.2175,2.692
49.2185,2.692
49.2195,2.692
49.2195,2.692
49.2205,2.692
49.2205,2.692
49.2215,2.692
49.2215,2.692
49.2225,2.692
49.2225,2.692
49.2235,2.692
49.2235,2.692
49.2245,2.692
49.2245,2.692
49.2255,2.692
49.2255,2.692
49.2264,2.692
49.2274,2.692
49.2274,2.692
49.2284,2.692
49.2284,2.692
49.2294,2.692
49.2294,2.692
49.2304,2.692
49.2314,2.692
49.2327,2.692
49.2334,2.692
49.2344,2.692
49.2344,2.692
49.2354,2.692
49.2354,2.692
49.2364,2.692
49.2364,2.692
49.2374,2.692
49.2374,2.692
49.2384,2.692
49.2384,2.692
49.2384,2.692
49.2394,2.692
49.2394,2.692
49.2394,2.692
49.2404,2.692
49.2404,2.692
49.2404,2.692
49.2414,2.692
49.2414,2.692
49.2436,2.692
49.2444,2.692
49.2468,2.692
49.2475,2.692
49.2485,2.692
49.2508,2.692
49.2517,2.692
49.2527,2.692
49.2548,2.692
49.2557,2.692
49.2567,2.692
49.2599,2.692
49.2599,2.692
49.2609,2.692
49.2631,2.692
49.2640,2.692
49.2649,2.692
49.2670,2.692
49.2679,2.692
49.2709,2.692
49.2709,2.692
49.2709,2.692
49.2742,2.692
49.2748,2.692
49.2758,2.692
49.2792,2.692
49.2822,2.692
49.2912,2.692
49.3032,2.692
49.3051,2.692
49.3081,2.692
49.3091,2.692
49.3091,2.692
49.3101,2.692
