6.2244,1.700677
6.2260,1.697489
6.2260,1.695427
6.2270,1.692239
6.2280,1.691302
6.2459,1.691302
6.2619,1.690552
6.2639,1.691114
6.2679,1.694677
6.2731,1.696927
6.2898,1.699552
6.3108,1.703864
6.3148,1.706115
6.3194,1.708177
6.3207,1.709302
6.3357,1.709302
6.3437,1.708552
6.3487,1.707427
6.3496,1.70499
6.3496,1.701427
6.3506,1.697302
6.3516,1.695052
6.3516,1.692614
6.3526,1.692427
6.3526,1.691114
6.3536,1.691114
6.3536,1.691489
6.3581,1.693552
6.3746,1.696177
6.3856,1.700489
6.3885,1.704802
6.3925,1.70649
6.3935,1.708177
6.3945,1.710052
6.3957,1.710052
6.3965,1.709865
6.3975,1.708177
6.3975,1.70499
6.3985,1.701239
6.3985,1.698239
6.3995,1.695614
6.4005,1.692052
6.4005,1.691302
6.4015,1.690927
6.4015,1.690927
6.4027,1.691302
6.4035,1.693177
6.4045,1.699739
6.4055,1.704052
6.4065,1.706865
6.4065,1.70724
6.4075,1.708552
6.4085,1.709115
6.4095,1.707427
6.4095,1.705364
6.4105,1.705364
6.4125,1.700864
6.4135,1.698052
6.4145,1.694864
6.4155,1.693177
6.4165,1.691489
6.4165,1.690927
6.4175,1.691489
6.4175,1.692802
6.4186,1.696364
6.4186,1.696364
6.4195,1.700114
6.4195,1.70499
6.4205,1.705552
6.4205,1.707802
6.4205,1.709115
6.4215,1.710052
6.4215,1.70799
6.4225,1.705739
6.4245,1.701989
6.4245,1.701989
6.4255,1.698614
6.4255,1.695239
6.4265,1.692239
6.4265,1.691114
6.4275,1.690739
6.4275,1.689989
6.4284,1.693177
6.4294,1.696739
6.4294,1.701052
6.4304,1.701052
6.4304,1.704239
6.4304,1.707427
6.4314,1.708927
6.4314,1.709115
6.4314,1.70949
6.4324,1.708365
6.4324,1.705739
6.4324,1.701989
6.4334,1.697677
6.4334,1.697677
6.4334,1.695614
6.4344,1.692052
6.4344,1.692614
6.4354,1.691302
6.4354,1.692052
6.4360,1.692989
6.4364,1.696739
6.4364,1.699927
6.4384,1.704052
6.4384,1.704052
6.4384,1.70649
6.4394,1.708365
6.4394,1.70874
6.4394,1.709865
6.4404,1.70799
6.4404,1.705927
6.4404,1.702739
6.4414,1.698802
6.4414,1.698802
6.4414,1.695614
6.4424,1.693739
6.4424,1.691489
6.4424,1.691677
6.4424,1.692052
6.4434,1.693739
6.4438,1.696739
6.4444,1.700864
6.4444,1.703864
6.4444,1.703864
6.4454,1.706302
6.4454,1.709115
6.4454,1.709302
6.4464,1.71024
6.4464,1.708177
6.4464,1.706115
6.4464,1.702364
6.4474,1.698802
6.4474,1.695802
6.4484,1.695802
6.4484,1.693552
6.4484,1.691864
6.4494,1.691677
6.4494,1.692239
6.4494,1.693177
6.4494,1.697489
6.4504,1.700114
6.4504,1.70499
6.4510,1.708365
6.4514,1.708365
6.4514,1.71024
6.4524,1.709302
6.4534,1.709865
6.4534,1.70874
6.4534,1.705739
6.4534,1.702364
6.4544,1.698989
6.4544,1.696552
6.4544,1.692989
6.4554,1.692989
6.4554,1.692614
6.4554,1.690927
6.4554,1.691489
6.4564,1.693927
6.4564,1.695614
6.4564,1.699927
6.4564,1.704427
6.4574,1.706677
6.4574,1.706677
6.4574,1.70874
6.4574,1.70949
6.4584,1.710615
6.4594,1.70874
6.4623,1.705927
6.4693,1.701802
6.4763,1.699177
6.4793,1.695614
6.4793,1.692802
6.4803,1.692802
6.4813,1.692614
6.4823,1.691864
6.4823,1.692052
6.4823,1.693739
6.4833,1.695989
6.4833,1.700302
6.4833,1.704427
6.4833,1.705927
6.4843,1.708365
6.4843,1.708365
6.4843,1.70949
6.4843,1.709865
6.4853,1.708927
6.4853,1.706677
6.4853,1.701802
6.4853,1.698989
6.4863,1.695052
6.4863,1.693552
6.4863,1.692239
6.4874,1.692239
6.4874,1.691677
6.4883,1.691489
6.4883,1.694677
6.4894,1.697489
6.4894,1.700302
6.4894,1.704239
6.4894,1.705927
6.4903,1.709115
6.4903,1.709865
6.4913,1.709865
6.4913,1.710615
6.4913,1.709115
6.4923,1.706302
6.4923,1.703864
6.4923,1.698802
6.4923,1.695989
6.4933,1.692802
6.4933,1.692239
6.4933,1.691864
6.4941,1.691864
6.4943,1.691677
6.4956,1.693552
6.4973,1.696364
6.4973,1.699927
6.4973,1.704052
6.4983,1.70724
6.4983,1.70949
6.4983,1.711177
6.4993,1.711177
6.4993,1.713052
6.4993,1.710802
6.5002,1.708552
6.5002,1.702739
6.5002,1.699364
6.5002,1.695614
6.5012,1.692614
6.5012,1.692427
6.5012,1.692239
6.5020,1.692239
6.5022,1.691302
6.5032,1.693739
6.5032,1.696739
6.5032,1.701052
6.5032,1.704802
6.5042,1.706677
6.5042,1.709115
6.5042,1.709865
6.5053,1.710427
6.5053,1.710427
6.5053,1.709302
6.5053,1.707052
6.5062,1.702364
6.5062,1.698427
6.5062,1.696177
6.5062,1.693177
6.5072,1.692427
6.5072,1.692052
6.5072,1.691114
6.5072,1.691114
6.5082,1.693177
6.5082,1.696177
6.5082,1.700864
6.5092,1.705177
6.5093,1.707052
6.5102,1.709302
6.5113,1.711552
6.5114,1.71174
6.5122,1.708177
6.5122,1.708177
6.5122,1.706115
6.5132,1.703115
6.5132,1.699552
6.5132,1.695239
6.5132,1.693552
6.5143,1.692052
6.5143,1.691489
6.5143,1.691677
6.5152,1.692614
6.5152,1.692614
6.5152,1.696927
6.5152,1.700302
6.5162,1.70499
6.5165,1.706677
6.5172,1.709677
6.5172,1.711365
6.5182,1.710802
6.5182,1.708927
6.5182,1.708927
6.5182,1.707802
6.5192,1.702927
6.5192,1.700114
6.5192,1.697677
6.5192,1.695989
6.5202,1.693739
6.5202,1.693364
6.5202,1.692239
6.5202,1.692802
6.5212,1.692802
6.5212,1.696739
6.5212,1.701239
6.5222,1.70349
6.5222,1.706865
6.5222,1.710052
6.5222,1.709677
6.5232,1.71099
6.5232,1.709865
6.5232,1.70724
6.5242,1.70724
6.5252,1.701989
6.5252,1.700114
6.5252,1.695802
6.5262,1.693927
6.5262,1.691677
6.5262,1.692052
6.5272,1.690927
6.5272,1.693739
6.5272,1.696177
6.5292,1.696177
6.5302,1.701239
6.5312,1.705177
6.5323,1.708552
6.5332,1.712115
6.5342,1.71099
6.5352,1.71174
6.5364,1.709302
6.5380,1.70649
6.5388,1.703115
6.5404,1.703115
6.5408,1.700489
6.5419,1.695614
6.5429,1.694114
6.5438,1.692239
6.5451,1.690364
6.5458,1.691489
6.5468,1.693927
6.5478,1.696739
6.5499,1.701802
6.5508,1.701802
6.5518,1.705177
6.5529,1.708552
6.5538,1.709677
6.5548,1.710802
6.5558,1.71099
6.5569,1.710427
6.5579,1.707052
6.5589,1.702739
6.5599,1.702739
6.5607,1.699739
6.5619,1.696364
6.5627,1.692614
6.5639,1.692239
6.5647,1.691114
6.5657,1.692802
6.5667,1.694677
6.5677,1.700114
6.5699,1.703115
6.5709,1.703115
6.5719,1.70649
6.5729,1.707802
6.5739,1.70949
6.5750,1.71024
6.5758,1.710427
6.5779,1.710615
6.5858,1.707615
6.5918,1.704615
6.5958,1.701052
6.5998,1.701052
6.6008,1.696739
6.6097,1.694114
6.6105,1.692614
6.6127,1.691489
6.6151,1.691489
6.6157,1.693552
6.6157,1.697677
6.6157,1.702177
6.6157,1.705927
6.6167,1.705927
6.6167,1.706677
6.6167,1.710427
6.6177,1.711552
6.6177,1.712865
6.6177,1.710615
6.6177,1.709865
6.6187,1.70499
6.6187,1.700864
6.6187,1.695802
6.6187,1.695802
6.6197,1.692989
6.6197,1.692614
6.6197,1.692427
6.6197,1.691677
6.6207,1.693364
6.6207,1.697864
6.6207,1.701614
6.6217,1.705364
6.6217,1.705364
6.6217,1.707615
6.6217,1.71099
6.6227,1.711365
6.6227,1.712865
6.6227,1.711365
6.6237,1.70799
6.6237,1.704052
6.6237,1.700489
6.6237,1.695989
6.6247,1.695989
6.6247,1.694864
6.6247,1.693364
6.6257,1.691677
6.6257,1.693927
6.6268,1.695614
6.6287,1.698427
6.6297,1.702552
6.6307,1.705552
6.6319,1.707615
6.6329,1.707615
6.6339,1.712677
6.6349,1.71099
6.6359,1.71174
6.6369,1.711177
6.6379,1.70874
6.6389,1.703677
6.6399,1.700677
6.6409,1.696927
6.6419,1.693177
6.6429,1.693177
6.6439,1.691864
6.6450,1.691302
6.6462,1.690739
6.6462,1.692989
6.6470,1.696739
6.6500,1.700489
6.6508,1.705927
6.6519,1.708177
6.6529,1.710802
6.6538,1.710802
6.6549,1.71099
6.6559,1.71249
6.6568,1.710427
6.6578,1.707427
6.6588,1.703115
6.6599,1.701614
6.6608,1.698052
6.6618,1.694302
6.6628,1.693177
6.6638,1.693177
6.6648,1.691677
6.6658,1.692802
6.6668,1.693552
6.6688,1.697489
6.6698,1.701614
6.6705,1.705739
6.6718,1.708365
6.6728,1.711365
6.6738,1.711365
6.6748,1.711552
6.6758,1.71249
6.6768,1.710802
6.6778,1.709115
6.6788,1.704239
6.6798,1.701052
6.6808,1.697114
6.6818,1.694302
6.6827,1.693364
6.6837,1.693364
6.6847,1.692239
6.6857,1.692802
6.6867,1.694677
6.6877,1.697302
6.6899,1.703115
6.6899,1.707802
6.6938,1.71024
6.7057,1.712677
6.7071,1.71324
6.7187,1.71324
6.7227,1.71249
6.7227,1.71174
6.7236,1.709115
6.7236,1.704615
6.7236,1.701989
6.7247,1.697114
6.7247,1.694864
6.7257,1.692989
6.7257,1.692239
6.7267,1.692239
6.7267,1.691489
6.7276,1.694302
6.7277,1.697489
6.7291,1.701614
6.7296,1.705364
6.7306,1.708177
6.7306,1.71024
6.7316,1.710802
6.7316,1.711927
6.7326,1.711927
6.7326,1.710802
6.7336,1.709115
6.7336,1.704802
6.7346,1.701802
6.7346,1.699927
6.7356,1.697114
6.7356,1.694864
6.7366,1.693177
6.7366,1.692802
6.7376,1.692802
6.7376,1.695052
6.7376,1.697489
6.7386,1.701427
6.7386,1.704802
6.7396,1.70799
6.7396,1.710802
6.7406,1.712115
6.7406,1.712302
6.7416,1.712302
6.7416,1.711552
6.7426,1.708177
6.7426,1.70499
6.7436,1.702364
6.7436,1.697489
6.7447,1.695052
6.7447,1.693927
6.7456,1.691677
6.7466,1.693364
6.7466,1.693364
6.7476,1.694864
6.7487,1.697489
6.7499,1.701239
6.7506,1.705364
6.7518,1.708177
6.7529,1.711552
6.7538,1.711927
6.7549,1.711365
6.7559,1.71099
6.7569,1.71099
6.7579,1.709115
6.7588,1.704615
6.7598,1.701614
6.7608,1.697302
6.7619,1.695239
6.7628,1.694114
6.7641,1.692052
6.7648,1.692802
6.7658,1.694677
6.7679,1.694677
6.7688,1.697677
6.7698,1.701239
6.7708,1.704427
6.7717,1.707427
6.7728,1.711365
6.7737,1.710615
6.7749,1.712115
6.7759,1.71099
6.7768,1.708927
6.7778,1.708927
6.7789,1.704052
6.7798,1.702552
6.7809,1.698427
6.7818,1.695052
6.7828,1.693177
6.7838,1.691864
6.7849,1.691302
6.7858,1.693739
6.7892,1.696927
6.7918,1.696927
6.8028,1.700864
6.8037,1.704615
6.8158,1.707615
6.8199,1.709677
6.8200,1.710615
6.8207,1.711552
6.8207,1.71024
6.8217,1.708365
6.8217,1.708365
6.8227,1.704615
6.8240,1.702364
6.8240,1.697489
6.8247,1.695614
6.8247,1.691677
6.8258,1.692052
6.8258,1.691864
6.8268,1.693739
6.8268,1.698239
6.8268,1.698239
6.8281,1.701989
6.8288,1.704427
6.8299,1.706677
6.8308,1.710052
6.8319,1.71024
6.8319,1.712302
6.8328,1.711177
6.8328,1.707802
6.8338,1.704427
6.8338,1.704427
6.8348,1.702739
6.8348,1.696552
6.8358,1.694302
6.8358,1.693364
6.8368,1.691864
6.8378,1.691114
6.8378,1.692989
6.8388,1.696364
6.8388,1.699739
6.8398,1.699739
6.8398,1.702927
6.8408,1.706302
6.8408,1.70874
6.8408,1.71024
6.8418,1.710615
6.8418,1.709677
6.8430,1.70724
6.8430,1.70349
6.8442,1.700489
6.8460,1.700489
6.8460,1.695989
6.8469,1.694489
6.8469,1.692052
6.8479,1.690927
6.8479,1.690739
6.8491,1.694489
6.8491,1.697677
6.8501,1.700302
6.8501,1.703302
6.8501,1.703302
6.8518,1.705927
6.8521,1.708552
6.8541,1.709677
6.8548,1.710052
6.8558,1.709115
6.8568,1.708177
6.8579,1.704052
6.8589,1.700114
6.8603,1.700114
6.8610,1.695052
6.8619,1.692802
6.8629,1.691489
6.8640,1.690177
6.8650,1.689801
6.8661,1.692052
6.8669,1.694677
6.8690,1.698802
6.8699,1.702364
6.8709,1.702364
6.8719,1.704802
6.8728,1.707615
6.8738,1.708365
6.8747,1.710427
6.8758,1.710802
6.8767,1.708552
6.8777,1.703677
6.8791,1.699739
6.8796,1.695052
6.8806,1.695052
6.8816,1.692802
6.8828,1.690364
6.8836,1.688676
6.8846,1.689239
6.8867,1.691302
6.8879,1.693552
6.8887,1.698239
6.8896,1.701614
6.8907,1.704052
6.8916,1.704052
6.8927,1.70724
6.8937,1.707427
6.8947,1.70874
6.8959,1.708365
6.8967,1.704802
6.8978,1.701989
6.8990,1.698052
6.9000,1.694677
6.9009,1.691114
6.9019,1.691114
6.9029,1.689989
6.9065,1.688114
6.9120,1.690364
6.9310,1.691864
6.9332,1.692427
6.9375,1.697864
6.9384,1.701239
6.9384,1.705177
6.9384,1.707052
6.9394,1.707052
6.9394,1.706865
6.9406,1.70874
6.9406,1.707427
6.9416,1.705177
6.9416,1.701802
6.9416,1.698239
6.9426,1.694114
6.9426,1.691677
6.9436,1.691677
6.9436,1.689239
6.9446,1.688302
6.9456,1.686989
6.9456,1.690177
6.9468,1.692427
6.9468,1.696364
6.9478,1.700864
6.9478,1.703677
6.9488,1.706677
6.9488,1.706677
6.9498,1.707427
6.9498,1.707802
6.9498,1.707802
6.9508,1.70499
6.9508,1.701052
6.9519,1.697114
6.9519,1.695052
6.9519,1.692052
6.9529,1.688864
6.9529,1.688864
6.9540,1.686802
6.9540,1.686989
6.9549,1.689989
6.9549,1.691489
6.9559,1.696364
6.9559,1.699927
6.9569,1.703115
6.9570,1.706302
6.9570,1.706865
6.9581,1.706865
6.9581,1.707052
6.9591,1.707052
6.9591,1.704802
6.9601,1.701052
6.9601,1.697489
6.9601,1.693177
6.9611,1.689989
6.9620,1.688676
6.9631,1.686802
6.9641,1.686802
6.9659,1.686051
6.9659,1.689239
6.9679,1.692427
6.9687,1.697302
6.9699,1.701802
6.9709,1.70349
6.9719,1.705739
6.9729,1.706115
6.9741,1.707052
6.9749,1.707052
6.9759,1.70649
6.9769,1.703864
6.9778,1.699927
6.9788,1.697302
6.9800,1.692052
6.9810,1.688864
6.9820,1.687551
6.9830,1.686614
6.9840,1.686614
6.9850,1.686427
6.9860,1.688114
6.9871,1.690739
6.9880,1.694677
6.9900,1.698614
6.9900,1.702552
6.9914,1.705552
6.9928,1.706302
6.9939,1.707427
6.9950,1.707427
6.9960,1.705927
6.9971,1.703677
6.9980,1.701427
6.9989,1.698052
6.9999,1.692052
7.0009,1.689614
7.0019,1.686989
7.0031,1.687927
7.0031,1.686614
7.0042,1.686614
7.0069,1.688302
7.0080,1.691302
7.0088,1.694489
7.0099,1.698239
7.0109,1.701989
7.0128,1.704427
7.0136,1.70649
7.0186,1.70649
7.0289,1.703115
7.0391,1.703115
7.0432,1.699364
7.0442,1.695989
7.0452,1.691677
7.0462,1.690927
7.0472,1.687364
7.0476,1.686989
7.0482,1.686239
7.0482,1.687927
7.0482,1.690177
7.0494,1.690177
7.0502,1.695239
7.0502,1.698052
7.0502,1.700864
7.0512,1.704052
7.0512,1.705927
7.0522,1.708552
7.0522,1.706677
7.0533,1.702739
7.0534,1.700114
7.0534,1.700114
7.0544,1.696739
7.0544,1.693739
7.0554,1.690177
7.0554,1.687927
7.0564,1.687176
7.0564,1.686427
7.0574,1.687739
7.0574,1.690927
7.0584,1.694114
7.0584,1.694114
7.0584,1.697489
7.0595,1.702364
7.0595,1.704802
7.0605,1.704615
7.0605,1.705927
7.0616,1.70499
7.0625,1.703864
7.0635,1.701052
7.0635,1.696364
7.0635,1.696364
7.0645,1.691489
7.0645,1.691489
7.0657,1.689614
7.0657,1.688489
7.0667,1.688864
7.0667,1.689427
7.0667,1.690364
7.0677,1.693739
7.0689,1.693739
7.0699,1.697489
7.0710,1.701802
7.0721,1.704052
7.0729,1.70499
7.0739,1.706865
7.0748,1.705927
7.0759,1.70349
7.0772,1.699739
7.0782,1.696927
7.0790,1.696927
7.0800,1.691864
7.0810,1.689989
7.0830,1.687551
7.0832,1.686614
7.0847,1.686989
7.0859,1.687927
7.0869,1.689614
7.0879,1.694489
7.0891,1.698239
7.0899,1.698239
7.0910,1.701614
7.0918,1.70349
7.0930,1.705552
7.0940,1.708177
7.0950,1.705364
7.0960,1.704615
7.0968,1.701427
7.0979,1.696927
7.0988,1.692989
7.1000,1.692989
7.1011,1.690552
7.1029,1.687551
7.1039,1.686614
7.1049,1.686051
7.1060,1.688114
7.1060,1.689427
7.1080,1.694302
7.1089,1.696927
7.1100,1.701052
7.1113,1.701052
7.1119,1.703864
7.1130,1.704239
7.1139,1.70499
7.1149,1.705177
7.1159,1.703115
7.1170,1.701239
7.1181,1.696364
7.1190,1.692802
7.1200,1.692802
7.1210,1.690552
7.1220,1.688676
7.1250,1.688676
7.1371,1.688302
7.1471,1.689052
7.1516,1.690364
7.1537,1.695239
7.1546,1.698427
7.1556,1.700864
7.1556,1.700864
7.1569,1.70349
7.1579,1.704802
7.1591,1.706677
7.1599,1.705364
7.1599,1.704052
7.1599,1.700864
7.1609,1.695989
7.1619,1.693364
7.1630,1.690739
7.1639,1.690739
7.1639,1.688489
7.1649,1.687927
7.1668,1.687551
7.1678,1.687739
7.1678,1.689989
7.1688,1.694302
7.1690,1.697489
7.1690,1.701802
7.1701,1.704615
7.1701,1.704615
7.1711,1.706865
7.1711,1.706302
7.1720,1.706302
7.1733,1.703677
7.1742,1.701052
7.1742,1.697114
7.1751,1.693177
7.1751,1.691302
7.1761,1.688302
7.1761,1.688302
7.1770,1.688114
7.1770,1.686614
7.1780,1.687739
7.1786,1.690177
7.1799,1.694302
7.1801,1.697677
7.1820,1.701052
7.1820,1.704239
7.1830,1.705364
7.1830,1.705364
7.1840,1.70649
7.1840,1.706302
7.1852,1.703864
7.1852,1.701239
7.1852,1.696927
7.1864,1.694302
7.1882,1.693364
7.1882,1.689614
7.1892,1.689614
7.1892,1.690364
7.1892,1.687364
7.1902,1.687927
7.1902,1.690552
7.1914,1.694489
7.1914,1.697677
7.1924,1.703115
7.1924,1.703677
7.1931,1.70499
7.1934,1.70499
7.1944,1.706865
7.1963,1.706115
7.1963,1.704615
7.1975,1.701614
7.1975,1.697302
7.1986,1.693739
7.1996,1.691302
7.2015,1.687927
7.2025,1.687364
7.2036,1.687364
7.2048,1.687739
7.2059,1.689427
7.2069,1.690927
7.2079,1.694864
7.2092,1.697677
7.2109,1.702552
7.2119,1.70499
7.2119,1.705364
7.2129,1.707427
7.2139,1.707427
7.2150,1.707615
7.2160,1.703864
7.2171,1.70349
7.2181,1.698427
7.2191,1.693927
7.2202,1.691302
7.2212,1.687739
7.2222,1.687551
7.2233,1.685864
7.2252,1.685864
7.2252,1.688302
7.2268,1.690739
7.2280,1.694864
7.2288,1.698052
7.2298,1.701989
7.2308,1.704615
7.2368,1.705364
7.2561,1.706677
7.2585,1.70649
7.2640,1.70649
7.2649,1.704802
7.2649,1.701427
7.2660,1.698614
7.2670,1.694302
7.2681,1.691114
7.2691,1.688489
7.2691,1.688489
7.2700,1.686989
7.2700,1.686989
7.2700,1.689052
7.2712,1.691489
7.2712,1.694864
7.2722,1.697677
7.2722,1.701989
7.2732,1.706115
7.2739,1.707427
7.2742,1.707052
7.2761,1.707052
7.2761,1.707052
7.2773,1.70499
7.2783,1.702927
7.2783,1.698239
7.2794,1.694677
7.2804,1.692052
7.2805,1.688676
7.2814,1.688676
7.2823,1.687551
7.2835,1.689427
7.2835,1.689427
7.2846,1.691302
7.2846,1.694864
7.2855,1.697677
7.2855,1.701239
7.2855,1.704615
7.2865,1.705927
7.2865,1.70799
7.2878,1.708177
7.2878,1.705927
7.2895,1.705927
7.2906,1.702177
7.2915,1.697677
7.2915,1.694114
7.2925,1.692052
7.2925,1.688302
7.2925,1.688676
7.2935,1.687551
7.2935,1.689052
7.2948,1.690927
7.2955,1.690927
7.2965,1.694489
7.2975,1.697489
7.2985,1.701614
7.2985,1.704427
7.2995,1.706677
7.2995,1.707427
7.3006,1.706115
7.3006,1.704427
7.3006,1.704427
7.3017,1.702364
7.3026,1.698427
7.3026,1.694489
7.3036,1.691677
7.3056,1.690177
7.3056,1.690364
7.3066,1.688114
7.3068,1.689052
7.3068,1.691114
7.3078,1.691114
7.3078,1.694864
7.3088,1.698427
7.3097,1.701802
7.3107,1.704239
7.3127,1.705739
7.3127,1.707052
7.3138,1.70724
7.3147,1.705552
7.3157,1.702739
7.3167,1.702739
7.3178,1.698239
7.3197,1.693552
7.3207,1.691864
7.3218,1.689427
7.3230,1.688114
7.3237,1.687364
7.3250,1.688676
7.3260,1.690552
7.3270,1.694114
7.3280,1.694114
7.3291,1.697302
7.3297,1.70349
7.3309,1.706677
7.3319,1.708177
7.3343,1.707615
7.3343,1.705364
7.3350,1.705364
7.3360,1.701802
7.3370,1.697302
7.3380,1.697302
7.3390,1.694302
7.3399,1.691677
7.3450,1.689052
7.3570,1.688676
7.3700,1.687927
7.3740,1.688676
7.3751,1.691302
7.3761,1.694489
7.3780,1.698052
7.3790,1.698052
7.3800,1.702552
7.3800,1.704239
7.3810,1.70499
7.3810,1.70724
7.3820,1.707615
7.3820,1.70499
7.3824,1.702177
7.3830,1.699927
7.3840,1.699927
7.3840,1.695052
7.3851,1.693364
7.3851,1.690364
7.3861,1.689427
7.3861,1.688114
7.3861,1.689614
7.3871,1.691114
7.3871,1.694677
7.3881,1.699177
7.3881,1.699177
7.3891,1.701802
7.3891,1.704239
7.3891,1.705927
7.3905,1.706865
7.3911,1.706677
7.3931,1.705927
7.3931,1.702739
7.3941,1.698989
7.3946,1.694489
7.3951,1.694489
7.3964,1.692239
7.3971,1.689239
7.3978,1.688676
7.3981,1.687739
7.3981,1.689614
7.3991,1.690739
7.3991,1.695052
7.4001,1.697864
7.4001,1.702739
7.4011,1.702739
7.4011,1.704052
7.4022,1.705927
7.4023,1.706865
7.4023,1.707802
7.4033,1.707802
7.4033,1.703864
7.4043,1.699177
7.4049,1.695427
7.4076,1.692239
7.4082,1.692239
7.4082,1.689614
7.4092,1.689052
7.4092,1.688489
7.4102,1.688676
7.4102,1.690364
7.4113,1.693739
7.4113,1.697489
7.4122,1.701614
7.4132,1.704427
7.4143,1.704427
7.4143,1.705364
7.4153,1.707052
7.4153,1.707615
7.4163,1.705177
7.4163,1.702552
7.4163,1.699177
7.4173,1.695239
7.4184,1.693177
7.4204,1.693177
7.4217,1.689052
7.4224,1.690739
7.4234,1.690177
7.4249,1.690739
7.4259,1.692427
7.4269,1.696177
7.4280,1.698614
7.4289,1.701239
7.4301,1.704427
7.4309,1.704427
7.4319,1.705364
7.4328,1.706302
7.4348,1.706677
7.4368,1.705177
7.4368,1.702364
7.4378,1.697677
7.4378,1.694489
7.4388,1.692802
7.4408,1.689239
7.4418,1.689239
7.4434,1.688302
7.4434,1.687927
7.4445,1.688114
7.4454,1.690552
7.4468,1.695052
7.4479,1.698239
7.4490,1.701239
7.4518,1.703302
7.4540,1.705364
7.4669,1.705364
7.4800,1.70724
7.4830,1.706302
7.4849,1.706115
7.4869,1.702364
7.4869,1.698802
7.4880,1.694864
7.4880,1.691864
7.4880,1.689801
7.4890,1.689052
7.4890,1.689052
7.4902,1.688302
7.4902,1.688864
7.4911,1.689614
7.4916,1.693739
7.4921,1.697302
7.4931,1.701614
7.4953,1.703864
7.4961,1.705364
7.4971,1.705364
7.4971,1.70649
7.4971,1.70649
7.4981,1.705364
7.4981,1.701989
7.4991,1.698614
7.4991,1.694677
7.5002,1.692052
7.5013,1.689239
7.5021,1.689052
7.5021,1.689052
7.5031,1.687551
7.5031,1.689239
7.5041,1.690177
7.5041,1.693177
7.5051,1.697677
7.5051,1.701802
7.5061,1.70499
7.5061,1.705739
7.5071,1.706115
7.5071,1.706115
7.5081,1.707052
7.5100,1.705364
7.5100,1.702739
7.5112,1.698052
7.5112,1.694114
7.5122,1.691677
7.5131,1.689427
7.5131,1.688114
7.5141,1.687927
7.5141,1.687927
7.5150,1.688114
7.5160,1.690739
7.5160,1.693177
7.5160,1.696552
7.5171,1.700677
7.5171,1.703302
7.5171,1.70499
7.5182,1.705739
7.5182,1.705927
7.5182,1.705927
7.5192,1.704615
7.5192,1.703115
7.5192,1.700302
7.5202,1.696177
7.5202,1.691302
7.5202,1.689052
7.5214,1.687551
7.5223,1.688114
7.5242,1.688114
7.5242,1.688114
7.5252,1.690739
7.5262,1.693739
7.5282,1.697114
7.5282,1.702177
7.5294,1.703115
7.5304,1.703677
7.5319,1.705364
7.5329,1.706677
7.5339,1.706677
7.5351,1.704239
7.5361,1.701989
7.5371,1.697864
7.5382,1.695239
7.5394,1.690927
7.5406,1.689427
7.5418,1.688302
7.5429,1.686614
7.5440,1.687739
7.5459,1.687739
7.5466,1.691114
7.5471,1.693739
7.5481,1.697677
7.5488,1.700677
7.5499,1.703864
7.5509,1.70349
7.5521,1.704615
7.5529,1.704052
7.5539,1.703864
7.5549,1.703864
7.5559,1.703302
7.5569,1.697489
7.5581,1.694302
7.5591,1.691677
7.5632,1.689239
7.5755,1.688489
7.5887,1.686614
7.5919,1.687739
7.5930,1.689427
7.5938,1.689427
7.5938,1.691864
7.5958,1.695427
7.5968,1.699364
7.5968,1.701614
7.5979,1.704052
7.5979,1.704239
7.5988,1.70499
7.5988,1.703302
7.5998,1.701614
7.5998,1.701614
7.5998,1.697489
7.6008,1.693927
7.6016,1.691302
7.6018,1.688302
7.6028,1.686989
7.6038,1.686051
7.6038,1.687739
7.6048,1.688114
7.6048,1.692052
7.6058,1.692052
7.6058,1.695427
7.6058,1.699927
7.6068,1.701427
7.6078,1.705739
7.6078,1.704802
7.6088,1.704802
7.6088,1.702927
7.6100,1.699552
7.6108,1.699552
7.6118,1.697302
7.6128,1.693927
7.6128,1.690364
7.6138,1.688302
7.6138,1.687551
7.6148,1.686239
7.6148,1.686802
7.6148,1.688302
7.6161,1.692239
7.6161,1.692239
7.6168,1.695052
7.6176,1.698614
7.6177,1.700677
7.6177,1.702739
7.6187,1.703677
7.6187,1.704427
7.6197,1.703115
7.6197,1.700677
7.6207,1.696552
7.6207,1.696552
7.6207,1.693927
7.6217,1.691489
7.6217,1.689614
7.6227,1.688302
7.6227,1.687176
7.6240,1.685489
7.6248,1.687364
7.6259,1.690364
7.6267,1.693927
7.6278,1.693927
7.6287,1.698614
7.6298,1.699177
7.6307,1.701989
7.6317,1.70349
7.6327,1.703677
7.6338,1.702552
7.6348,1.699739
7.6357,1.696552
7.6367,1.693927
7.6387,1.693927
7.6396,1.689989
7.6406,1.687364
7.6417,1.686051
7.6426,1.684926
7.6436,1.685489
7.6447,1.686614
7.6466,1.689427
7.6466,1.693177
7.6476,1.697302
7.6489,1.697302
7.6500,1.700489
7.6509,1.701614
7.6519,1.702739
7.6529,1.70349
7.6539,1.702177
7.6549,1.699552
7.6559,1.695802
7.6569,1.692802
7.6589,1.692802
7.6594,1.688114
7.6609,1.685864
7.6619,1.684551
7.6619,1.683801
7.6639,1.685489
7.6649,1.686802
7.6659,1.689427
7.6669,1.693177
7.6679,1.696364
7.6729,1.696364
7.6842,1.698427
7.6949,1.701802
7.6978,1.701989
7.7009,1.702552
7.7022,1.701052
7.7028,1.699739
7.7028,1.696927
7.7038,1.692239
7.7048,1.688114
7.7048,1.688114
7.7058,1.685676
7.7063,1.684739
7.7068,1.683426
7.7068,1.683426
7.7078,1.685489
7.7078,1.688489
7.7089,1.692239
7.7089,1.695614
7.7098,1.696927
7.7098,1.696927
7.7098,1.700114
7.7108,1.700302
7.7119,1.701802
7.7128,1.700864
7.7138,1.698989
7.7148,1.694677
7.7148,1.691302
7.7158,1.687927
7.7158,1.685489
7.7158,1.685489
7.7168,1.684926
7.7168,1.683239
7.7178,1.683051
7.7178,1.686802
7.7188,1.690364
7.7188,1.692989
7.7188,1.694489
7.7198,1.697302
7.7198,1.699927
7.7208,1.699927
7.7208,1.701427
7.7228,1.700489
7.7228,1.700114
7.7238,1.697864
7.7238,1.693927
7.7249,1.691114
7.7249,1.687739
7.7258,1.684551
7.7258,1.684551
7.7268,1.683051
7.7268,1.683426
7.7268,1.682864
7.7280,1.684364
7.7288,1.686989
7.7298,1.691677
7.7298,1.694114
7.7308,1.696177
7.7318,1.699177
7.7318,1.699177
7.7328,1.699927
7.7328,1.701239
7.7338,1.701802
7.7348,1.699177
7.7358,1.693364
7.7367,1.690364
7.7390,1.686802
7.7397,1.684551
7.7408,1.683426
7.7418,1.683426
7.7428,1.681551
7.7438,1.681926
7.7448,1.683239
7.7458,1.686427
7.7469,1.689989
7.7478,1.693364
7.7488,1.695802
7.7502,1.698239
7.7509,1.698239
7.7520,1.698239
7.7529,1.697864
7.7540,1.697864
7.7549,1.695989
7.7559,1.692427
7.7576,1.690364
7.7586,1.685301
7.7596,1.683426
7.7607,1.682864
7.7615,1.680801
7.7627,1.680801
7.7635,1.681176
7.7646,1.683614
7.7657,1.686051
7.7670,1.688489
7.7678,1.693177
7.7687,1.694302
7.7698,1.697864
7.7707,1.699552
7.7720,1.699552
7.7731,1.698239
7.7740,1.697114
7.7770,1.695989
7.7781,1.689614
7.7786,1.685489
7.7792,1.682301
7.7809,1.681551
7.7819,1.680614
7.7830,1.680614
7.7841,1.682114
7.7851,1.682114
7.7891,1.684551
7.8017,1.688302
7.8119,1.691864
7.8168,1.693927
7.8178,1.696739
7.8178,1.697677
7.8187,1.698614
7.8187,1.696364
7.8198,1.694677
7.8198,1.694677
7.8207,1.691864
7.8207,1.688302
7.8217,1.684364
7.8217,1.682676
7.8217,1.681551
7.8229,1.680614
7.8229,1.680239
7.8239,1.681551
7.8239,1.685489
7.8239,1.685489
7.8249,1.688302
7.8249,1.691114
7.8259,1.692989
7.8259,1.696177
7.8269,1.696177
7.8269,1.698614
7.8279,1.696177
7.8289,1.694864
7.8299,1.690177
7.8299,1.690177
7.8299,1.688864
7.8309,1.684176
7.8309,1.682114
7.8319,1.680801
7.8319,1.680614
7.8329,1.679114
7.8329,1.681176
7.8329,1.683801
7.8339,1.686802
7.8339,1.686802
7.8349,1.690927
7.8349,1.693177
7.8359,1.695989
7.8361,1.696552
7.8361,1.698239
7.8369,1.698614
7.8379,1.696177
7.8379,1.692239
7.8379,1.687927
7.8389,1.687927
7.8389,1.683051
7.8399,1.680801
7.8409,1.679864
7.8418,1.678176
7.8428,1.678364
7.8438,1.678364
7.8458,1.683051
7.8468,1.686051
7.8468,1.686051
7.8479,1.691114
7.8488,1.693552
7.8498,1.695614
7.8508,1.695802
7.8530,1.697677
7.8538,1.695239
7.8548,1.694114
7.8558,1.688864
7.8568,1.685301
7.8580,1.685301
7.8588,1.681551
7.8600,1.679864
7.8607,1.678926
7.8617,1.677051
7.8639,1.678176
7.8647,1.680801
7.8647,1.684176
7.8658,1.685489
7.8674,1.690177
7.8678,1.690177
7.8688,1.692989
7.8698,1.694489
7.8707,1.695802
7.8728,1.696177
7.8737,1.695427
7.8748,1.693177
7.8757,1.689427
7.8767,1.685676
7.8780,1.681926
7.8797,1.681926
7.8807,1.678926
7.8847,1.677801
7.8858,1.676114
7.8867,1.676676
7.8877,1.678364
7.9017,1.681364
7.9106,1.685114
7.9116,1.689052
7.9126,1.691302
7.9138,1.691302
7.9186,1.694489
7.9196,1.694677
7.9200,1.696927
7.9206,1.695802
7.9206,1.692239
7.9216,1.688114
7.9226,1.684551
7.9236,1.680239
7.9246,1.680239
7.9246,1.677801
7.9256,1.677239
7.9267,1.675364
7.9267,1.676676
7.9297,1.677614
7.9307,1.680989
7.9307,1.684926
7.9316,1.688489
7.9326,1.690739
7.9335,1.690739
7.9336,1.693364
7.9345,1.694114
7.9345,1.694677
7.9356,1.694114
7.9356,1.691864
7.9366,1.687551
7.9375,1.685114
7.9386,1.680239
7.9386,1.678176
7.9395,1.678176
7.9395,1.677989
7.9406,1.675176
7.9415,1.674614
7.9425,1.677239
7.9425,1.679864
7.9436,1.683989
7.9436,1.687176
7.9458,1.691114
7.9465,1.694114
7.9475,1.694114
7.9496,1.693927
7.9505,1.693927
7.9505,1.693552
7.9515,1.690739
7.9515,1.687364
7.9525,1.683239
7.9535,1.679489
7.9539,1.676489
7.9546,1.674801
7.9555,1.674801
7.9555,1.674051
7.9565,1.674426
7.9575,1.675926
7.9575,1.678739
7.9585,1.682864
7.9585,1.686614
7.9597,1.689239
7.9597,1.692614
7.9605,1.693552
7.9625,1.693552
7.9637,1.694489
7.9645,1.692427
7.9645,1.689801
7.9655,1.687176
7.9675,1.685301
7.9684,1.679864
7.9684,1.675926
7.9696,1.674801
7.9696,1.674801
7.9706,1.672926
7.9718,1.673676
7.9725,1.675739
7.9734,1.678551
7.9745,1.681176
7.9745,1.686051
7.9754,1.688489
7.9759,1.691677
7.9765,1.692427
7.9774,1.692427
7.9774,1.692802
7.9796,1.692052
7.9805,1.689614
7.9814,1.685489
7.9824,1.682301
7.9835,1.678176
7.9846,1.675739
7.9855,1.673864
7.9864,1.672739
7.9864,1.672739
7.9874,1.673489
7.9884,1.675739
7.9884,1.679114
7.9894,1.683051
7.9904,1.686051
7.9914,1.687364
7.9924,1.690177
7.9924,1.690552
7.9974,1.691864
7.9994,1.691864
8.0004,1.691489
8.0004,1.688676
8.0014,1.685301
8.0143,1.681739
8.0234,1.677989
8.0243,1.675926
8.0253,1.673676
8.0253,1.672551
8.0264,1.673301
8.0264,1.673301
8.0283,1.673489
8.0303,1.676864
8.0306,1.680801
8.0313,1.683989
8.0323,1.687176
8.0333,1.689989
8.0343,1.689614
8.0363,1.690927
8.0377,1.690739
8.0383,1.690739
8.0413,1.688302
8.0425,1.686051
8.0432,1.680989
8.0432,1.677426
8.0442,1.674614
8.0452,1.673864
8.0468,1.671426
8.0472,1.671988
8.0482,1.671988
8.0492,1.674426
8.0492,1.676301
8.0502,1.680239
8.0502,1.683239
8.0513,1.686614
8.0513,1.689614
8.0522,1.690177
8.0522,1.690364
8.0532,1.690739
8.0532,1.690739
8.0532,1.688114
8.0542,1.684364
8.0542,1.680801
8.0552,1.676301
8.0552,1.673864
8.0562,1.673114
8.0562,1.671051
8.0572,1.671051
8.0572,1.672551
8.0572,1.672551
8.0582,1.675176
8.0582,1.678739
8.0592,1.681551
8.0592,1.685301
8.0602,1.688302
8.0602,1.689427
8.0612,1.691114
8.0614,1.690552
8.0632,1.686989
8.0632,1.686989
8.0642,1.683426
8.0642,1.679864
8.0652,1.675551
8.0652,1.672739
8.0652,1.671614
8.0662,1.670676
8.0662,1.670488
8.0673,1.671801
8.0673,1.674051
8.0682,1.674051
8.0682,1.677989
8.0692,1.681551
8.0692,1.684176
8.0702,1.688114
8.0702,1.688114
8.0728,1.689052
8.0732,1.688676
8.0732,1.686051
8.0748,1.686051
8.0757,1.681176
8.0766,1.677989
8.0776,1.674801
8.0787,1.672364
8.0797,1.672364
8.0806,1.672176
8.0821,1.670301
8.0826,1.670488
8.0837,1.673114
8.0846,1.673114
8.0857,1.677614
8.0867,1.680239
8.0877,1.683989
8.0887,1.686614
8.0897,1.687364
8.0917,1.688864
8.0926,1.687739
8.0936,1.685489
8.0946,1.682864
8.0956,1.682864
8.0966,1.677801
8.0977,1.673489
8.0989,1.672364
8.0999,1.670114
8.1009,1.668801
8.1019,1.669176
8.1033,1.670676
8.1039,1.673114
8.1068,1.676489
8.1108,1.676489
8.1308,1.679676
8.1328,1.685489
8.1338,1.686239
8.1378,1.686427
8.1384,1.687927
8.1388,1.687364
8.1388,1.684551
8.1397,1.681551
8.1404,1.677989
8.1408,1.677989
8.1417,1.674239
8.1417,1.671801
8.1427,1.669551
8.1427,1.668051
8.1437,1.667301
8.1437,1.668426
8.1457,1.672551
8.1458,1.676114
8.1470,1.679676
8.1470,1.679676
8.1487,1.682489
8.1487,1.685301
8.1497,1.686051
8.1497,1.687176
8.1507,1.686614
8.1507,1.684926
8.1507,1.680989
8.1518,1.676676
8.1518,1.676676
8.1528,1.672364
8.1528,1.670488
8.1538,1.668988
8.1538,1.667113
8.1549,1.667301
8.1557,1.669738
8.1557,1.673301
8.1567,1.677614
8.1567,1.680239
8.1578,1.680239
8.1588,1.682301
8.1588,1.684551
8.1597,1.684739
8.1597,1.686802
8.1607,1.685676
8.1607,1.683989
8.1627,1.680614
8.1637,1.676489
8.1637,1.671801
8.1647,1.671801
8.1647,1.670114
8.1657,1.668238
8.1657,1.666363
8.1667,1.666551
8.1667,1.667863
8.1677,1.670488
8.1677,1.673864
8.1677,1.677989
8.1687,1.680614
8.1698,1.680614
8.1707,1.683614
8.1707,1.683989
8.1717,1.686051
8.1727,1.685114
8.1739,1.684926
8.1747,1.681176
8.1759,1.677426
8.1767,1.672364
8.1777,1.669926
8.1786,1.669926
8.1798,1.666176
8.1808,1.666176
8.1820,1.665988
8.1828,1.666738
8.1847,1.670114
8.1847,1.673114
8.1855,1.676489
8.1865,1.679676
8.1875,1.682489
8.1898,1.682489
8.1905,1.683989
8.1915,1.684551
8.1925,1.684176
8.1948,1.681364
8.1955,1.678926
8.1965,1.674801
8.1965,1.670488
8.1978,1.668238
8.1999,1.668238
8.2009,1.666176
8.2018,1.665051
8.2018,1.663926
8.2028,1.664863
8.2049,1.670676
8.2059,1.674051
8.2059,1.675551
8.2069,1.677239
8.2079,1.681176
8.2089,1.681176
8.2113,1.683051
8.2119,1.683801
8.2129,1.683051
8.2139,1.680989
8.2139,1.676489
8.2159,1.673301
8.2169,1.671239
8.2181,1.668613
8.2189,1.666176
8.2239,1.666176
8.2259,1.663926
8.2389,1.663738
8.2479,1.665238
8.2515,1.666926
8.2548,1.671426
8.2551,1.675551
8.2558,1.678739
8.2562,1.680801
8.2568,1.681739
8.2578,1.681739
8.2578,1.683801
8.2589,1.681926
8.2589,1.679864
8.2599,1.677051
8.2599,1.674614
8.2609,1.669363
8.2619,1.667113
8.2629,1.665988
8.2639,1.664488
8.2641,1.664488
8.2648,1.663551
8.2658,1.665613
8.2658,1.666176
8.2669,1.670864
8.2669,1.674051
8.2669,1.677051
8.2678,1.680426
8.2678,1.680051
8.2692,1.681739
8.2692,1.681739
8.2698,1.681364
8.2698,1.679489
8.2708,1.676676
8.2708,1.672926
8.2718,1.668426
8.2728,1.666738
8.2738,1.662988
8.2738,1.663738
8.2748,1.663738
8.2748,1.662613
8.2758,1.663551
8.2758,1.666738
8.2758,1.669551
8.2768,1.674614
8.2768,1.676676
8.2780,1.678926
8.2798,1.679114
8.2798,1.680989
8.2808,1.680989
8.2808,1.680989
8.2818,1.678551
8.2818,1.674989
8.2828,1.671988
8.2828,1.667863
8.2828,1.665426
8.2838,1.662988
8.2838,1.662051
8.2848,1.661301
8.2853,1.661301
8.2858,1.662988
8.2858,1.665238
8.2868,1.669738
8.2868,1.671801
8.2878,1.675364
8.2878,1.677989
8.2899,1.678739
8.2908,1.681176
8.2929,1.678926
8.2939,1.678926
8.2949,1.677614
8.2959,1.677051
8.2959,1.669176
8.2969,1.667863
8.2989,1.664863
8.2989,1.661863
8.2999,1.661863
8.3010,1.659426
8.3026,1.660738
8.3029,1.660738
8.3041,1.664488
8.3050,1.668426
8.3059,1.671239
8.3069,1.674051
8.3079,1.677051
8.3109,1.677614
8.3123,1.678551
8.3129,1.679301
8.3129,1.679301
8.3139,1.675364
8.3151,1.672176
8.3157,1.668988
8.3167,1.665613
8.3178,1.662801
8.3187,1.660926
8.3197,1.660551
8.3207,1.659988
8.3231,1.660926
8.3239,1.660926
8.3289,1.663551
8.3411,1.666738
8.3510,1.668426
8.3560,1.673114
8.3570,1.676489
8.3575,1.676489
8.3580,1.679489
8.3588,1.679301
8.3590,1.676301
8.3600,1.676301
8.3600,1.672364
8.3600,1.669363
8.3620,1.665238
8.3620,1.663363
8.3630,1.659613
8.3630,1.659613
8.3640,1.658676
8.3640,1.660176
8.3650,1.662426
8.3660,1.662426
8.3670,1.666176
8.3670,1.668801
8.3680,1.672551
8.3680,1.675364
8.3690,1.676489
8.3690,1.677426
8.3699,1.676301
8.3699,1.674989
8.3699,1.671801
8.3709,1.671801
8.3709,1.667863
8.3719,1.664113
8.3719,1.662801
8.3729,1.658676
8.3734,1.659426
8.3739,1.660176
8.3749,1.660926
8.3749,1.661113
8.3749,1.665238
8.3759,1.665238
8.3759,1.668051
8.3769,1.671614
8.3769,1.674801
8.3779,1.674801
8.3790,1.676301
8.3800,1.676864
8.3800,1.674426
8.3810,1.671614
8.3810,1.666738
8.3820,1.666738
8.3820,1.664301
8.3830,1.661301
8.3830,1.658301
8.3840,1.658488
8.3840,1.658113
8.3850,1.658301
8.3850,1.661301
8.3859,1.664863
8.3859,1.664863
8.3859,1.667488
8.3870,1.671239
8.3879,1.673489
8.3901,1.676301
8.3901,1.677239
8.3922,1.677426
8.3929,1.673301
8.3941,1.670488
8.3949,1.666551
8.3959,1.666551
8.3969,1.663551
8.3979,1.659801
8.3991,1.658301
8.3999,1.657926
8.4020,1.656801
8.4031,1.656988
8.4031,1.659426
8.4041,1.661676
8.4051,1.665988
8.4061,1.665988
8.4071,1.670488
8.4082,1.671614
8.4090,1.672926
8.4110,1.674426
8.4120,1.673676
8.4130,1.671614
8.4130,1.669926
8.4148,1.666363
8.4158,1.662613
8.4168,1.662613
8.4178,1.659238
8.4188,1.656988
8.4198,1.657176
8.4208,1.656801
8.4218,1.657551
8.4228,1.660926
8.4238,1.664676
8.4248,1.665426
8.4258,1.668238
8.4269,1.668238
8.4288,1.671239
8.4328,1.671239
8.4447,1.673114
8.4537,1.673301
8.4560,1.671239
8.4597,1.668613
8.4617,1.665426
8.4630,1.662801
8.4637,1.659426
8.4637,1.659426
8.4647,1.656988
8.4654,1.657176
8.4657,1.656238
8.4657,1.656051
8.4667,1.657738
8.4667,1.660926
8.4677,1.663738
8.4677,1.668801
8.4687,1.668801
8.4687,1.670301
8.4697,1.671988
8.4697,1.672551
8.4707,1.673114
8.4707,1.671614
8.4717,1.668426
8.4717,1.664488
8.4729,1.660551
8.4729,1.660363
8.4737,1.660363
8.4737,1.657176
8.4747,1.654176
8.4747,1.653988
8.4756,1.654363
8.4756,1.657363
8.4756,1.661301
8.4766,1.663738
8.4766,1.666738
8.4783,1.671239
8.4786,1.671239
8.4799,1.671239
8.4799,1.673114
8.4807,1.672176
8.4807,1.669551
8.4816,1.667113
8.4816,1.663363
8.4826,1.660551
8.4826,1.657363
8.4826,1.654926
8.4837,1.654926
8.4837,1.654738
8.4847,1.654176
8.4847,1.654551
8.4856,1.657176
8.4856,1.660738
8.4862,1.665613
8.4867,1.668613
8.4876,1.670864
8.4888,1.671239
8.4897,1.671239
8.4906,1.672926
8.4917,1.673114
8.4926,1.670488
8.4936,1.668801
8.4946,1.663176
8.4956,1.659238
8.4967,1.657176
8.4976,1.654176
8.4987,1.6538
8.4998,1.6538
8.5009,1.652488
8.5018,1.6538
8.5028,1.656801
8.5038,1.659801
8.5048,1.662613
8.5058,1.667113
8.5079,1.669363
8.5086,1.670676
8.5099,1.670676
8.5109,1.673114
8.5120,1.671614
8.5131,1.669926
8.5139,1.667113
8.5149,1.663176
8.5169,1.659988
8.5169,1.657926
8.5179,1.655676
8.5189,1.652488
8.5199,1.652488
8.5210,1.651738
8.5219,1.653613
8.5229,1.655488
8.5239,1.659426
8.5251,1.662426
8.5262,1.667676
8.5269,1.669551
8.5280,1.670676
8.5289,1.672739
8.5311,1.672739
8.5311,1.671614
8.5329,1.670301
8.5339,1.667113
8.5349,1.662988
8.5359,1.659426
