56.8292,1.677614
56.8304,1.680051
56.8309,1.682864
56.8314,1.687927
56.8503,1.687927
56.8513,1.688676
56.8683,1.692614
56.8713,1.692614
56.8922,1.694114
56.9105,1.692427
56.9281,1.689427
56.9321,1.686614
56.9331,1.683426
56.9351,1.680239
56.9351,1.680239
56.9362,1.677239
56.9371,1.676301
56.9371,1.675364
56.9371,1.675739
56.9381,1.677051
56.9381,1.679676
56.9381,1.683801
56.9392,1.686989
56.9392,1.689239
56.9392,1.689239
56.9401,1.692614
56.9401,1.692802
56.9401,1.694114
56.9411,1.693177
56.9411,1.691489
56.9411,1.686427
56.9421,1.683239
56.9426,1.679114
56.9426,1.677239
56.9431,1.677239
56.9431,1.676676
56.9441,1.675176
56.9451,1.674614
56.9451,1.675926
56.9451,1.679489
56.9461,1.683051
56.9461,1.686614
56.9461,1.688676
56.9461,1.692614
56.9471,1.692614
56.9471,1.692802
56.9471,1.694114
56.9481,1.692989
56.9481,1.689801
56.9491,1.686427
56.9495,1.683801
56.9501,1.679489
56.9501,1.676864
56.9511,1.676864
56.9581,1.677051
56.9640,1.675364
56.9670,1.674426
56.9682,1.676114
56.9690,1.678551
56.9690,1.683426
56.9701,1.688676
56.9701,1.689989
56.9701,1.692427
56.9701,1.692427
56.9711,1.692239
56.9711,1.693364
56.9711,1.692802
56.9720,1.690927
56.9720,1.687927
56.9730,1.684551
56.9730,1.680426
56.9740,1.676676
56.9740,1.675364
56.9740,1.675364
56.9740,1.674801
56.9751,1.675364
56.9751,1.676676
56.9751,1.680426
56.9760,1.683614
56.9760,1.686614
56.9760,1.689614
56.9760,1.693739
56.9770,1.693364
56.9770,1.693364
56.9770,1.694302
56.9780,1.693364
56.9780,1.690739
56.9780,1.686614
56.9780,1.683989
56.9791,1.679864
56.9791,1.677426
56.9791,1.677051
56.9800,1.675739
56.9810,1.675739
56.9810,1.674801
56.9820,1.675926
56.9820,1.679489
56.9820,1.682864
56.9833,1.686427
56.9840,1.690552
56.9840,1.693177
56.9840,1.692802
56.9840,1.694489
56.9850,1.694489
56.9850,1.692239
56.9850,1.690739
56.9860,1.687364
56.9860,1.683801
56.9860,1.680239
56.9871,1.677614
56.9880,1.675739
56.9880,1.674426
56.9880,1.674426
56.9880,1.674239
56.9890,1.676676
56.9890,1.679676
56.9890,1.683051
56.9890,1.686239
56.9900,1.690739
56.9900,1.693364
56.9900,1.693364
56.9900,1.694302
56.9910,1.694302
56.9910,1.694302
56.9920,1.690552
56.9920,1.686614
56.9920,1.683989
56.9920,1.679676
56.9930,1.676489
56.9930,1.676114
56.9935,1.674801
56.9935,1.674614
56.9940,1.674614
56.9940,1.677051
56.9950,1.679676
56.9960,1.684739
56.9960,1.687176
56.9960,1.690177
56.9970,1.692989
56.9970,1.693552
56.9970,1.694489
56.9970,1.694677
56.9980,1.694677
56.9980,1.691677
56.9980,1.689614
56.9980,1.686239
56.9990,1.681739
56.9995,1.679301
56.9999,1.676114
56.9999,1.673864
56.9999,1.674801
57.0009,1.676676
57.0013,1.676676
57.0019,1.679114
57.0019,1.684176
57.0030,1.686802
57.0030,1.690739
57.0030,1.693177
57.0039,1.693927
57.0039,1.694302
57.0039,1.693364
57.0039,1.692239
57.0049,1.692239
57.0049,1.688302
57.0049,1.684739
57.0049,1.680989
57.0059,1.677614
57.0059,1.676489
57.0059,1.674989
57.0069,1.675551
57.0070,1.676114
57.0070,1.676114
57.0070,1.679489
57.0081,1.683426
57.0081,1.687176
57.0089,1.690177
57.0099,1.694489
57.0099,1.695427
57.0109,1.697677
57.0109,1.694489
57.0109,1.692052
57.0119,1.692052
57.0119,1.687739
57.0119,1.684364
57.0129,1.679489
57.0129,1.677426
57.0139,1.675739
57.0139,1.675551
57.0139,1.675364
57.0139,1.676301
57.0149,1.679114
57.0149,1.679114
57.0149,1.683989
57.0162,1.687176
57.0169,1.689989
57.0169,1.693364
57.0179,1.694302
57.0179,1.694864
57.0190,1.694114
57.0190,1.692239
57.0190,1.688302
57.0199,1.688302
57.0199,1.684551
57.0209,1.681176
57.0209,1.678926
57.0209,1.678176
57.0219,1.677239
57.0219,1.676864
57.0219,1.676301
57.0229,1.679864
57.0240,1.684176
57.0249,1.684176
57.0249,1.686989
57.0259,1.690739
57.0259,1.693739
57.0269,1.694677
57.0279,1.696177
57.0290,1.695427
57.0305,1.691114
57.0309,1.688489
57.0319,1.688489
57.0329,1.684551
57.0339,1.680426
57.0349,1.677989
57.0367,1.676676
57.0377,1.675926
57.0388,1.675176
57.0397,1.676676
57.0407,1.680051
57.0417,1.683614
57.0427,1.683614
57.0437,1.687364
57.0447,1.690552
57.0457,1.695614
57.0467,1.696177
57.0487,1.696739
57.0487,1.695614
57.0498,1.692052
57.0517,1.688489
57.0527,1.684926
57.0537,1.684926
57.0548,1.680801
57.0556,1.678739
57.0566,1.675364
57.0577,1.675364
57.0586,1.675364
57.0597,1.676301
57.0606,1.679114
57.0617,1.683989
57.0626,1.687739
57.0636,1.687739
57.0646,1.691302
57.0656,1.693552
57.0716,1.695427
57.0886,1.696177
57.0925,1.694677
57.0935,1.692989
57.0935,1.689614
57.0946,1.685301
57.0946,1.681176
57.0956,1.681176
57.0956,1.678364
57.0956,1.676864
57.0966,1.674989
57.0966,1.675364
57.0976,1.677426
57.0976,1.680614
57.0986,1.683989
57.0995,1.689801
57.0995,1.692802
57.1005,1.692802
57.1015,1.695239
57.1015,1.693927
57.1015,1.695614
57.1025,1.694677
57.1025,1.692989
57.1037,1.689052
57.1037,1.685864
57.1045,1.681176
57.1045,1.679301
57.1055,1.679301
57.1055,1.675926
57.1065,1.675926
57.1065,1.674801
57.1075,1.677989
57.1075,1.680051
57.1085,1.684551
57.1085,1.687551
57.1085,1.690552
57.1095,1.690552
57.1095,1.693927
57.1105,1.696177
57.1105,1.696177
57.1115,1.696364
57.1115,1.692989
57.1115,1.691864
57.1125,1.687927
57.1137,1.682864
57.1146,1.680239
57.1156,1.680239
57.1165,1.675926
57.1175,1.674989
57.1188,1.675364
57.1195,1.677614
57.1205,1.679864
57.1228,1.684176
57.1228,1.687176
57.1238,1.690927
57.1248,1.692052
57.1258,1.692052
57.1286,1.695802
57.1288,1.696552
57.1288,1.695802
57.1300,1.692427
57.1320,1.687739
57.1328,1.685301
57.1328,1.681551
57.1351,1.677801
57.1358,1.676301
57.1368,1.676301
57.1388,1.676864
57.1398,1.674614
57.1398,1.676489
57.1409,1.680051
57.1419,1.684364
57.1428,1.689239
57.1438,1.693177
57.1448,1.694489
57.1458,1.693927
57.1468,1.693927
57.1494,1.695614
57.1504,1.695614
57.1504,1.693552
57.1515,1.689614
57.1524,1.684364
57.1548,1.681926
57.1557,1.679864
57.1557,1.677426
57.1567,1.675176
57.1579,1.675176
57.1587,1.675739
57.1599,1.677801
57.1607,1.678926
57.1622,1.684364
57.1627,1.686427
57.1637,1.690927
57.1647,1.692989
57.1657,1.693739
57.1677,1.693739
57.1800,1.695614
57.1917,1.694864
57.1946,1.692802
57.1956,1.689614
57.1956,1.685864
57.1956,1.682301
57.1966,1.680426
57.1966,1.676864
57.1976,1.676864
57.1980,1.676864
57.1986,1.676301
57.1986,1.677614
57.1996,1.679676
57.2006,1.683614
57.2006,1.686989
57.2016,1.692802
57.2016,1.695239
57.2026,1.694677
57.2026,1.695989
57.2026,1.695989
57.2036,1.695239
57.2036,1.693364
57.2046,1.689614
57.2046,1.686239
57.2056,1.681739
57.2056,1.679864
57.2056,1.677614
57.2066,1.676489
57.2066,1.675739
57.2076,1.675739
57.2076,1.677801
57.2086,1.679864
57.2086,1.684551
57.2096,1.687551
57.2096,1.690927
57.2096,1.693927
57.2106,1.694114
57.2106,1.694864
57.2116,1.695614
57.2116,1.695614
57.2126,1.693739
57.2126,1.691489
57.2135,1.688114
57.2135,1.683989
57.2146,1.681926
57.2155,1.676301
57.2165,1.676676
57.2176,1.676489
57.2185,1.676489
57.2203,1.678176
57.2203,1.679301
57.2215,1.684551
57.2225,1.687364
57.2235,1.691864
57.2245,1.693927
57.2255,1.694489
57.2275,1.696177
57.2286,1.694489
57.2295,1.694489
57.2306,1.692614
57.2315,1.690177
57.2326,1.686051
57.2335,1.681551
57.2345,1.679301
57.2356,1.677426
57.2366,1.676676
57.2376,1.675926
57.2386,1.677239
57.2396,1.677239
57.2407,1.679864
57.2418,1.685489
57.2426,1.688864
57.2436,1.692239
57.2446,1.693927
57.2467,1.695052
57.2476,1.696364
57.2486,1.695239
57.2496,1.692989
57.2507,1.692989
57.2515,1.689801
57.2538,1.685864
57.2538,1.682489
57.2549,1.680051
57.2558,1.676301
57.2558,1.675926
57.2581,1.675551
57.2581,1.676676
57.2607,1.679676
57.2617,1.679676
57.2617,1.682489
57.2629,1.686051
57.2637,1.689427
57.2647,1.693177
57.2660,1.694489
57.2667,1.695427
57.2686,1.694677
57.2696,1.693552
57.2709,1.690739
57.2716,1.690739
57.2736,1.688114
57.2736,1.683801
57.2746,1.680614
57.2756,1.676676
57.2768,1.676489
57.2776,1.676676
57.2786,1.677426
57.2836,1.678551
57.2926,1.678551
57.3065,1.683614
57.3085,1.686427
57.3096,1.690364
57.3096,1.693927
57.3106,1.694302
57.3106,1.695052
57.3116,1.694302
57.3116,1.692614
57.3126,1.689989
57.3126,1.689989
57.3135,1.686427
57.3135,1.682489
57.3146,1.680239
57.3155,1.677051
57.3175,1.677051
57.3186,1.675926
57.3186,1.676676
57.3195,1.679489
57.3195,1.683239
57.3205,1.683239
57.3205,1.686239
57.3215,1.690739
57.3215,1.693177
57.3225,1.695614
57.3235,1.696177
57.3245,1.694677
57.3245,1.692802
57.3255,1.689989
57.3255,1.686239
57.3265,1.686239
57.3265,1.681926
57.3265,1.680239
57.3275,1.676864
57.3285,1.676489
57.3285,1.675176
57.3295,1.677426
57.3305,1.679301
57.3315,1.683989
57.3325,1.686614
57.3327,1.686614
57.3334,1.690552
57.3334,1.693927
57.3346,1.693739
57.3346,1.695052
57.3355,1.694677
57.3355,1.692989
57.3364,1.688676
57.3374,1.685489
57.3384,1.683051
57.3384,1.683051
57.3394,1.681739
57.3394,1.677051
57.3404,1.676301
57.3404,1.677051
57.3414,1.677426
57.3414,1.679864
57.3424,1.683426
57.3424,1.686051
57.3424,1.686051
57.3436,1.689989
57.3444,1.692614
57.3466,1.692802
57.3474,1.694114
57.3496,1.695427
57.3496,1.692239
57.3507,1.689239
57.3516,1.684364
57.3526,1.680801
57.3537,1.680801
57.3545,1.678739
57.3557,1.676301
57.3565,1.676301
57.3578,1.674614
57.3595,1.675926
57.3605,1.679301
57.3605,1.683426
57.3615,1.686239
57.3625,1.689614
57.3635,1.689614
57.3657,1.693177
57.3665,1.695802
57.3675,1.696739
57.3686,1.695802
57.3708,1.693364
57.3708,1.689427
57.3718,1.685676
57.3728,1.681176
57.3738,1.678926
57.3748,1.678926
57.3758,1.676489
57.3780,1.674989
57.3789,1.676301
57.3789,1.678364
57.3809,1.681176
57.3819,1.685301
57.3829,1.689427
57.3846,1.692802
57.3856,1.692989
57.3866,1.692989
57.3877,1.694864
57.3906,1.694489
57.4016,1.692989
57.4156,1.689239
57.4176,1.685864
57.4186,1.682489
57.4197,1.679301
57.4206,1.676489
57.4206,1.677051
57.4216,1.677051
57.4216,1.675551
57.4227,1.676489
57.4246,1.677989
57.4257,1.683239
57.4265,1.685676
57.4265,1.689052
57.4275,1.691489
57.4275,1.692802
57.4285,1.694489
57.4285,1.694489
57.4285,1.694302
57.4295,1.693177
57.4295,1.689239
57.4305,1.686239
57.4305,1.681926
57.4338,1.678364
57.4338,1.675926
57.4349,1.676301
57.4349,1.675364
57.4349,1.675364
57.4359,1.675739
57.4359,1.677989
57.4369,1.681739
57.4369,1.684926
57.4379,1.690552
57.4380,1.693739
57.4390,1.693927
57.4400,1.694114
57.4400,1.694489
57.4410,1.694489
57.4410,1.692614
57.4421,1.691114
57.4421,1.685864
57.4431,1.680989
57.4431,1.679114
57.4431,1.676676
57.4442,1.676301
57.4442,1.674051
57.4451,1.675926
57.4451,1.675926
57.4476,1.677426
57.4483,1.681739
57.4483,1.685301
57.4483,1.689989
57.4493,1.692052
57.4504,1.692802
57.4504,1.694302
57.4513,1.693364
57.4513,1.693364
57.4523,1.692802
57.4523,1.689801
57.4537,1.685114
57.4542,1.681176
57.4553,1.679489
57.4553,1.675926
57.4563,1.675364
57.4563,1.676676
57.4573,1.676676
57.4583,1.676676
57.4594,1.677989
57.4614,1.682114
57.4624,1.685864
57.4634,1.689614
57.4647,1.692052
57.4657,1.692614
57.4665,1.694677
57.4676,1.694302
57.4696,1.692614
57.4696,1.692614
57.4706,1.689427
57.4716,1.685301
57.4725,1.681551
57.4736,1.679489
57.4745,1.677051
57.4755,1.676864
57.4775,1.674801
57.4775,1.676489
57.4785,1.678176
57.4795,1.678176
57.4817,1.682676
57.4825,1.685489
57.4845,1.689239
57.4845,1.691864
57.4855,1.694302
57.4866,1.697677
57.4876,1.695239
57.4886,1.692427
57.4897,1.689052
57.4916,1.689052
57.4916,1.686051
57.4926,1.682114
57.4939,1.680051
57.4939,1.676114
57.4967,1.676301
57.4977,1.674426
57.5017,1.676301
57.5156,1.677614
57.5256,1.677614
57.5277,1.682489
57.5287,1.684739
57.5287,1.689989
57.5298,1.692802
57.5298,1.693364
57.5298,1.693739
57.5308,1.693927
57.5308,1.692802
57.5318,1.689801
57.5318,1.689801
57.5327,1.685114
57.5341,1.681926
57.5347,1.678739
57.5347,1.676114
57.5358,1.676676
57.5358,1.675739
57.5367,1.676114
57.5367,1.678176
57.5377,1.681551
57.5377,1.681551
57.5387,1.684926
57.5387,1.689427
57.5387,1.692052
57.5398,1.692989
57.5408,1.694489
57.5418,1.694302
57.5427,1.693364
57.5437,1.690739
57.5437,1.685301
57.5437,1.685301
57.5447,1.682114
57.5447,1.679301
57.5459,1.676489
57.5459,1.677239
57.5470,1.674989
57.5470,1.675551
57.5479,1.677426
57.5493,1.681739
57.5499,1.684739
57.5510,1.684739
57.5510,1.688302
57.5520,1.691302
57.5520,1.692239
57.5530,1.693364
57.5530,1.693927
57.5530,1.693364
57.5540,1.690552
57.5540,1.687364
57.5550,1.684176
57.5570,1.684176
57.5570,1.678926
57.5582,1.676676
57.5582,1.676676
57.5592,1.675364
57.5592,1.676676
57.5602,1.678176
57.5602,1.682114
57.5615,1.685301
57.5626,1.685301
57.5637,1.689052
57.5645,1.691864
57.5656,1.692239
57.5664,1.695052
57.5674,1.693927
57.5686,1.692802
57.5696,1.689614
57.5714,1.686239
57.5714,1.681739
57.5725,1.681739
57.5747,1.679676
57.5757,1.676489
57.5757,1.676864
57.5767,1.674989
57.5787,1.674614
57.5787,1.679676
57.5818,1.685114
57.5819,1.687364
57.5830,1.689427
57.5830,1.689427
57.5838,1.691864
57.5858,1.692052
57.5868,1.694302
57.5875,1.693739
57.5887,1.693177
57.5895,1.689801
57.5909,1.686239
57.5919,1.682301
57.5935,1.680801
57.5935,1.680801
57.5946,1.677051
57.5956,1.676114
57.5967,1.675551
57.5978,1.676489
57.5987,1.678364
57.6007,1.683426
57.6007,1.685301
57.6030,1.690177
57.6030,1.692802
57.6057,1.692802
57.6067,1.693927
57.6107,1.694114
57.6298,1.695614
57.6350,1.692052
57.6370,1.692802
57.6370,1.688864
57.6382,1.683426
57.6382,1.680239
57.6382,1.677426
57.6392,1.677426
57.6392,1.675926
57.6402,1.675926
57.6402,1.677801
57.6412,1.678551
57.6412,1.682301
57.6423,1.685114
57.6432,1.689052
57.6443,1.692239
57.6443,1.692239
57.6453,1.694114
57.6453,1.694677
57.6462,1.695052
57.6462,1.693177
57.6472,1.690364
57.6472,1.686427
57.6482,1.683051
57.6482,1.680989
57.6492,1.677801
57.6503,1.677801
57.6521,1.677989
57.6521,1.675926
57.6532,1.676114
57.6532,1.678926
57.6542,1.682301
57.6542,1.685676
57.6542,1.689614
57.6552,1.693177
57.6552,1.695614
57.6563,1.695614
57.6571,1.697489
57.6573,1.698239
57.6586,1.693177
57.6593,1.691114
57.6593,1.687927
57.6603,1.683426
57.6603,1.680239
57.6614,1.677426
57.6614,1.677051
57.6624,1.677051
57.6624,1.676864
57.6635,1.677426
57.6635,1.679301
57.6644,1.682676
57.6644,1.686802
57.6654,1.690177
57.6664,1.692802
57.6664,1.695052
57.6674,1.695989
57.6674,1.695989
57.6686,1.696177
57.6686,1.694864
57.6696,1.691677
57.6707,1.687364
57.6726,1.684364
57.6736,1.680801
57.6747,1.676489
57.6747,1.679489
57.6758,1.676301
57.6768,1.676301
57.6778,1.676489
57.6787,1.678551
57.6810,1.681739
57.6811,1.686051
57.6827,1.690364
57.6830,1.693364
57.6849,1.694677
57.6857,1.695802
57.6870,1.695802
57.6870,1.695802
57.6898,1.694489
57.6898,1.691489
57.6908,1.687551
57.6918,1.683801
57.6928,1.679676
57.6940,1.678176
57.6948,1.677801
57.6958,1.675926
57.6968,1.675926
57.6978,1.676676
57.6979,1.679301
57.7019,1.682676
57.7019,1.686427
57.7029,1.690739
57.7029,1.694864
57.7046,1.694114
57.7057,1.698052
57.7066,1.698052
57.7077,1.698052
57.7085,1.694677
57.7099,1.691302
57.7099,1.688302
57.7128,1.685676
57.7128,1.680989
57.7139,1.678364
57.7148,1.676114
57.7158,1.675176
57.7162,1.675926
57.7173,1.675926
57.7207,1.679301
57.7215,1.682489
57.7215,1.686989
57.7225,1.691114
57.7235,1.692614
57.7345,1.695614
57.7475,1.697302
57.7475,1.697489
57.7484,1.695614
57.7484,1.695614
57.7495,1.692427
57.7504,1.688676
57.7504,1.684739
57.7514,1.681551
57.7514,1.677989
57.7524,1.677426
57.7524,1.676301
57.7534,1.677239
57.7534,1.680239
57.7534,1.680239
57.7544,1.683614
57.7544,1.687176
57.7556,1.692052
57.7556,1.693739
57.7566,1.696364
57.7566,1.697677
57.7576,1.697677
57.7576,1.695989
57.7576,1.695989
57.7586,1.692989
57.7586,1.688864
57.7596,1.685489
57.7596,1.681176
57.7606,1.677801
57.7606,1.677614
57.7617,1.675739
57.7617,1.678176
57.7627,1.680801
57.7627,1.680801
57.7637,1.683051
57.7637,1.687739
57.7647,1.691864
57.7647,1.694302
57.7657,1.697489
57.7657,1.698989
57.7672,1.700864
57.7677,1.698802
57.7685,1.694677
57.7695,1.694677
57.7708,1.689427
57.7715,1.684739
57.7728,1.681364
57.7738,1.679301
57.7748,1.678551
57.7758,1.676489
57.7768,1.677614
57.7779,1.680239
57.7808,1.683614
57.7808,1.683614
57.7819,1.687176
57.7819,1.691864
57.7834,1.692802
57.7859,1.696552
57.7859,1.697302
57.7869,1.697677
57.7869,1.695614
57.7882,1.692802
57.7897,1.688676
57.7907,1.688676
57.7928,1.685864
57.7938,1.681176
57.7938,1.678926
57.7948,1.677614
57.7959,1.676301
57.7959,1.678926
57.7970,1.682301
57.8002,1.684926
57.8003,1.688302
57.8010,1.688302
57.8020,1.691864
57.8029,1.692614
57.8041,1.696364
57.8049,1.698802
57.8060,1.698802
57.8069,1.696177
57.8081,1.694114
57.8089,1.688676
57.8109,1.688676
57.8109,1.686239
57.8129,1.681926
57.8139,1.678739
57.8149,1.677614
57.8160,1.677051
57.8169,1.677426
57.8179,1.679676
57.8194,1.683239
57.8199,1.687551
57.8209,1.687551
57.8221,1.691864
57.8228,1.694677
57.8242,1.695989
57.8248,1.697489
57.8261,1.697864
57.8278,1.696177
57.8285,1.693552
57.8296,1.689801
57.8307,1.686802
57.8316,1.686802
57.8375,1.683801
57.8571,1.681176
57.8602,1.680239
57.8602,1.677801
57.8612,1.677989
57.8612,1.680989
57.8622,1.683801
57.8622,1.687927
57.8632,1.692052
57.8632,1.692052
57.8632,1.694114
57.8642,1.696739
57.8642,1.697114
57.8653,1.697489
57.8660,1.696927
57.8663,1.693927
57.8674,1.689427
57.8683,1.686427
57.8683,1.682489
57.8683,1.682489
57.8693,1.679489
57.8693,1.679489
57.8703,1.678364
57.8703,1.678551
57.8715,1.680239
57.8715,1.684176
57.8715,1.687927
57.8725,1.691864
57.8725,1.691864
57.8735,1.692802
57.8735,1.696739
57.8745,1.698052
57.8745,1.698052
57.8752,1.696739
57.8755,1.693927
57.8755,1.690364
57.8765,1.686239
57.8765,1.682864
57.8777,1.682864
57.8777,1.680614
57.8787,1.679864
57.8787,1.678551
57.8787,1.677989
57.8797,1.680426
57.8797,1.684176
57.8807,1.687739
57.8816,1.691302
57.8826,1.693927
57.8837,1.693927
57.8846,1.695989
57.8855,1.697114
57.8866,1.698427
57.8877,1.697677
57.8887,1.696364
57.8899,1.692427
57.8907,1.687364
57.8915,1.683239
57.8927,1.679301
57.8935,1.679301
57.8945,1.678739
57.8957,1.677801
57.8968,1.678364
57.8994,1.680989
57.8994,1.684364
57.9003,1.688114
57.9016,1.691864
57.9026,1.693927
57.9036,1.696927
57.9047,1.696927
57.9058,1.696927
57.9067,1.698052
57.9084,1.696552
57.9094,1.693552
57.9094,1.689801
57.9104,1.685489
57.9116,1.682676
57.9125,1.680426
57.9135,1.678739
57.9145,1.678739
57.9154,1.679114
57.9164,1.678739
57.9187,1.680989
57.9193,1.684176
57.9210,1.687739
57.9210,1.691302
57.9227,1.694114
57.9237,1.696364
57.9250,1.696364
57.9256,1.697302
57.9260,1.698614
57.9271,1.699177
57.9287,1.695427
57.9297,1.690739
57.9310,1.687176
57.9310,1.682301
57.9329,1.680051
57.9336,1.678926
57.9346,1.678926
57.9356,1.678176
57.9368,1.678551
57.9398,1.681176
57.9398,1.683239
57.9409,1.687551
57.9409,1.691489
57.9438,1.692989
57.9478,1.697302
57.9681,1.697114
57.9681,1.697114
57.9690,1.697864
57.9690,1.696552
57.9700,1.694864
57.9700,1.689989
57.9711,1.687364
57.9711,1.683239
57.9722,1.680426
57.9722,1.680614
57.9732,1.678551
57.9732,1.678551
57.9732,1.679489
57.9742,1.681551
57.9742,1.684364
57.9752,1.690177
57.9752,1.692239
57.9763,1.693927
57.9763,1.697302
57.9771,1.697489
57.9773,1.698239
57.9773,1.698239
57.9783,1.697489
57.9783,1.694864
57.9783,1.691114
57.9793,1.688302
57.9793,1.683801
57.9803,1.681176
57.9803,1.679864
57.9814,1.677989
57.9814,1.679301
57.9814,1.679301
57.9831,1.680989
57.9834,1.684176
57.9844,1.689052
57.9844,1.691114
57.9854,1.694302
57.9854,1.697114
57.9864,1.696927
57.9864,1.698802
57.9864,1.698802
57.9876,1.699177
57.9901,1.694864
57.9907,1.690927
57.9907,1.687739
57.9917,1.682676
57.9928,1.680051
57.9938,1.681364
57.9948,1.679114
57.9958,1.679301
57.9968,1.679301
57.9990,1.680801
58.0007,1.685489
58.0023,1.688489
58.0023,1.691677
58.0033,1.693364
58.0033,1.696927
58.0043,1.698239
58.0055,1.699177
58.0063,1.698052
58.0073,1.698052
58.0083,1.695239
58.0099,1.691489
58.0107,1.688114
58.0128,1.684176
58.0139,1.681739
58.0148,1.680051
58.0160,1.677051
58.0168,1.679301
58.0176,1.681551
58.0186,1.681551
58.0196,1.683801
58.0206,1.688114
58.0217,1.694677
58.0226,1.696927
58.0237,1.699739
58.0247,1.698427
58.0255,1.698802
58.0267,1.697677
58.0277,1.695239
58.0286,1.695239
58.0305,1.690364
58.0305,1.688489
58.0316,1.684926
58.0330,1.681739
58.0336,1.680801
58.0346,1.679676
58.0355,1.679489
58.0376,1.681551
58.0385,1.684364
58.0397,1.684364
58.0405,1.688676
58.0429,1.692802
58.0440,1.694302
58.0469,1.697489
58.0671,1.697864
58.0730,1.698427
58.0740,1.698614
58.0750,1.695614
58.0750,1.695614
58.0760,1.692614
58.0760,1.689614
58.0770,1.685301
58.0770,1.681926
58.0780,1.681551
58.0780,1.679489
58.0780,1.679114
58.0792,1.680989
58.0792,1.684364
58.0800,1.684364
58.0800,1.688489
58.0810,1.692052
58.0810,1.694864
58.0820,1.698239
58.0827,1.697677
58.0830,1.699927
58.0842,1.698239
58.0842,1.696364
58.0852,1.692427
58.0852,1.692427
58.0852,1.689052
58.0864,1.684176
58.0871,1.682114
58.0882,1.680239
58.0891,1.678926
58.0891,1.680051
58.0901,1.682489
58.0911,1.686614
58.0921,1.689989
58.0921,1.689989
58.0936,1.692802
58.0941,1.694677
58.0951,1.698614
58.0961,1.698802
58.0961,1.698802
58.0971,1.699177
58.0981,1.695427
58.0992,1.692052
58.1005,1.689614
58.1011,1.689614
58.1021,1.684926
58.1031,1.682114
58.1041,1.681364
58.1051,1.679864
58.1051,1.679489
58.1061,1.682114
58.1071,1.684364
58.1082,1.687551
58.1091,1.692239
58.1101,1.692239
58.1111,1.695239
58.1111,1.698239
58.1121,1.698427
58.1131,1.699364
58.1142,1.698052
58.1151,1.695614
58.1161,1.692614
58.1171,1.689801
58.1181,1.689801
58.1181,1.685489
58.1191,1.682114
58.1201,1.683051
58.1211,1.680989
58.1221,1.679114
58.1231,1.681926
58.1231,1.684926
58.1241,1.687551
58.1251,1.692614
58.1260,1.692614
58.1260,1.695052
58.1270,1.698052
58.1280,1.698614
58.1280,1.698989
58.1290,1.699177
58.1301,1.696739
58.1301,1.692427
58.1311,1.689614
58.1326,1.684364
58.1335,1.684364
58.1340,1.682489
58.1350,1.680801
58.1360,1.679676
58.1360,1.679864
58.1380,1.681364
58.1390,1.684364
58.1390,1.688114
58.1420,1.692614
58.1420,1.697302
58.1430,1.698427
58.1444,1.698427
58.1461,1.699739
58.1461,1.697864
58.1480,1.696177
58.1490,1.693364
58.1500,1.689614
58.1510,1.684551
58.1523,1.683239
58.1570,1.681551
58.1749,1.679489
58.1914,1.679489
58.1959,1.679301
58.1969,1.681176
58.1979,1.683051
58.1989,1.688489
58.1998,1.692427
58.2008,1.695052
58.2018,1.697864
58.2032,1.698802
58.2038,1.699552
58.2048,1.699552
58.2058,1.698802
58.2068,1.695802
58.2075,1.692052
58.2078,1.688489
58.2088,1.684739
58.2098,1.682864
58.2108,1.681551
58.2118,1.679301
58.2128,1.679301
58.2138,1.680051
58.2138,1.682864
58.2150,1.685489
58.2159,1.688489
58.2179,1.691677
58.2179,1.695802
58.2188,1.697677
58.2198,1.698239
58.2198,1.699364
58.2208,1.699364
58.2218,1.698989
58.2228,1.696177
58.2228,1.692052
58.2238,1.689239
58.2248,1.684551
58.2248,1.682864
58.2258,1.681551
58.2258,1.679301
58.2268,1.679489
58.2268,1.679489
58.2278,1.681364
58.2278,1.684364
58.2288,1.689052
58.2288,1.691302
58.2298,1.695052
58.2309,1.697864
58.2309,1.698614
58.2318,1.698802
58.2328,1.699177
58.2328,1.699177
58.2348,1.696364
58.2348,1.694489
58.2348,1.690739
58.2358,1.685114
58.2358,1.683426
58.2368,1.680801
58.2375,1.680051
58.2377,1.680051
58.2377,1.680989
58.2387,1.680989
58.2392,1.684176
58.2397,1.687551
58.2397,1.691864
58.2407,1.695239
58.2407,1.697302
58.2417,1.698614
58.2417,1.699177
58.2427,1.699364
58.2427,1.696739
58.2437,1.696739
58.2437,1.692239
58.2447,1.688676
58.2447,1.685301
58.2457,1.683239
58.2457,1.680614
58.2467,1.679301
58.2467,1.679676
58.2477,1.682676
58.2482,1.682676
58.2487,1.684551
58.2492,1.688114
58.2497,1.691302
58.2507,1.694864
58.2507,1.698052
58.2517,1.698614
58.2517,1.700114
58.2527,1.698239
58.2527,1.697302
58.2538,1.697302
58.2538,1.693739
58.2547,1.689427
58.2547,1.685301
58.2557,1.682676
58.2557,1.680801
58.2567,1.679676
58.2567,1.680051
58.2577,1.680801
58.2577,1.683989
58.2587,1.683989
58.2597,1.687551
58.2607,1.690927
58.2617,1.694114
58.2648,1.696927
58.2667,1.698802
58.2796,1.700864
58.2876,1.699927
58.2916,1.697114
58.2918,1.692802
58.2926,1.692802
58.2926,1.689239
58.2936,1.684926
58.2936,1.682301
58.2947,1.680801
58.2947,1.678926
58.2947,1.680239
58.2956,1.681364
58.2956,1.684176
58.2966,1.687927
58.2969,1.687927
58.2976,1.689427
58.2976,1.694114
58.2986,1.697114
58.2992,1.698427
58.2996,1.699177
58.2996,1.698052
58.3006,1.695614
58.3006,1.691677
58.3016,1.688676
58.3016,1.688676
58.3026,1.684551
58.3026,1.682301
58.3026,1.680426
58.3036,1.678551
58.3042,1.679114
58.3046,1.680989
58.3046,1.683051
58.3056,1.688302
58.3056,1.688302
58.3066,1.690739
58.3067,1.694302
58.3067,1.698427
58.3076,1.698802
58.3076,1.699927
58.3086,1.698427
58.3086,1.695802
58.3096,1.692802
58.3096,1.689239
58.3096,1.689239
58.3106,1.684551
58.3126,1.681364
58.3126,1.680426
58.3145,1.679301
58.3155,1.679489
58.3165,1.680426
58.3176,1.682676
58.3185,1.687176
58.3195,1.690927
58.3205,1.690927
58.3215,1.693552
58.3225,1.696552
58.3235,1.697489
58.3245,1.698239
58.3255,1.697864
58.3266,1.694864
58.3275,1.692989
58.3285,1.689801
58.3295,1.685301
58.3315,1.685301
58.3325,1.684364
58.3335,1.683051
58.3346,1.679864
58.3355,1.678739
58.3365,1.680426
58.3375,1.683426
58.3385,1.686989
58.3395,1.690177
58.3405,1.693364
58.3415,1.693364
58.3425,1.696552
58.3435,1.696552
58.3445,1.697864
58.3455,1.697114
58.3465,1.695239
58.3475,1.692614
58.3485,1.689239
58.3505,1.685489
58.3514,1.683051
58.3524,1.683051
58.3534,1.680426
58.3544,1.680614
58.3554,1.680239
58.3564,1.680426
58.3575,1.682489
58.3584,1.686802
58.3594,1.690364
58.3604,1.695239
58.3614,1.695239
58.3624,1.695427
58.3635,1.696364
58.3644,1.698052
58.3654,1.697677
58.3664,1.695802
58.3674,1.692427
58.3684,1.688864
58.3704,1.684739
58.3714,1.682864
58.3724,1.682864
58.3736,1.680614
58.3744,1.679489
58.3804,1.678926
58.3883,1.680051
58.3983,1.682301
58.4033,1.686614
58.4033,1.689614
58.4043,1.692427
58.4043,1.695614
58.4053,1.695614
58.4053,1.695802
58.4064,1.697677
58.4064,1.697302
58.4064,1.695052
58.4073,1.692802
58.4073,1.687927
58.4083,1.684364
58.4083,1.682676
58.4093,1.680239
58.4093,1.680239
58.4105,1.679489
58.4113,1.679489
58.4113,1.679864
58.4123,1.682489
58.4123,1.686051
58.4133,1.690364
58.4133,1.693177
58.4143,1.697114
58.4143,1.698052
58.4153,1.698052
58.4158,1.697489
58.4163,1.697677
58.4173,1.695614
58.4180,1.692802
58.4183,1.688676
58.4183,1.684739
58.4193,1.683801
58.4193,1.679676
58.4203,1.680051
58.4203,1.680051
58.4213,1.679676
58.4213,1.680051
58.4224,1.682114
58.4224,1.686989
58.4232,1.689239
58.4232,1.692989
58.4243,1.695989
58.4243,1.696927
58.4255,1.696927
58.4255,1.698427
58.4262,1.697489
58.4262,1.695614
58.4272,1.692052
58.4282,1.688302
58.4302,1.687364
58.4312,1.684176
58.4322,1.681551
58.4332,1.679114
58.4344,1.679114
58.4352,1.677989
58.4362,1.679864
58.4372,1.681926
58.4382,1.686239
58.4392,1.689614
58.4402,1.692614
58.4413,1.696364
58.4422,1.696927
58.4432,1.698239
58.4442,1.698239
58.4452,1.697864
58.4462,1.695802
58.4472,1.692989
58.4482,1.688114
58.4502,1.684926
58.4512,1.682676
58.4524,1.680239
58.4532,1.679676
58.4542,1.678926
58.4552,1.678926
58.4562,1.679676
58.4572,1.682864
58.4582,1.686614
58.4592,1.691489
58.4602,1.695239
58.4611,1.697864
58.4621,1.697489
58.4631,1.698239
58.4641,1.698239
58.4659,1.698239
58.4671,1.695239
58.4671,1.692239
58.4681,1.688676
58.4702,1.684926
58.4711,1.682301
58.4721,1.680426
58.4731,1.679864
58.4741,1.678551
58.4751,1.679676
58.4761,1.679676
58.4771,1.683426
58.4781,1.686239
58.4791,1.689614
58.4801,1.693552
58.4811,1.696177
58.4821,1.696364
58.4832,1.698239
58.4841,1.697677
58.4851,1.697677
58.4911,1.696177
58.4991,1.692427
58.5110,1.690177
58.5143,1.686802
58.5280,1.684926
58.5280,1.681551
58.5292,1.680801
58.5429,1.680239
58.5449,1.679864
58.5459,1.679864
58.5469,1.681926
58.5481,1.687176
58.5521,1.689989
58.5550,1.692614
58.5569,1.695614
58.5579,1.696364
58.5579,1.698239
58.5589,1.698239
58.5589,1.695802
58.5599,1.695802
58.5599,1.692989
58.5609,1.689427
58.5609,1.684364
58.5609,1.681176
58.5619,1.679301
58.5619,1.678926
58.5629,1.678551
58.5629,1.679864
58.5629,1.681551
58.5639,1.681551
58.5639,1.686614
58.5652,1.689801
58.5652,1.693177
58.5659,1.696739
58.5670,1.697114
58.5670,1.698427
58.5679,1.698239
58.5679,1.696739
58.5689,1.692802
58.5689,1.692802
58.5699,1.687927
58.5699,1.684364
58.5699,1.681926
58.5709,1.681364
58.5709,1.679114
58.5719,1.678364
58.5719,1.678176
58.5729,1.682114
58.5729,1.685114
58.5738,1.685114
58.5738,1.688676
58.5738,1.693739
58.5748,1.696552
58.5748,1.697864
58.5758,1.698427
58.5758,1.698239
58.5768,1.695802
58.5768,1.692239
58.5778,1.692239
58.5778,1.688114
58.5778,1.683989
58.5788,1.681176
58.5788,1.678176
58.5798,1.677426
58.5798,1.679114
58.5808,1.678926
58.5808,1.681364
58.5808,1.686239
58.5818,1.686239
58.5818,1.689239
58.5838,1.693552
58.5838,1.696739
58.5848,1.696177
58.5852,1.697864
58.5858,1.698239
58.5858,1.695802
58.5868,1.692427
58.5868,1.688114
58.5868,1.688114
58.5908,1.684176
58.6018,1.681926
58.6020,1.678364
58.6028,1.678739
58.6028,1.677239
58.6038,1.678551
58.6038,1.681364
58.6048,1.685676
58.6048,1.689052
58.6058,1.689052
58.6068,1.692989
58.6068,1.697302
58.6078,1.699552
58.6078,1.699739
58.6088,1.697677
58.6088,1.695802
58.6098,1.692427
58.6098,1.688114
58.6107,1.684926
58.6107,1.684926
58.6117,1.681926
58.6117,1.679114
58.6127,1.678739
58.6138,1.677801
58.6138,1.679676
58.6147,1.681364
58.6147,1.685489
58.6158,1.688864
58.6167,1.693552
58.6167,1.693552
58.6177,1.696552
58.6187,1.697677
58.6187,1.698427
58.6197,1.698052
58.6197,1.695239
58.6207,1.692614
58.6207,1.688114
58.6536,1.685301
58.6536,1.685301
58.6546,1.683989
58.6546,1.679114
58.6546,1.678364
58.6556,1.677426
58.6556,1.677989
58.6566,1.680801
58.6566,1.685301
58.6566,1.688676
58.6576,1.692614
58.6576,1.692614
58.6586,1.695802
58.6586,1.695989
58.6586,1.698239
58.6596,1.697114
58.6596,1.695802
58.6596,1.692052
58.6606,1.688489
58.6606,1.683614
58.6616,1.681739
58.6616,1.681739
58.6616,1.679114
58.6626,1.678176
58.6626,1.677051
58.6636,1.678176
58.6636,1.681364
58.6636,1.685489
58.6646,1.688864
58.6646,1.692989
58.6646,1.695989
58.6656,1.695989
58.6656,1.696739
58.6656,1.697489
58.6666,1.698052
58.6666,1.695989
58.6676,1.692614
58.6676,1.689614
58.6676,1.685489
58.6686,1.681551
58.6686,1.678739
58.6686,1.678739
58.6696,1.677801
58.6696,1.677801
58.6706,1.679489
58.6706,1.681551
58.6706,1.685301
58.6716,1.688489
58.6716,1.693739
58.6726,1.695427
58.6726,1.695989
58.6726,1.695989
58.6736,1.697302
58.6736,1.698239
58.6736,1.695802
58.6746,1.693177
58.6746,1.688302
58.6746,1.684926
58.6756,1.681739
58.6756,1.677801
58.6766,1.677801
58.6766,1.678176
58.6766,1.677614
58.6776,1.680989
58.6776,1.683989
58.6776,1.686989
58.6786,1.688676
58.6796,1.692239
58.6806,1.695614
58.6816,1.696177
58.6826,1.696177
58.6836,1.697677
58.6845,1.698239
58.6855,1.695614
58.6865,1.692989
58.6875,1.688676
58.6896,1.684926
58.6899,1.682301
58.6915,1.678739
58.6925,1.678176
58.6935,1.678176
58.6945,1.676864
58.6955,1.677989
58.6965,1.680989
58.6975,1.685489
58.6985,1.688676
58.6997,1.692989
58.7005,1.695427
58.7015,1.696739
58.7025,1.698802
58.7035,1.698802
58.7045,1.698802
58.7055,1.698052
58.7076,1.694864
58.7115,1.688489
58.7205,1.685301
58.7205,1.682301
58.7205,1.679114
58.7215,1.679114
58.7215,1.676676
58.7224,1.676676
58.7224,1.678551
58.7224,1.680239
58.7234,1.684926
58.7234,1.687927
58.7244,1.692052
58.7244,1.695239
58.7254,1.695989
58.7254,1.698239
58.7264,1.698239
58.7264,1.697677
58.7274,1.695989
58.7274,1.693364
58.7284,1.688489
58.7294,1.685301
58.7304,1.681926
58.7314,1.678551
58.7324,1.678926
58.7334,1.677989
58.7344,1.677989
58.7354,1.680426
58.7364,1.682114
58.7374,1.684364
58.7384,1.688302
58.7394,1.691864
58.7404,1.694864
58.7414,1.696177
58.7424,1.698614
58.7434,1.696739
58.7444,1.696739
58.7454,1.695052
58.7474,1.692614
58.7484,1.688489
58.7494,1.685489
58.7504,1.682864
58.7514,1.679489
58.7524,1.678551
58.7534,1.677614
58.7544,1.677989
58.7554,1.677989
58.7564,1.680989
58.7574,1.684926
58.7584,1.688302
58.7594,1.692052
58.7603,1.694489
58.7613,1.696364
58.7624,1.697114
58.7633,1.697302
58.7643,1.695989
58.7653,1.695989
58.7663,1.693552
58.7683,1.688676
58.7693,1.686614
58.7703,1.684739
58.7713,1.681176
58.7723,1.678364
58.7733,1.677989
58.7743,1.679301
58.7753,1.681176
58.7763,1.681176
58.7773,1.685114
58.7783,1.688489
58.7793,1.692802
58.7803,1.694489
58.7843,1.695614
58.7853,1.696364
58.7853,1.697489
58.7863,1.695239
58.7863,1.695239
58.7873,1.692989
58.7883,1.688489
58.7893,1.685864
58.7903,1.682864
58.7913,1.679489
58.7923,1.679489
58.7933,1.678926
58.7943,1.678739
58.7953,1.681176
58.7963,1.681176
58.7973,1.684926
58.7982,1.689989
58.7992,1.695427
58.8002,1.695052
58.8012,1.696552
58.8022,1.697114
58.8032,1.697489
58.8042,1.696364
58.8052,1.692614
58.8072,1.692614
58.8082,1.689427
58.8192,1.685676
58.8212,1.682489
58.8218,1.679864
58.8222,1.678926
58.8222,1.678176
58.8232,1.679114
58.8232,1.680801
58.8243,1.685301
58.8252,1.685301
58.8252,1.687927
58.8252,1.692614
58.8262,1.694114
58.8262,1.695802
58.8272,1.697114
58.8272,1.696927
58.8282,1.695802
58.8285,1.695239
58.8292,1.689989
58.8292,1.689989
58.8292,1.687176
58.8302,1.683614
58.8312,1.680426
58.8322,1.679489
58.8332,1.678739
58.8342,1.679114
58.8351,1.680989
58.8366,1.684926
58.8371,1.688114
58.8389,1.688114
58.8391,1.692052
58.8402,1.694302
58.8411,1.696364
58.8421,1.697114
58.8431,1.697114
58.8441,1.695427
58.8461,1.693177
58.8471,1.689427
58.8481,1.689427
58.8491,1.685676
58.8501,1.683426
58.8511,1.679864
58.8521,1.678739
58.8532,1.678364
58.8541,1.678551
58.8552,1.681739
58.8561,1.686614
58.8571,1.688676
58.8581,1.688676
58.8591,1.692614
58.8601,1.694302
58.8611,1.695989
58.8621,1.697489
58.8631,1.697864
58.8641,1.696177
58.8661,1.693927
58.8671,1.689801
58.8681,1.685864
58.8691,1.685864
58.8701,1.683239
58.8711,1.680239
58.8720,1.680426
58.8730,1.679114
58.8740,1.678926
58.8750,1.681551
58.8760,1.684926
58.8770,1.688302
58.8780,1.692614
58.8790,1.692614
58.8800,1.695052
58.8810,1.695802
58.8823,1.696927
58.8835,1.698989
58.8840,1.698989
58.8850,1.695614
58.8870,1.690177
58.8991,1.686614
58.9020,1.682864
58.9033,1.682864
58.9040,1.680239
58.9159,1.679676
58.9279,1.678739
58.9279,1.679301
58.9309,1.681176
58.9339,1.684551
58.9430,1.688114
58.9519,1.692427
58.9548,1.695427
58.9568,1.695427
58.9576,1.697489
58.9578,1.698427
58.9578,1.696552
58.9588,1.693927
58.9588,1.689989
58.9598,1.686051
58.9598,1.683614
58.9598,1.679676
58.9608,1.679489
58.9608,1.679489
58.9618,1.677801
58.9618,1.679301
58.9618,1.680989
58.9628,1.684926
58.9628,1.688114
58.9639,1.694114
58.9639,1.697489
58.9648,1.699739
58.9648,1.698802
58.9658,1.698802
58.9658,1.698427
58.9668,1.697114
58.9668,1.694302
58.9679,1.690177
58.9679,1.686051
58.9688,1.683426
58.9688,1.680426
58.9688,1.679301
58.9698,1.678364
58.9698,1.678364
58.9708,1.677989
58.9714,1.681176
58.9718,1.684176
58.9718,1.687739
58.9718,1.692427
58.9728,1.694114
58.9728,1.697677
58.9738,1.699177
58.9738,1.698614
58.9748,1.698614
58.9748,1.697864
58.9758,1.693927
58.9758,1.690739
58.9758,1.687739
58.9768,1.683239
58.9768,1.680426
58.9778,1.679114
58.9778,1.678364
58.9778,1.678364
58.9788,1.679301
58.9788,1.680989
58.9798,1.686239
58.9798,1.689427
58.9808,1.692989
58.9808,1.695614
58.9818,1.697864
58.9818,1.699364
58.9830,1.699177
58.9837,1.699177
58.9837,1.696927
58.9847,1.694489
58.9847,1.690364
58.9847,1.686051
58.9857,1.682864
58.9857,1.679864
58.9867,1.679489
58.9867,1.677801
58.9877,1.679114
58.9877,1.679114
58.9887,1.681364
58.9887,1.684551
58.9887,1.688489
58.9897,1.692802
58.9897,1.695614
58.9907,1.698239
58.9907,1.698052
58.9917,1.699739
58.9917,1.699739
58.9927,1.699739
58.9927,1.695989
58.9927,1.690739
58.9937,1.686239
58.9937,1.682676
58.9947,1.680801
58.9947,1.679864
58.9958,1.677614
58.9958,1.679489
58.9967,1.681926
58.9967,1.681926
58.9977,1.684364
58.9977,1.688302
58.9987,1.693177
58.9997,1.695614
59.0007,1.697677
59.0017,1.699739
59.0031,1.700302
59.0037,1.698239
59.0050,1.698239
59.0057,1.695052
59.0070,1.690177
59.0087,1.687364
59.0097,1.682864
59.0107,1.680051
59.0117,1.678739
59.0127,1.679676
59.0137,1.680801
59.0147,1.683614
59.0157,1.683614
59.0167,1.684551
59.0177,1.687739
59.0187,1.692802
59.0197,1.695614
59.0207,1.697489
59.0222,1.699927
59.0231,1.700114
59.0241,1.696927
59.0250,1.695052
59.0286,1.695052
59.0396,1.689614
59.0496,1.686989
59.0536,1.683051
59.0546,1.680614
59.0546,1.679676
59.0556,1.678551
59.0556,1.679114
59.0566,1.681926
59.0566,1.684739
59.0576,1.684739
59.0576,1.688864
59.0586,1.693177
59.0586,1.695614
59.0595,1.697489
59.0595,1.700302
59.0605,1.701239
59.0605,1.698052
59.0615,1.695239
59.0615,1.690927
59.0625,1.690927
59.0625,1.686239
59.0625,1.683614
59.0635,1.680051
59.0635,1.679676
59.0645,1.678176
59.0652,1.679489
59.0655,1.682301
59.0665,1.685114
59.0665,1.688489
59.0675,1.688489
59.0675,1.692427
59.0685,1.695427
59.0685,1.698239
59.0695,1.698802
59.0695,1.698427
59.0705,1.697677
59.0705,1.694677
59.0705,1.690927
59.0715,1.690927
59.0715,1.687176
59.0725,1.683989
59.0725,1.681739
59.0735,1.680989
59.0735,1.677989
59.0745,1.678551
59.0745,1.681926
59.0755,1.685489
59.0765,1.688864
59.0775,1.688864
59.0785,1.692614
59.0795,1.694677
59.0815,1.697864
59.0821,1.698989
59.0835,1.699177
59.0845,1.697864
59.0855,1.695239
59.0865,1.690177
59.0876,1.687551
59.0885,1.687551
59.0895,1.683426
59.0905,1.680989
59.0915,1.679301
59.0925,1.679301
59.0935,1.679301
59.0945,1.681364
59.0955,1.684176
59.0964,1.689427
59.0974,1.695614
59.0984,1.695614
59.0996,1.697677
59.1014,1.698427
59.1024,1.699177
59.1034,1.699364
59.1044,1.697302
59.1054,1.695052
59.1064,1.691864
59.1074,1.687927
59.1084,1.683426
59.1094,1.683426
59.1104,1.680989
59.1114,1.680426
59.1124,1.678739
59.1134,1.679489
59.1144,1.681176
59.1154,1.684176
59.1164,1.688864
59.1174,1.692802
59.1187,1.695052
59.1194,1.695052
59.1214,1.698239
59.1224,1.698802
59.1234,1.698239
59.1244,1.697677
59.1254,1.694864
59.1264,1.691114
59.1274,1.687364
59.1284,1.682864
59.1294,1.682864
59.1304,1.680614
59.1314,1.680051
59.1324,1.679114
59.1333,1.680239
59.1343,1.680426
59.1353,1.683989
59.1363,1.688489
59.1373,1.692052
59.1383,1.695052
59.1393,1.695052
59.1413,1.698239
59.1423,1.698052
59.1433,1.698239
59.1443,1.697864
59.1453,1.694677
59.1463,1.690739
59.1473,1.687176
59.1483,1.683426
59.1493,1.680426
59.1533,1.680426
59.1623,1.680614
59.1720,1.677989
59.1743,1.678926
59.1743,1.680426
59.1752,1.685114
59.1752,1.687739
59.1762,1.692239
59.1762,1.694677
59.1772,1.697864
59.1772,1.697864
59.1782,1.698427
59.1782,1.698989
59.1782,1.696927
59.1792,1.696739
59.1792,1.693364
59.1802,1.688676
59.1808,1.683989
59.1812,1.680614
59.1812,1.679676
59.1824,1.679676
59.1824,1.678926
59.1832,1.678926
59.1842,1.680614
59.1842,1.683614
59.1842,1.688489
59.1852,1.692614
59.1852,1.695614
59.1852,1.697489
59.1862,1.698614
59.1862,1.698614
59.1872,1.698989
59.1872,1.698052
59.1872,1.695802
59.1882,1.690739
59.1882,1.687739
59.1892,1.683051
59.1892,1.680239
59.1902,1.680239
59.1912,1.680239
59.1922,1.678364
59.1932,1.680614
59.1942,1.683239
59.1952,1.686989
59.1962,1.688489
59.1972,1.692427
59.1982,1.694677
59.2002,1.698052
59.2012,1.698052
59.2022,1.698052
59.2032,1.698614
59.2042,1.697864
59.2052,1.695427
59.2062,1.691114
59.2072,1.687927
59.2081,1.683426
59.2091,1.679864
59.2101,1.680051
59.2113,1.679489
59.2121,1.679489
59.2131,1.679301
59.2141,1.681739
59.2158,1.683614
59.2161,1.687739
59.2171,1.691677
59.2181,1.694114
59.2201,1.698427
59.2211,1.698614
59.2221,1.699177
59.2231,1.699177
59.2241,1.697114
59.2252,1.695614
59.2261,1.691489
59.2271,1.689614
59.2281,1.685301
59.2291,1.681926
59.2301,1.680051
59.2311,1.678364
59.2321,1.677989
59.2331,1.677989
59.2341,1.680614
59.2351,1.683239
59.2361,1.688114
59.2371,1.691114
59.2381,1.693177
59.2401,1.696927
59.2411,1.696927
59.2421,1.697864
59.2431,1.696552
59.2460,1.696552
59.2550,1.694489
59.2647,1.690927
59.2680,1.688114
59.2691,1.683614
59.2691,1.680239
59.2700,1.680051
59.2700,1.678739
59.2710,1.679489
59.2710,1.679489
59.2710,1.681176
59.2722,1.683614
59.2722,1.687551
59.2730,1.691302
59.2730,1.695614
59.2740,1.697489
59.2740,1.697489
59.2750,1.698052
59.2750,1.697302
59.2760,1.697302
59.2760,1.695239
59.2770,1.691302
59.2770,1.686989
59.2780,1.683614
59.2780,1.681551
59.2780,1.680801
59.2790,1.678926
59.2790,1.678739
59.2800,1.680989
59.2800,1.680989
59.2810,1.683801
59.2810,1.687927
59.2810,1.691677
59.2820,1.692989
59.2823,1.696927
59.2830,1.697302
59.2839,1.697864
59.2839,1.697114
59.2849,1.694489
59.2849,1.694489
59.2859,1.691114
59.2872,1.689801
59.2879,1.684364
59.2890,1.680989
59.2899,1.679676
59.2910,1.678926
59.2919,1.677801
59.2930,1.680614
59.2939,1.683801
59.2952,1.683801
59.2959,1.687739
59.2969,1.691302
59.2979,1.693739
59.2999,1.697114
59.3009,1.697114
59.3019,1.697114
59.3029,1.697677
59.3039,1.695989
59.3051,1.690927
59.3059,1.690927
59.3069,1.688302
59.3079,1.684176
59.3090,1.681739
59.3099,1.680051
59.3109,1.678551
59.3119,1.678364
59.3130,1.680426
59.3149,1.682864
59.3159,1.682864
59.3169,1.687551
59.3179,1.690739
59.3189,1.694864
59.3199,1.696927
59.3214,1.698052
59.3218,1.701052
59.3231,1.699927
59.3238,1.695614
59.3268,1.691677
59.3278,1.691677
59.3281,1.688114
59.3288,1.684176
59.3288,1.681926
59.3298,1.680614
59.3319,1.679676
59.3329,1.679676
59.3329,1.681176
59.3348,1.684364
59.3358,1.687551
59.3368,1.687551
59.3378,1.690552
59.3388,1.695052
59.3408,1.696739
59.3408,1.697677
59.3418,1.698614
59.3430,1.697489
59.3438,1.696177
59.3450,1.691864
59.3458,1.687927
59.3468,1.687927
59.3478,1.683989
59.3498,1.681926
59.3498,1.680989
59.3518,1.681551
59.3528,1.681364
59.3560,1.681176
59.3577,1.682864
59.3668,1.687927
59.3779,1.691302
59.3817,1.691302
59.3827,1.695614
59.3837,1.697864
59.3848,1.698614
59.3848,1.699552
59.3857,1.698802
59.3857,1.695989
59.3867,1.691489
59.3867,1.688489
59.3877,1.685114
59.3877,1.685114
59.3887,1.682489
59.3887,1.681364
59.3887,1.679676
59.3899,1.680239
59.3899,1.681176
59.3918,1.683989
59.3927,1.687739
59.3927,1.692614
59.3937,1.692614
59.3937,1.694677
59.3937,1.699177
59.3947,1.701052
59.3947,1.699364
59.3956,1.698239
59.3956,1.696927
59.3966,1.691864
59.3966,1.689614
59.3976,1.685676
59.3986,1.685676
59.3991,1.682676
59.3996,1.681364
59.4006,1.681176
59.4006,1.680614
59.4006,1.681739
59.4016,1.683801
59.4016,1.688864
59.4026,1.690927
59.4026,1.694864
59.4026,1.694864
59.4036,1.698427
59.4044,1.698614
59.4047,1.699364
59.4056,1.698427
59.4066,1.696552
59.4066,1.692614
59.4076,1.689427
59.4076,1.684926
59.4086,1.682301
59.4096,1.682301
59.4106,1.682114
59.4116,1.680239
59.4126,1.679676
59.4136,1.681739
59.4146,1.686051
59.4156,1.690552
59.4166,1.692239
59.4176,1.695052
59.4186,1.698052
59.4208,1.698052
59.4216,1.699177
59.4226,1.699552
59.4236,1.698802
59.4246,1.696552
59.4256,1.692802
59.4266,1.690177
59.4276,1.685301
59.4286,1.682864
59.4296,1.681176
59.4306,1.681176
59.4316,1.679864
59.4325,1.680239
59.4337,1.681551
59.4355,1.683989
59.4355,1.688302
59.4365,1.692239
59.4375,1.694864
59.4385,1.697864
59.4401,1.697864
59.4415,1.699364
59.4425,1.700114
59.4435,1.699552
59.4445,1.698239
59.4456,1.695239
59.4465,1.690364
59.4475,1.686239
59.4485,1.683051
59.4496,1.681926
59.4505,1.681926
59.4515,1.680051
59.4525,1.680051
59.4535,1.682114
59.4545,1.685114
59.4555,1.688864
59.4565,1.691864
59.4585,1.695239
59.4590,1.698614
59.4605,1.698989
59.4615,1.698989
59.4625,1.699927
59.4635,1.698989
59.4755,1.696739
59.4854,1.692427
59.4894,1.689239
59.4914,1.685301
59.4924,1.683239
59.4934,1.681551
59.4934,1.680426
59.4934,1.680426
59.4944,1.680614
59.4944,1.681551
59.4954,1.684739
59.4954,1.688489
59.4954,1.692239
59.4964,1.694864
59.4964,1.699739
59.4974,1.700677
59.4974,1.700864
59.4984,1.700864
59.4984,1.699364
59.4994,1.697677
59.4994,1.693739
59.5004,1.690364
59.5004,1.685676
59.5014,1.682864
59.5014,1.680989
59.5014,1.679489
59.5024,1.679489
59.5024,1.680051
59.5034,1.681739
59.5034,1.684364
59.5044,1.688676
59.5045,1.692239
59.5054,1.695052
59.5054,1.698052
59.5064,1.698802
59.5064,1.700489
59.5064,1.700489
59.5074,1.699364
59.5074,1.697114
59.5084,1.693364
59.5084,1.690552
59.5093,1.686802
59.5093,1.685864
59.5093,1.683051
59.5103,1.680801
59.5113,1.679489
59.5123,1.679489
59.5133,1.681739
59.5143,1.684364
59.5153,1.689052
59.5163,1.691489
59.5183,1.696177
59.5193,1.698614
59.5203,1.699364
59.5213,1.700677
59.5223,1.700489
59.5233,1.700489
59.5243,1.696364
59.5253,1.693739
59.5263,1.690552
59.5273,1.685864
59.5283,1.682864
59.5293,1.680989
59.5303,1.679489
59.5313,1.678176
59.5324,1.680989
59.5333,1.680989
59.5343,1.683989
59.5353,1.687176
59.5364,1.693364
59.5373,1.697114
59.5393,1.700677
59.5403,1.700677
59.5413,1.701239
59.5423,1.699739
59.5433,1.697864
59.5442,1.697864
59.5452,1.693927
59.5462,1.690364
59.5472,1.686051
59.5482,1.683051
59.5492,1.680989
59.5503,1.680239
59.5512,1.680239
59.5523,1.680239
59.5532,1.680239
59.5542,1.683426
59.5553,1.687927
59.5562,1.691302
59.5582,1.695802
59.5592,1.698239
59.5602,1.698427
59.5612,1.699177
59.5622,1.699177
59.5632,1.697302
59.5642,1.697302
59.5652,1.693177
59.5662,1.688864
59.5672,1.685864
59.5683,1.684551
59.5692,1.682301
59.5703,1.680051
59.5712,1.678551
59.5722,1.681551
59.5732,1.684364
59.5742,1.684364
59.5752,1.688114
59.5762,1.691489
59.5782,1.695239
59.5792,1.698614
59.5802,1.698989
59.5812,1.700302
59.5822,1.699552
59.5831,1.697302
59.5841,1.693364
59.5872,1.693364
59.5971,1.690177
59.6071,1.685489
59.6101,1.682676
59.6111,1.680051
59.6111,1.679489
59.6121,1.679301
59.6121,1.680989
59.6131,1.683801
59.6131,1.687551
59.6131,1.687551
59.6141,1.690552
59.6141,1.695052
59.6151,1.697114
59.6151,1.697864
59.6161,1.700114
59.6171,1.699177
59.6171,1.696552
59.6171,1.693177
59.6181,1.689427
59.6181,1.689427
59.6190,1.685489
59.6190,1.682301
59.6200,1.680239
59.6200,1.680051
59.6200,1.678739
59.6210,1.680051
59.6210,1.682864
59.6220,1.687739
59.6220,1.687739
59.6230,1.691677
59.6230,1.695052
59.6240,1.698052
59.6240,1.697489
59.6253,1.699739
59.6253,1.699552
59.6260,1.696552
59.6260,1.692427
59.6270,1.689239
59.6270,1.689239
59.6280,1.684926
59.6280,1.684364
59.6290,1.681551
59.6300,1.679676
59.6310,1.678926
59.6321,1.681176
59.6330,1.682864
59.6340,1.686802
59.6350,1.690552
59.6370,1.690552
59.6380,1.693739
59.6390,1.697677
59.6400,1.698614
59.6411,1.699177
59.6420,1.698427
59.6431,1.696177
59.6440,1.693364
59.6452,1.689052
59.6460,1.684926
59.6471,1.684926
59.6480,1.683614
59.6490,1.679676
59.6500,1.679301
59.6511,1.678551
59.6530,1.680051
59.6540,1.683239
59.6540,1.686802
59.6560,1.690739
59.6570,1.694677
59.6582,1.694677
59.6593,1.698052
59.6599,1.699177
59.6609,1.700302
59.6620,1.699177
59.6629,1.695989
59.6641,1.693364
59.6656,1.689052
59.6679,1.685301
59.6689,1.679676
59.6689,1.680426
59.6699,1.680426
59.6723,1.679301
59.6731,1.680239
59.6739,1.682301
59.6749,1.686051
59.6761,1.690177
59.6769,1.693552
59.6780,1.695427
59.6789,1.696364
59.6800,1.697864
59.6809,1.697864
59.6819,1.697864
59.6831,1.695427
59.6839,1.691864
59.6850,1.688676
59.6859,1.685489
59.6879,1.683239
59.6889,1.679301
59.6899,1.678926
59.6909,1.678926
59.6919,1.680051
59.6929,1.679676
59.6941,1.682864
59.6968,1.689239
59.7072,1.691864
59.7179,1.694489
59.7208,1.696364
59.7208,1.697114
59.7218,1.697489
59.7218,1.697489
59.7228,1.697489
59.7228,1.696739
59.7238,1.692052
59.7238,1.689239
59.7248,1.684551
59.7248,1.682301
59.7258,1.678364
59.7258,1.678176
59.7268,1.678176
59.7268,1.678176
59.7278,1.679489
59.7278,1.681926
59.7288,1.686051
59.7288,1.689427
59.7298,1.692239
59.7298,1.695614
59.7298,1.696177
59.7308,1.697864
59.7308,1.698052
59.7317,1.698052
59.7328,1.695802
59.7337,1.694114
59.7337,1.691489
59.7347,1.685301
59.7347,1.680989
59.7347,1.678926
59.7357,1.678926
59.7357,1.678739
59.7367,1.680614
59.7367,1.680614
59.7367,1.682301
59.7377,1.686051
59.7377,1.689614
59.7377,1.692239
59.7387,1.695802
59.7394,1.696739
59.7397,1.698052
59.7418,1.697489
59.7418,1.697489
59.7437,1.693927
59.7447,1.692239
59.7457,1.687739
59.7467,1.684176
59.7490,1.680989
59.7497,1.678551
59.7507,1.678926
59.7507,1.677426
59.7517,1.680239
59.7530,1.680239
59.7543,1.683051
59.7547,1.687176
59.7557,1.688489
59.7577,1.692614
59.7577,1.695989
59.7597,1.697302
59.7607,1.699177
59.7617,1.697677
59.7631,1.695052
59.7637,1.695052
59.7647,1.691864
59.7657,1.688676
59.7667,1.684364
59.7677,1.681364
59.7696,1.678364
59.7696,1.678176
59.7706,1.677801
59.7716,1.679301
59.7732,1.681926
59.7736,1.681926
59.7750,1.685676
59.7776,1.688302
59.7776,1.692802
59.7776,1.695052
59.7796,1.695802
59.7806,1.697677
59.7816,1.696364
59.7826,1.693927
59.7836,1.690927
59.7846,1.690927
59.7856,1.686614
59.7866,1.683614
59.7876,1.682864
59.7886,1.679676
59.7898,1.677801
59.7916,1.676864
59.7926,1.678364
59.7936,1.680801
59.7940,1.684551
59.7956,1.684551
59.7966,1.687551
59.7976,1.691114
59.8016,1.694114
59.8126,1.694864
59.8245,1.696177
59.8285,1.695989
59.8295,1.693739
59.8305,1.691114
59.8305,1.691114
59.8315,1.687551
59.8325,1.683239
59.8335,1.680239
59.8335,1.677614
59.8355,1.676864
59.8355,1.677239
59.8365,1.677426
59.8365,1.679301
59.8365,1.683426
59.8375,1.683426
59.8375,1.687739
59.8385,1.693177
59.8385,1.694302
59.8395,1.694489
59.8395,1.696739
59.8405,1.696552
59.8413,1.693927
59.8415,1.691489
59.8415,1.687176
59.8425,1.687176
59.8425,1.683989
59.8435,1.680239
59.8435,1.677614
59.8444,1.677051
59.8444,1.675364
59.8455,1.676114
59.8455,1.678739
59.8464,1.683239
59.8464,1.687176
59.8474,1.687176
59.8474,1.690364
59.8486,1.692802
59.8486,1.694114
59.8504,1.695614
59.8514,1.694864
59.8514,1.692989
59.8524,1.691489
59.8524,1.687364
59.8534,1.683614
59.8534,1.683614
59.8534,1.679864
59.8544,1.676301
59.8544,1.675926
59.8557,1.675176
59.8557,1.676489
59.8564,1.679114
59.8564,1.682676
59.8574,1.685301
59.8574,1.689801
59.8584,1.689801
59.8584,1.692427
59.8594,1.693364
59.8604,1.694677
59.8614,1.694864
59.8624,1.691864
59.8634,1.689239
59.8644,1.685301
59.8654,1.680801
59.8664,1.680801
59.8674,1.679301
59.8684,1.675926
59.8694,1.675364
59.8714,1.674989
59.8724,1.675739
59.8734,1.677989
59.8744,1.681551
59.8754,1.684364
59.8764,1.688676
59.8774,1.688676
59.8784,1.691489
59.8794,1.692802
59.8804,1.696177
59.8813,1.695802
59.8823,1.692239
59.8833,1.689427
59.8843,1.684364
59.8853,1.681551
59.8863,1.677801
59.8873,1.677801
59.8883,1.675176
59.8903,1.674426
59.8913,1.674426
59.8923,1.675176
59.8933,1.677801
59.8943,1.680614
59.8954,1.683801
59.8963,1.688114
59.8973,1.690739
59.8983,1.690739
59.8993,1.691489
59.9003,1.693927
59.9013,1.692614
59.9023,1.691677
59.9033,1.688864
59.9043,1.684551
59.9053,1.680426
59.9063,1.677426
59.9103,1.674426
59.9302,1.674426
59.9302,1.676114
59.9302,1.674989
59.9354,1.676114
59.9379,1.678551
59.9389,1.682676
59.9389,1.685301
59.9389,1.687176
59.9399,1.690177
59.9399,1.691864
59.9409,1.691864
59.9409,1.692989
59.9419,1.693177
59.9419,1.691489
59.9419,1.687927
59.9432,1.684176
59.9432,1.680051
59.9439,1.677239
59.9439,1.674989
59.9449,1.674239
59.9449,1.674239
59.9459,1.673489
59.9459,1.673864
59.9469,1.675926
59.9469,1.679489
59.9479,1.684364
59.9479,1.687739
59.9489,1.690552
59.9490,1.691489
59.9668,1.691489
59.9678,1.692989
59.9678,1.692052
59.9688,1.690552
59.9688,1.687739
59.9688,1.683614
59.9698,1.680051
59.9698,1.677051
59.9708,1.673489
59.9708,1.673864
59.9708,1.673864
59.9718,1.672551
59.9724,1.673676
59.9728,1.675926
59.9728,1.679114
59.9738,1.682489
59.9738,1.688114
59.9748,1.691114
59.9748,1.691114
59.9758,1.692989
59.9758,1.692989
59.9758,1.693177
59.9768,1.691489
59.9768,1.687739
59.9778,1.683614
59.9778,1.680239
59.9789,1.677051
59.9789,1.673676
59.9798,1.673114
59.9798,1.673676
59.9808,1.673676
59.9808,1.675364
59.9818,1.676489
59.9822,1.679301
59.9828,1.682114
59.9828,1.686989
59.9838,1.689614
59.9838,1.691302
59.9848,1.691864
59.9848,1.692614
59.9848,1.692614
59.9858,1.691114
59.9858,1.688302
59.9868,1.683051
59.9868,1.679301
59.9878,1.676676
59.9878,1.673864
59.9888,1.672176
59.9898,1.671239
59.9911,1.672176
59.9925,1.672176
59.9930,1.675364
59.9937,1.678926
59.9949,1.682676
59.9957,1.686989
59.9967,1.689614
59.9980,1.691677
59.9997,1.694114
60.0001,1.694114
60.0017,1.694114
60.0027,1.689614
60.0037,1.686239
60.0047,1.682301
60.0057,1.679301
60.0067,1.675926
60.0077,1.673114
60.0087,1.672739
60.0097,1.671614
60.0127,1.672551
60.0217,1.672551
60.0342,1.675551
60.0376,1.679114
60.0386,1.681926
60.0386,1.686614
60.0386,1.688864
60.0396,1.690927
60.0396,1.692052
60.0406,1.692239
60.0406,1.691489
60.0416,1.691489
60.0416,1.688114
60.0416,1.683614
60.0426,1.679301
60.0426,1.676114
60.0436,1.673114
60.0436,1.672364
60.0436,1.672551
60.0446,1.672364
60.0446,1.674801
60.0446,1.674801
60.0456,1.679489
60.0456,1.682489
60.0466,1.686051
60.0466,1.688676
60.0466,1.690364
60.0476,1.692239
60.0476,1.691864
60.0486,1.689801
60.0495,1.687176
60.0496,1.687176
60.0506,1.682864
60.0506,1.679301
60.0516,1.676114
60.0516,1.673301
60.0516,1.672176
60.0526,1.671239
60.0526,1.672739
60.0536,1.674989
60.0536,1.674989
60.0546,1.678364
60.0576,1.681364
60.0586,1.686802
60.0586,1.690927
60.0596,1.693177
60.0596,1.694114
60.0606,1.692802
60.0616,1.690364
60.0626,1.688864
60.0636,1.688864
60.0646,1.683051
60.0656,1.679489
60.0666,1.675739
60.0676,1.672926
60.0685,1.672176
60.0701,1.671801
60.0715,1.672176
60.0725,1.674801
60.0735,1.678926
60.0745,1.678926
60.0755,1.681926
60.0765,1.686802
60.0775,1.688864
60.0785,1.690177
60.0795,1.692239
60.0805,1.692239
60.0815,1.690364
60.0825,1.687176
60.0835,1.683426
60.0845,1.683426
60.0855,1.679864
60.0865,1.677051
60.0875,1.675551
60.0895,1.674426
60.0905,1.672364
60.0915,1.671988
60.0925,1.674426
60.0935,1.677989
60.0945,1.681176
60.0955,1.681176
60.0965,1.686614
60.0975,1.689801
60.0985,1.691302
60.0995,1.692052
60.1005,1.691677
60.1015,1.690552
60.1025,1.686989
60.1035,1.683801
60.1045,1.680051
60.1055,1.680051
60.1064,1.675926
60.1074,1.672926
60.1094,1.672364
60.1104,1.671801
60.1114,1.672551
60.1124,1.674426
60.1134,1.678551
60.1144,1.681926
60.1155,1.681926
60.1164,1.686989
60.1174,1.691114
60.1184,1.691302
60.1194,1.691489
60.1235,1.692052
60.1336,1.690364
60.1483,1.687739
60.1529,1.684739
60.1529,1.679864
60.1529,1.679864
60.1539,1.676676
60.1539,1.673114
60.1549,1.672551
60.1549,1.671426
60.1559,1.672551
60.1559,1.674426
60.1569,1.678739
60.1569,1.681926
60.1579,1.686614
60.1579,1.686614
60.1589,1.689239
60.1589,1.691489
60.1589,1.692239
60.1599,1.691489
60.1599,1.689801
60.1609,1.688114
60.1609,1.683051
60.1619,1.679676
60.1619,1.676864
60.1619,1.676864
60.1629,1.673301
60.1629,1.672551
60.1639,1.672176
60.1639,1.672926
60.1649,1.675926
60.1649,1.678926
60.1649,1.682301
60.1660,1.686614
60.1669,1.689239
60.1669,1.689239
60.1679,1.690177
60.1679,1.692427
60.1689,1.691677
60.1689,1.689989
60.1699,1.687927
60.1699,1.681926
60.1709,1.679114
60.1709,1.676114
60.1709,1.673114
60.1719,1.673114
60.1729,1.671426
60.1729,1.671239
60.1729,1.672926
60.1739,1.674989
60.1739,1.678364
60.1749,1.681364
60.1749,1.686427
60.1765,1.687927
60.1769,1.687927
60.1779,1.691302
60.1791,1.692614
60.1799,1.693739
60.1810,1.692614
60.1822,1.687739
60.1838,1.683426
60.1848,1.679864
60.1858,1.676489
60.1868,1.673489
60.1879,1.673489
60.1888,1.672176
60.1899,1.671801
60.1908,1.671988
60.1920,1.674614
60.1928,1.678551
60.1941,1.681926
60.1948,1.686802
60.1961,1.689427
60.1968,1.691302
60.1988,1.691302
60.1998,1.692614
60.2008,1.692239
60.2018,1.690364
60.2028,1.687739
60.2039,1.683239
60.2048,1.679676
60.2058,1.676864
60.2068,1.674051
60.2078,1.673676
60.2091,1.673676
60.2098,1.671051
60.2110,1.672551
60.2118,1.674426
60.2130,1.678176
60.2138,1.681739
60.2150,1.685489
60.2168,1.688302
60.2178,1.691489
60.2187,1.692239
60.2191,1.692239
60.2207,1.692052
60.2217,1.690177
60.2227,1.687364
60.2237,1.683614
60.2247,1.679864
60.2257,1.676301
60.2267,1.673864
60.2277,1.672739
60.2292,1.671614
60.2297,1.671614
60.2311,1.672551
60.2322,1.673864
60.2330,1.677989
60.2347,1.682114
60.2387,1.687176
60.2556,1.688676
60.2596,1.690552
60.2606,1.691677
60.2606,1.691677
60.2616,1.691489
60.2616,1.690364
60.2626,1.687176
60.2626,1.682676
60.2636,1.679864
60.2636,1.675739
60.2646,1.673301
60.2646,1.672364
60.2657,1.671239
60.2666,1.671239
60.2666,1.671988
60.2676,1.674051
60.2676,1.676676
60.2686,1.681176
60.2686,1.686239
60.2696,1.688489
60.2696,1.690739
60.2706,1.691864
60.2706,1.691864
60.2706,1.691864
60.2716,1.690927
60.2716,1.689052
60.2726,1.683239
60.2726,1.680614
60.2736,1.675926
60.2736,1.672364
60.2736,1.672739
60.2746,1.671239
60.2746,1.671614
60.2756,1.671614
60.2756,1.674051
60.2756,1.677426
60.2766,1.681739
60.2766,1.686051
60.2776,1.688676
60.2776,1.691114
60.2786,1.691302
60.2796,1.691864
60.2806,1.690364
60.2816,1.690364
60.2826,1.687739
60.2836,1.683614
60.2846,1.679301
60.2856,1.675551
60.2866,1.673301
60.2876,1.672551
60.2896,1.672739
60.2906,1.673864
60.2916,1.675551
60.2926,1.675551
60.2935,1.677801
60.2945,1.681176
60.2955,1.684739
60.2966,1.687364
60.2976,1.691114
60.2985,1.691677
60.2995,1.692427
60.3009,1.691114
60.3015,1.691114
60.3025,1.687364
60.3035,1.683239
60.3045,1.680426
60.3055,1.675926
60.3075,1.672739
60.3081,1.671988
60.3095,1.670676
60.3105,1.671239
60.3115,1.674051
60.3126,1.674051
60.3135,1.677051
60.3145,1.680989
60.3156,1.685676
60.3167,1.687739
60.3175,1.690552
60.3185,1.691114
60.3195,1.691302
60.3205,1.690177
60.3215,1.687927
60.3225,1.687927
60.3235,1.683801
60.3246,1.679301
60.3259,1.675551
60.3265,1.673114
60.3285,1.673676
60.3295,1.672926
60.3305,1.673301
60.3314,1.673864
60.3324,1.677239
60.3334,1.677239
60.3344,1.681739
60.3354,1.685676
60.3364,1.688114
60.3374,1.690739
60.3384,1.691677
60.3394,1.691677
60.3404,1.690552
60.3414,1.687364
60.3424,1.683614
60.3434,1.683614
60.3444,1.679489
60.3494,1.675551
60.3574,1.673676
60.3664,1.672551
60.3703,1.669926
60.3703,1.670864
60.3713,1.673114
60.3713,1.677426
60.3723,1.681364
60.3723,1.681364
60.3733,1.685676
60.3733,1.688114
60.3733,1.690927
60.3743,1.691864
60.3743,1.692052
60.3753,1.690552
60.3753,1.687739
60.3753,1.683614
60.3764,1.683614
60.3764,1.680426
60.3773,1.676301
60.3773,1.673114
60.3773,1.672364
60.3783,1.671426
60.3783,1.671614
60.3793,1.673864
60.3793,1.676301
60.3803,1.680801
60.3803,1.680801
60.3813,1.686051
60.3813,1.687551
60.3823,1.690739
60.3833,1.691489
60.3833,1.692427
60.3843,1.690552
60.3843,1.688864
60.3843,1.685301
60.3853,1.682301
60.3853,1.682301
60.3863,1.678926
60.3873,1.673864
60.3883,1.672926
60.3893,1.671426
60.3903,1.671426
60.3914,1.674426
60.3923,1.676676
60.3933,1.682301
60.3943,1.686427
60.3953,1.686427
60.3963,1.688489
60.3973,1.691677
60.3983,1.692614
60.3996,1.692239
60.4003,1.691302
60.4013,1.688676
60.4023,1.683614
60.4033,1.680614
60.4043,1.676301
60.4053,1.676301
60.4073,1.673676
60.4082,1.672739
60.4092,1.670676
60.4102,1.671801
60.4112,1.674051
60.4122,1.676676
60.4132,1.681551
60.4142,1.685676
60.4155,1.687739
60.4162,1.687739
60.4172,1.691864
60.4182,1.691677
60.4192,1.692802
60.4202,1.691489
60.4212,1.689801
60.4222,1.686239
60.4232,1.682489
60.4242,1.676864
60.4262,1.676864
60.4272,1.673301
60.4282,1.672926
60.4302,1.671239
60.4312,1.674239
60.4322,1.678176
60.4332,1.682301
60.4342,1.686802
60.4352,1.688302
60.4362,1.691864
60.4372,1.692427
60.4382,1.692427
60.4392,1.693552
60.4402,1.692052
60.4412,1.689427
60.4432,1.684926
60.4441,1.681926
60.4451,1.676676
60.4461,1.672926
60.4471,1.673114
60.4482,1.671801
60.4491,1.671801
60.4501,1.672551
60.4511,1.675551
60.4521,1.679676
60.4531,1.682301
60.4541,1.685489
60.4593,1.689052
60.4693,1.691864
60.4791,1.692427
60.4820,1.692427
60.4822,1.693739
60.4830,1.691864
60.4830,1.688489
60.4840,1.684364
60.4840,1.681739
60.4840,1.676676
60.4850,1.673864
60.4850,1.672739
60.4860,1.671426
60.4860,1.671426
60.4860,1.672364
60.4873,1.674801
60.4873,1.677989
60.4880,1.682489
60.4880,1.685676
60.4890,1.688864
60.4890,1.692802
60.4890,1.692427
60.4900,1.693552
60.4900,1.693552
60.4910,1.692802
60.4910,1.691677
60.4920,1.685301
60.4920,1.682114
60.4920,1.677801
60.4930,1.674426
60.4930,1.672551
60.4940,1.671801
60.4940,1.672364
60.4950,1.672364
60.4950,1.676114
60.4960,1.678926
60.4960,1.683051
60.4970,1.686614
60.4970,1.689052
60.4970,1.692989
60.4980,1.693177
60.4987,1.694114
60.5000,1.692427
60.5000,1.692427
60.5020,1.690177
60.5030,1.685301
60.5040,1.682114
60.5050,1.678176
60.5060,1.673489
60.5070,1.672926
60.5080,1.671239
60.5090,1.673489
60.5101,1.674239
60.5110,1.674239
60.5120,1.677989
60.5130,1.683239
60.5140,1.686802
60.5154,1.690739
60.5160,1.694489
60.5169,1.695427
60.5180,1.696177
60.5189,1.693177
60.5199,1.693177
60.5209,1.689801
60.5229,1.684926
60.5239,1.682676
60.5250,1.676864
60.5259,1.674239
60.5271,1.673864
60.5279,1.672551
60.5291,1.673114
60.5299,1.674614
60.5312,1.674614
60.5319,1.678364
60.5330,1.683051
60.5339,1.687364
60.5352,1.689989
60.5359,1.693739
60.5379,1.693552
60.5379,1.694677
60.5389,1.693177
60.5399,1.691114
60.5419,1.691114
60.5431,1.685676
60.5439,1.682489
60.5451,1.679301
60.5459,1.676301
60.5472,1.675551
60.5479,1.671988
60.5489,1.672176
60.5499,1.674426
60.5511,1.678364
60.5529,1.678364
60.5531,1.683051
60.5548,1.687176
60.5558,1.689801
60.5568,1.693927
60.5578,1.694489
60.5588,1.694677
60.5598,1.693364
60.5608,1.690739
60.5618,1.686614
60.5632,1.686614
60.5638,1.682301
60.5698,1.676864
60.5848,1.674426
60.5898,1.674426
60.5908,1.672926
60.5908,1.672926
60.5908,1.675176
60.5918,1.678551
60.5918,1.682301
60.5927,1.682301
60.5927,1.686802
60.5937,1.691302
60.5937,1.693927
60.5937,1.694489
60.5947,1.695614
60.5947,1.694302
60.5957,1.690364
60.5957,1.686427
60.5967,1.686427
60.5967,1.683614
60.5977,1.678364
60.5977,1.674614
60.5989,1.674051
60.5997,1.672551
60.5997,1.672926
60.6007,1.674989
60.6007,1.677801
60.6017,1.682864
60.6017,1.682864
60.6027,1.687364
60.6027,1.689801
60.6027,1.693927
60.6037,1.694489
60.6037,1.695239
60.6047,1.693552
60.6047,1.690927
60.6047,1.686427
60.6057,1.682114
60.6057,1.682114
60.6067,1.677801
60.6067,1.675176
60.6077,1.672739
60.6077,1.672364
60.6097,1.673114
60.6107,1.675551
60.6117,1.679864
60.6127,1.684739
60.6137,1.688114
60.6147,1.688114
60.6157,1.689614
60.6167,1.693552
60.6177,1.695239
60.6187,1.695614
60.6197,1.693927
60.6207,1.690927
60.6221,1.687551
60.6227,1.682489
60.6240,1.676301
60.6257,1.676301
60.6267,1.674614
60.6277,1.673114
60.6287,1.671614
60.6296,1.671426
60.6306,1.675176
60.6316,1.677801
60.6326,1.682864
60.6336,1.687176
60.6346,1.690364
60.6356,1.690364
60.6366,1.694302
60.6376,1.693739
60.6386,1.695239
60.6396,1.695239
60.6406,1.692802
60.6422,1.688114
60.6426,1.682301
60.6441,1.677614
60.6456,1.677614
60.6466,1.673676
60.6476,1.672739
60.6486,1.671614
60.6496,1.671426
60.6506,1.673676
60.6516,1.677239
60.6526,1.681551
60.6536,1.686614
60.6546,1.690552
60.6556,1.690552
60.6567,1.693927
60.6576,1.693739
60.6586,1.695239
60.6596,1.693739
60.6606,1.691302
60.6622,1.686239
60.6636,1.681926
60.6646,1.677426
60.6656,1.674614
60.6666,1.674614
60.6676,1.672364
60.6685,1.671614
60.6695,1.673301
60.6705,1.674801
60.6715,1.677051
60.6745,1.682676
60.6765,1.686051
60.6869,1.690739
60.6959,1.694114
60.7005,1.694114
60.7015,1.693739
60.7015,1.695427
60.7025,1.693177
60.7025,1.690739
60.7035,1.686427
60.7035,1.682301
60.7044,1.676864
60.7044,1.674426
60.7044,1.671988
60.7054,1.671988
60.7054,1.671426
60.7064,1.671426
60.7064,1.673301
60.7074,1.676864
60.7074,1.682114
60.7074,1.686802
60.7084,1.690364
60.7084,1.694302
60.7094,1.694302
60.7094,1.693739
60.7104,1.695052
60.7104,1.693552
60.7114,1.690552
60.7114,1.686614
60.7124,1.681926
60.7124,1.679301
60.7124,1.675926
60.7134,1.672926
60.7134,1.672926
60.7144,1.671051
60.7144,1.671051
60.7154,1.673676
60.7164,1.677239
60.7164,1.681926
60.7164,1.686614
60.7174,1.690927
60.7174,1.693552
60.7185,1.693927
60.7185,1.693927
60.7194,1.695427
60.7194,1.694489
60.7214,1.691489
60.7224,1.686989
60.7234,1.682489
60.7244,1.676864
60.7254,1.674239
60.7264,1.671614
60.7274,1.671051
60.7284,1.671051
60.7294,1.671051
60.7304,1.673114
60.7314,1.677426
60.7324,1.683989
60.7334,1.688302
60.7344,1.690927
60.7354,1.693739
60.7364,1.694677
60.7374,1.696739
60.7384,1.696739
60.7394,1.694489
60.7414,1.691114
60.7423,1.686802
60.7433,1.681739
60.7443,1.677051
60.7453,1.674051
60.7463,1.671988
60.7473,1.670676
60.7483,1.670864
60.7493,1.670864
60.7503,1.673676
60.7513,1.677614
60.7523,1.682864
60.7533,1.686614
60.7543,1.690739
60.7553,1.694864
60.7563,1.695239
60.7573,1.696364
60.7583,1.695614
60.7593,1.695614
60.7613,1.694302
60.7623,1.688864
60.7633,1.684739
60.7643,1.677614
60.7654,1.674801
60.7663,1.672551
60.7673,1.671051
60.7683,1.672364
60.7693,1.672364
60.7703,1.673864
60.7713,1.677989
60.7723,1.683426
60.7733,1.686427
60.7743,1.690739
60.7753,1.694302
60.7763,1.695239
60.7773,1.697114
60.7783,1.695614
60.7804,1.695614
60.7842,1.691864
60.8002,1.686051
60.8042,1.682676
60.8052,1.677239
60.8052,1.674426
60.8052,1.672176
60.8062,1.672176
60.8062,1.671239
60.8072,1.674801
60.8072,1.674801
60.8082,1.677239
60.8082,1.683426
60.8092,1.687176
60.8092,1.691302
60.8102,1.695802
60.8102,1.696364
60.8112,1.696739
60.8112,1.696364
60.8122,1.692614
60.8122,1.692614
60.8122,1.687927
60.8132,1.683239
60.8132,1.677989
60.8142,1.675551
60.8142,1.672551
60.8152,1.670864
60.8160,1.671426
60.8161,1.673489
60.8171,1.677989
60.8171,1.677989
60.8181,1.682676
60.8181,1.688114
60.8191,1.691677
60.8191,1.695052
60.8191,1.695989
60.8201,1.697489
60.8201,1.695614
60.8211,1.692052
60.8211,1.688676
60.8221,1.688676
60.8231,1.685489
60.8241,1.680239
60.8251,1.675926
60.8261,1.672739
60.8271,1.671988
60.8282,1.672364
60.8291,1.674051
60.8301,1.677989
60.8311,1.677989
60.8321,1.683801
60.8331,1.687739
60.8341,1.692239
60.8351,1.695614
60.8361,1.695989
60.8371,1.697677
60.8381,1.696927
60.8401,1.692802
60.8411,1.688489
60.8421,1.688489
60.8431,1.684176
60.8442,1.678364
60.8454,1.675551
60.8461,1.672364
60.8471,1.671988
60.8481,1.672364
60.8491,1.674614
60.8501,1.678176
60.8511,1.685114
60.8521,1.685114
60.8531,1.688676
60.8541,1.692052
60.8550,1.695802
60.8560,1.696364
60.8570,1.698802
60.8580,1.696927
60.8600,1.692614
60.8611,1.688302
60.8620,1.683051
60.8630,1.683051
60.8640,1.679676
60.8654,1.675176
60.8660,1.671988
60.8670,1.671988
60.8681,1.671426
60.8690,1.674614
60.8701,1.677426
60.8710,1.683426
60.8721,1.686802
60.8730,1.686802
60.8741,1.691302
60.8750,1.696177
60.8760,1.696364
60.8770,1.697114
60.8780,1.696552
60.8800,1.692427
60.8810,1.688302
60.8820,1.683239
60.8830,1.683239
60.8840,1.678739
60.8850,1.675364
60.8860,1.671801
60.8873,1.670676
60.8880,1.670864
60.8893,1.673864
60.8900,1.678364
60.8911,1.683801
60.8961,1.687551
60.9089,1.687551
60.9169,1.692052
60.9189,1.695802
60.9199,1.695989
60.9199,1.697489
60.9209,1.695614
60.9209,1.693177
60.9219,1.689052
60.9219,1.683614
60.9219,1.678551
60.9229,1.678551
60.9229,1.674801
60.9239,1.671239
60.9239,1.671426
60.9249,1.671239
60.9249,1.673864
60.9259,1.677614
60.9259,1.681926
60.9259,1.686239
60.9269,1.690364
60.9269,1.690364
60.9279,1.694489
60.9279,1.695427
60.9288,1.696177
60.9288,1.696739
60.9288,1.692989
60.9298,1.688302
60.9298,1.683614
60.9308,1.677614
60.9308,1.674801
60.9318,1.674801
60.9325,1.671051
60.9328,1.669738
60.9338,1.669926
60.9338,1.673114
60.9338,1.676676
60.9348,1.681364
60.9348,1.685489
60.9358,1.690739
60.9358,1.693739
60.9368,1.693739
60.9368,1.694114
60.9378,1.695802
60.9391,1.694489
60.9398,1.691114
60.9408,1.686989
60.9420,1.681926
60.9430,1.676864
60.9440,1.674239
60.9450,1.674239
60.9459,1.671426
60.9469,1.671239
60.9480,1.670301
60.9493,1.672551
60.9503,1.674801
60.9513,1.681739
60.9513,1.684176
60.9530,1.689427
60.9541,1.693177
60.9551,1.693177
60.9551,1.693739
60.9551,1.696364
60.9551,1.694677
60.9600,1.691114
60.9600,1.687364
60.9620,1.681551
60.9620,1.676489
60.9640,1.673676
60.9653,1.669551
60.9663,1.669551
60.9663,1.668988
60.9663,1.668988
60.9694,1.671239
60.9702,1.675176
60.9712,1.680051
60.9722,1.684364
60.9732,1.688302
60.9742,1.692802
60.9752,1.692427
60.9762,1.692427
60.9772,1.694302
60.9792,1.693739
60.9802,1.689427
60.9812,1.686051
60.9822,1.680426
60.9832,1.674989
60.9842,1.674426
60.9852,1.669363
60.9862,1.668988
60.9872,1.668988
60.9882,1.668613
60.9892,1.670114
60.9902,1.673864
60.9912,1.678926
60.9922,1.683426
60.9932,1.687364
60.9942,1.690739
60.9952,1.691677
60.9962,1.693927
60.9972,1.693927
60.9991,1.692239
61.0002,1.690177
61.0041,1.685114
61.0131,1.680426
61.0241,1.674426
61.0271,1.672551
61.0271,1.668426
61.0282,1.668238
61.0291,1.668238
61.0291,1.668051
61.0301,1.669738
61.0311,1.673114
61.0311,1.679301
61.0328,1.682676
61.0331,1.687739
61.0341,1.690552
61.0341,1.692989
61.0351,1.693927
61.0351,1.693927
61.0361,1.691677
61.0361,1.688864
61.0370,1.684551
61.0370,1.679114
61.0380,1.674426
61.0380,1.671614
61.0380,1.667863
61.0390,1.667676
61.0400,1.667676
61.0400,1.667676
61.0400,1.669176
61.0410,1.671801
61.0410,1.678364
61.0420,1.681739
61.0420,1.687364
61.0430,1.689989
61.0430,1.690739
61.0440,1.692052
61.0440,1.691114
61.0450,1.691114
61.0450,1.688114
61.0460,1.684551
61.0460,1.680051
61.0460,1.675364
61.0470,1.673489
61.0470,1.668988
61.0480,1.668238
61.0490,1.667113
61.0490,1.669176
61.0500,1.669176
61.0500,1.672364
61.0510,1.677801
61.0520,1.681926
61.0530,1.686802
61.0540,1.689989
61.0550,1.690739
61.0560,1.692052
61.0580,1.691302
61.0591,1.687927
61.0600,1.687927
61.0610,1.683426
61.0620,1.678176
61.0631,1.674239
61.0641,1.671051
61.0656,1.667676
61.0660,1.666926
61.0671,1.666551
61.0680,1.668426
61.0690,1.668426
61.0700,1.671801
61.0710,1.677801
61.0721,1.681364
61.0729,1.686051
61.0739,1.689052
61.0749,1.689614
61.0759,1.692239
61.0779,1.692239
61.0789,1.689614
61.0799,1.689614
61.0809,1.686051
61.0820,1.678739
61.0829,1.674239
61.0839,1.671426
61.0849,1.667113
61.0861,1.666738
61.0869,1.665988
61.0880,1.668801
61.0889,1.671614
61.0901,1.671614
61.0909,1.677051
61.0921,1.680801
61.0929,1.686614
61.0939,1.689052
61.0949,1.689614
61.0969,1.690927
61.0980,1.690364
61.0989,1.687364
61.0999,1.682864
61.1010,1.682864
61.1019,1.678551
61.1031,1.673114
61.1039,1.670676
61.1051,1.666176
61.1059,1.666363
61.1071,1.666926
61.1079,1.667863
61.1091,1.670676
61.1108,1.676301
61.1148,1.676301
61.1259,1.680426
61.1368,1.685301
61.1398,1.689239
61.1398,1.689614
61.1408,1.691114
61.1408,1.690552
61.1419,1.687739
61.1428,1.683801
61.1438,1.678364
61.1438,1.678364
61.1448,1.673864
61.1448,1.670301
61.1458,1.667113
61.1458,1.665988
61.1468,1.665051
61.1468,1.667676
61.1478,1.670676
61.1478,1.676114
61.1493,1.679864
61.1497,1.679864
61.1507,1.684551
61.1507,1.689614
61.1517,1.689801
61.1517,1.691864
61.1517,1.691677
61.1527,1.689989
61.1527,1.683051
61.1537,1.678926
61.1537,1.678926
61.1547,1.674801
61.1547,1.669551
61.1557,1.666738
61.1557,1.666176
61.1567,1.665426
61.1567,1.668051
61.1577,1.670301
61.1577,1.676114
61.1587,1.680989
61.1587,1.680989
61.1597,1.685489
61.1597,1.689427
61.1607,1.689614
61.1607,1.691677
61.1607,1.690927
61.1617,1.686802
61.1617,1.683989
61.1627,1.678551
61.1627,1.674801
61.1637,1.674801
61.1637,1.671239
61.1657,1.666926
61.1667,1.666551
61.1677,1.666176
61.1687,1.667863
61.1697,1.671051
61.1707,1.676114
61.1717,1.681364
61.1727,1.686051
61.1737,1.686051
61.1747,1.690364
61.1757,1.689801
61.1767,1.691677
61.1777,1.690927
61.1787,1.688676
61.1801,1.684551
61.1807,1.679301
61.1820,1.674614
61.1827,1.670676
61.1847,1.670676
61.1856,1.667676
61.1866,1.666738
61.1876,1.665613
61.1886,1.669363
61.1896,1.671239
61.1906,1.676489
61.1916,1.679864
61.1946,1.685301
61.1956,1.689989
61.1966,1.691489
61.1971,1.691489
61.1986,1.691677
61.1996,1.688114
61.2006,1.685301
61.2016,1.679489
61.2026,1.674239
61.2036,1.671614
61.2046,1.667113
61.2056,1.666551
61.2066,1.665613
61.2076,1.665613
61.2086,1.667863
61.2096,1.671426
61.2106,1.676114
61.2116,1.680614
61.2129,1.685489
61.2136,1.689801
61.2149,1.689989
61.2166,1.691677
61.2176,1.691677
61.2186,1.691302
61.2196,1.688302
61.2206,1.684739
61.2225,1.678739
61.2295,1.675551
61.2385,1.671051
61.2415,1.667676
61.2415,1.667676
61.2425,1.667301
61.2425,1.667301
61.2435,1.669738
61.2435,1.670864
61.2435,1.676489
61.2445,1.680989
61.2445,1.686051
61.2456,1.689052
61.2456,1.690739
61.2466,1.691864
61.2466,1.692052
61.2476,1.692052
61.2488,1.688864
61.2496,1.685676
61.2506,1.680051
61.2506,1.675551
61.2516,1.671801
61.2516,1.666738
61.2516,1.667488
61.2526,1.665988
61.2526,1.667676
61.2536,1.667676
61.2536,1.670864
61.2546,1.676864
61.2546,1.680614
61.2546,1.686989
61.2556,1.688864
61.2556,1.690739
61.2566,1.692239
61.2576,1.691864
61.2586,1.688489
61.2596,1.688489
61.2606,1.685489
61.2616,1.679676
61.2626,1.676114
61.2636,1.671614
61.2646,1.667301
61.2655,1.667113
61.2665,1.667113
61.2675,1.669176
61.2685,1.671988
61.2695,1.671988
61.2705,1.676489
61.2715,1.680426
61.2731,1.686802
61.2745,1.689427
61.2755,1.691302
61.2765,1.692427
61.2775,1.691302
61.2785,1.688864
61.2795,1.688864
61.2805,1.685301
61.2815,1.679489
61.2825,1.675364
61.2835,1.671614
61.2845,1.667301
61.2855,1.667301
61.2865,1.666738
61.2875,1.668426
61.2885,1.671614
61.2895,1.671614
61.2915,1.676114
61.2925,1.680614
61.2935,1.686239
61.2945,1.689989
61.2945,1.691489
61.2965,1.693739
61.2975,1.693927
61.2985,1.689801
61.2995,1.684926
61.3005,1.684926
61.3015,1.679864
61.3025,1.676114
61.3034,1.671801
61.3044,1.667676
61.3054,1.667488
61.3064,1.666738
61.3074,1.667863
61.3084,1.672364
61.3094,1.676114
61.3114,1.676114
61.3124,1.680426
61.3134,1.686051
61.3144,1.689427
61.3154,1.691302
61.3164,1.692802
61.3174,1.692614
61.3184,1.689052
61.3194,1.685114
61.3204,1.680426
61.3214,1.680426
61.3224,1.675926
61.3234,1.671988
61.3274,1.669363
61.3374,1.668238
61.3450,1.666363
61.3493,1.668988
61.3493,1.671426
61.3493,1.676676
61.3503,1.680614
61.3503,1.680614
61.3513,1.685676
61.3513,1.688864
61.3513,1.689989
61.3523,1.692052
61.3523,1.691864
61.3533,1.689052
61.3533,1.686051
61.3543,1.680239
61.3543,1.680239
61.3543,1.675364
61.3553,1.671051
61.3553,1.667863
61.3553,1.668051
61.3563,1.665801
61.3563,1.667863
61.3573,1.671239
61.3573,1.675739
61.3573,1.679864
61.3583,1.679864
61.3583,1.686051
61.3593,1.689052
61.3593,1.691677
61.3593,1.693927
61.3603,1.693739
61.3603,1.689614
61.3613,1.685301
61.3613,1.680801
61.3613,1.675926
61.3623,1.675926
61.3633,1.671988
61.3643,1.667863
61.3654,1.667301
61.3663,1.666176
61.3673,1.667676
61.3683,1.671614
61.3693,1.675364
61.3713,1.679489
61.3723,1.685676
61.3733,1.685676
61.3743,1.688302
61.3753,1.690364
61.3763,1.691489
61.3772,1.692052
61.3782,1.689052
61.3792,1.684551
61.3802,1.680989
61.3812,1.675551
61.3825,1.671614
61.3832,1.671614
61.3842,1.668051
61.3852,1.668801
61.3862,1.667676
61.3872,1.668426
61.3882,1.670676
61.3892,1.676301
61.3912,1.680426
61.3922,1.685864
61.3932,1.688302
61.3942,1.688302
61.3952,1.690552
61.3962,1.692052
61.3972,1.691302
61.3982,1.689801
61.3992,1.685489
61.4002,1.680239
61.4012,1.675739
61.4022,1.671426
61.4032,1.671426
61.4042,1.668801
61.4052,1.667113
61.4062,1.665988
61.4072,1.668051
61.4082,1.671614
61.4092,1.674614
61.4112,1.679676
61.4122,1.684926
61.4132,1.689052
61.4141,1.689052
61.4153,1.692427
61.4161,1.693739
61.4173,1.693177
61.4181,1.690739
61.4191,1.686051
61.4201,1.680989
61.4211,1.675551
61.4221,1.671426
61.4231,1.668238
61.4241,1.668238
61.4251,1.668238
61.4261,1.666176
61.4271,1.667676
61.4281,1.671051
61.4301,1.675551
61.4311,1.679676
61.4321,1.685676
61.4351,1.689239
61.4392,1.689427
61.4540,1.689427
61.4562,1.691677
61.4590,1.691864
61.4590,1.690177
61.4590,1.685301
61.4600,1.680239
61.4600,1.676114
61.4610,1.671426
61.4610,1.667863
61.4610,1.667488
61.4620,1.667488
61.4620,1.665988
61.4630,1.667488
61.4630,1.670488
61.4630,1.677051
61.4640,1.680426
61.4640,1.684551
61.4650,1.687551
61.4650,1.690927
61.4660,1.692052
61.4670,1.692052
61.4670,1.691864
61.4670,1.689239
61.4680,1.685489
61.4680,1.680989
61.4690,1.676301
61.4690,1.672176
61.4690,1.668238
61.4700,1.667863
61.4700,1.667863
61.4710,1.667301
61.4710,1.667301
61.4710,1.670864
61.4720,1.675739
61.4720,1.680239
61.4730,1.685114
61.4730,1.687364
61.4740,1.689801
61.4752,1.691302
61.4760,1.691302
61.4770,1.692427
61.4780,1.690364
61.4790,1.684926
61.4800,1.679676
61.4810,1.676301
61.4820,1.671988
61.4830,1.668426
61.4840,1.667676
61.4850,1.666176
61.4860,1.666176
61.4870,1.668426
61.4880,1.671051
61.4900,1.675176
61.4910,1.680051
61.4919,1.684926
61.4930,1.687364
61.4939,1.690927
61.4949,1.691302
61.4959,1.691489
61.4969,1.691489
61.4979,1.689052
61.4989,1.685864
61.5000,1.681364
61.5009,1.676301
61.5021,1.671988
61.5029,1.668238
61.5041,1.668988
61.5049,1.668238
61.5059,1.668238
61.5069,1.668238
61.5079,1.670864
61.5099,1.675176
61.5110,1.680239
61.5119,1.685114
61.5130,1.688302
61.5139,1.692052
61.5149,1.692427
61.5159,1.691677
61.5171,1.688864
61.5179,1.688864
61.5190,1.685864
61.5199,1.680801
61.5211,1.677801
61.5219,1.671426
61.5239,1.669176
61.5249,1.668613
61.5249,1.666926
61.5259,1.667676
61.5268,1.667676
61.5294,1.671239
61.5301,1.674801
61.5310,1.680051
61.5318,1.685489
61.5329,1.687739
61.5338,1.691677
61.5352,1.691864
61.5358,1.691677
61.5372,1.689801
61.5378,1.689801
61.5391,1.686614
61.5408,1.681739
61.5448,1.677989
61.5518,1.672739
61.5608,1.668613
61.5610,1.667863
61.5618,1.666738
61.5618,1.667863
61.5628,1.671614
61.5628,1.671614
61.5628,1.674239
61.5638,1.679489
61.5638,1.685301
61.5647,1.688302
61.5647,1.690739
61.5677,1.692239
61.5677,1.692239
61.5687,1.689801
61.5687,1.687176
61.5697,1.687176
61.5697,1.681176
61.5707,1.677426
61.5707,1.673676
61.5707,1.669176
61.5717,1.668988
61.5717,1.667113
61.5727,1.667863
61.5727,1.671426
61.5737,1.676676
61.5737,1.676676
61.5737,1.679676
61.5747,1.685114
61.5747,1.688114
61.5757,1.692052
61.5757,1.692614
61.5767,1.692052
61.5767,1.689801
61.5780,1.686802
61.5797,1.686802
61.5807,1.681551
61.5817,1.678551
61.5827,1.673301
61.5837,1.668801
61.5847,1.668426
61.5857,1.666176
61.5867,1.668426
61.5877,1.671614
61.5887,1.675364
61.5897,1.675364
61.5910,1.680614
61.5923,1.685489
61.5930,1.689052
61.5947,1.692239
61.5952,1.692239
61.5967,1.695052
61.5977,1.692239
61.5987,1.688864
61.5998,1.681739
61.6007,1.681739
61.6017,1.677801
61.6027,1.673864
61.6036,1.669738
61.6046,1.669738
61.6056,1.667676
61.6066,1.668613
61.6076,1.671426
61.6086,1.676301
61.6096,1.681364
61.6110,1.681364
61.6126,1.685489
61.6130,1.688114
61.6146,1.692427
61.6156,1.692802
61.6166,1.693364
61.6176,1.690739
61.6186,1.687176
61.6196,1.681364
61.6206,1.678364
61.6216,1.678364
61.6226,1.673864
61.6236,1.670114
61.6246,1.668426
61.6256,1.667301
61.6266,1.668613
61.6276,1.671614
61.6286,1.676114
61.6301,1.680989
61.6316,1.686051
61.6326,1.686051
61.6336,1.689801
61.6346,1.694677
61.6356,1.694677
61.6366,1.694302
61.6376,1.691489
61.6385,1.688114
61.6395,1.681926
61.6405,1.677614
61.6415,1.677614
61.6425,1.674051
61.6436,1.670676
61.6445,1.669363
61.6455,1.667863
61.6465,1.668988
61.6475,1.672176
61.6485,1.676489
61.6505,1.682864
61.6515,1.686427
61.6525,1.686427
61.6535,1.689239
61.6545,1.693177
61.6555,1.693177
61.6565,1.694114
61.6575,1.691864
61.6585,1.688489
61.6595,1.683426
61.6605,1.679489
61.6615,1.673676
61.6625,1.673676
61.6635,1.672364
61.6645,1.671051
61.6675,1.668613
61.6774,1.668426
61.6864,1.672551
61.6884,1.677051
61.6894,1.681739
61.6894,1.686051
61.6904,1.690177
61.6904,1.690177
61.6904,1.694864
61.6914,1.693927
61.6914,1.694489
61.6914,1.693364
61.6924,1.689614
61.6924,1.683051
61.6934,1.679114
61.6934,1.674426
61.6934,1.671426
61.6944,1.671426
61.6944,1.670676
61.6954,1.668988
61.6954,1.670301
61.6954,1.672739
61.6964,1.677801
61.6964,1.681739
61.6964,1.687551
61.6974,1.691114
61.6974,1.695239
61.6986,1.695239
61.6994,1.694677
61.6994,1.695239
61.7004,1.692989
61.7004,1.689614
61.7014,1.684176
61.7014,1.680989
61.7014,1.675926
61.7024,1.671988
61.7034,1.671988
61.7044,1.671051
61.7054,1.670301
61.7064,1.669738
61.7084,1.673301
61.7094,1.677801
61.7104,1.682489
61.7114,1.687551
61.7124,1.690177
61.7133,1.694302
61.7143,1.694302
61.7153,1.694114
61.7163,1.694677
61.7173,1.692239
61.7183,1.689614
61.7193,1.683426
61.7203,1.682114
61.7213,1.675739
61.7223,1.671988
61.7233,1.671051
61.7243,1.671051
61.7253,1.669926
61.7263,1.670301
61.7273,1.674426
61.7294,1.678739
61.7303,1.684176
61.7313,1.689239
61.7323,1.691677
61.7333,1.696364
61.7343,1.695052
61.7353,1.695052
61.7363,1.695802
61.7373,1.693739
61.7383,1.689989
61.7393,1.684926
61.7403,1.681176
61.7413,1.675551
61.7423,1.672176
61.7433,1.671614
61.7443,1.670488
61.7453,1.670488
61.7463,1.670301
61.7483,1.672926
61.7493,1.677239
61.7503,1.682489
61.7512,1.687364
61.7522,1.691114
61.7532,1.694489
61.7542,1.695239
61.7552,1.695989
61.7562,1.695989
61.7572,1.694114
61.7582,1.689989
61.7592,1.684739
61.7602,1.682301
61.7642,1.677614
61.7705,1.673489
61.7782,1.671988
61.7812,1.670114
61.7812,1.671426
61.7819,1.671426
61.7822,1.673301
61.7832,1.677989
61.7832,1.683614
61.7842,1.687739
61.7842,1.690552
61.7842,1.693927
61.7852,1.695239
61.7852,1.695989
61.7862,1.695989
61.7862,1.693927
61.7872,1.690177
61.7872,1.686051
61.7881,1.681364
61.7881,1.675926
61.7891,1.672551
61.7891,1.672176
61.7891,1.670114
61.7901,1.671426
61.7901,1.671426
61.7911,1.673489
61.7911,1.678739
61.7921,1.684739
61.7921,1.689614
61.7931,1.691864
61.7931,1.694864
61.7941,1.695052
61.7951,1.697114
61.7961,1.694302
61.7971,1.694302
61.7981,1.690927
61.7992,1.685676
61.8001,1.682676
61.8011,1.675926
61.8021,1.672739
61.8031,1.672176
61.8041,1.670864
61.8051,1.671426
61.8071,1.673489
61.8081,1.673489
61.8091,1.677239
61.8101,1.682864
61.8111,1.686989
61.8121,1.690552
61.8131,1.695239
61.8141,1.695427
61.8151,1.695614
61.8161,1.694114
61.8171,1.691489
61.8181,1.691489
61.8191,1.685301
61.8201,1.681551
61.8211,1.677614
61.8221,1.673676
61.8231,1.671801
61.8241,1.669551
61.8251,1.670301
61.8260,1.673301
61.8280,1.677989
61.8290,1.677989
61.8300,1.682676
61.8310,1.687551
61.8320,1.690927
61.8330,1.695052
61.8340,1.694677
61.8350,1.695989
61.8360,1.694114
61.8370,1.690177
61.8380,1.690177
61.8390,1.686239
61.8400,1.682676
61.8411,1.677239
61.8420,1.672739
61.8430,1.672364
61.8440,1.670676
61.8460,1.670864
61.8470,1.673301
61.8482,1.677989
61.8490,1.677989
61.8502,1.684551
61.8510,1.689052
61.8520,1.692052
61.8530,1.696364
61.8540,1.695052
61.8550,1.695989
61.8560,1.693552
61.8570,1.690739
61.8580,1.685489
61.8591,1.685489
61.8600,1.681551
61.8611,1.676301
61.8620,1.672926
61.8630,1.670864
61.8639,1.669551
61.8649,1.671239
61.8669,1.673489
61.8681,1.677239
61.8689,1.682301
61.8701,1.682301
61.8729,1.687176
61.8839,1.690927
61.8929,1.694677
61.8959,1.694864
61.8959,1.696927
61.8969,1.694677
61.8969,1.690927
61.8979,1.686427
61.8979,1.682489
61.8989,1.682489
61.8989,1.677801
61.8999,1.672926
61.8999,1.671988
61.9009,1.670488
61.9009,1.672176
61.9018,1.674426
61.9018,1.677426
61.9028,1.684176
61.9028,1.686989
61.9028,1.686989
61.9038,1.691302
61.9038,1.694302
61.9048,1.695239
61.9048,1.696364
61.9058,1.694489
61.9058,1.691489
61.9058,1.686427
61.9068,1.682864
61.9068,1.682864
61.9078,1.676301
61.9078,1.674051
61.9078,1.672176
61.9088,1.670864
61.9088,1.670676
61.9098,1.674051
61.9098,1.677801
61.9098,1.682676
61.9108,1.687364
61.9108,1.687364
61.9118,1.691489
61.9130,1.695427
61.9138,1.695802
61.9158,1.696177
61.9158,1.695614
61.9168,1.691489
61.9188,1.686614
61.9190,1.682676
61.9208,1.676864
61.9218,1.676864
61.9228,1.674614
61.9238,1.672739
61.9238,1.670301
61.9258,1.671614
61.9268,1.673676
61.9280,1.677989
61.9288,1.682676
61.9300,1.686427
61.9308,1.691114
61.9321,1.691114
61.9330,1.695427
61.9338,1.695239
61.9350,1.696739
61.9358,1.694864
61.9370,1.691114
61.9388,1.687927
61.9397,1.682676
61.9407,1.677426
61.9417,1.675176
61.9427,1.675176
61.9437,1.674051
61.9447,1.671051
61.9457,1.671426
61.9471,1.674614
61.9485,1.677801
61.9487,1.683801
61.9497,1.687739
61.9511,1.690927
61.9517,1.695239
61.9530,1.695239
61.9537,1.696177
61.9569,1.696927
61.9577,1.692427
61.9587,1.687364
61.9597,1.683426
61.9607,1.677614
61.9617,1.674989
61.9630,1.672551
61.9637,1.671239
61.9650,1.671239
61.9657,1.672364
61.9677,1.674801
61.9677,1.678364
61.9697,1.683801
61.9707,1.688864
61.9717,1.693552
61.9727,1.696927
61.9737,1.695802
61.9747,1.698052
61.9756,1.698052
61.9766,1.695802
61.9776,1.692239
61.9786,1.687176
61.9796,1.683426
61.9806,1.677801
61.9816,1.676676
61.9832,1.673114
61.9836,1.671988
61.9851,1.672739
61.9856,1.672739
61.9876,1.674801
61.9886,1.677989
61.9896,1.683239
61.9906,1.688489
61.9916,1.692427
61.9926,1.695427
61.9936,1.696552
61.9968,1.697302
62.0036,1.696927
62.0118,1.696927
62.0155,1.692614
62.0155,1.688114
62.0165,1.683801
62.0165,1.678364
62.0175,1.674989
62.0175,1.672551
62.0185,1.671614
62.0185,1.672176
62.0185,1.672176
62.0195,1.674614
62.0195,1.678739
62.0205,1.683614
62.0205,1.688676
62.0215,1.692052
62.0215,1.694864
62.0215,1.695989
62.0225,1.697489
62.0225,1.696364
62.0235,1.696364
62.0235,1.692614
62.0245,1.688489
62.0245,1.683989
62.0245,1.677801
62.0255,1.676676
62.0255,1.673864
62.0265,1.672551
62.0265,1.673114
62.0275,1.674989
62.0275,1.674989
62.0285,1.677989
62.0295,1.684364
62.0305,1.688302
62.0315,1.691489
62.0325,1.696177
62.0335,1.696927
62.0345,1.698052
62.0355,1.696739
62.0365,1.693927
62.0375,1.693927
62.0385,1.689427
62.0395,1.684551
62.0405,1.678739
62.0425,1.676864
62.0435,1.673489
62.0445,1.673489
62.0455,1.673301
62.0465,1.675551
62.0475,1.679301
62.0485,1.679301
62.0495,1.683614
62.0504,1.688114
62.0514,1.692802
62.0524,1.696177
62.0534,1.697677
62.0544,1.698239
62.0554,1.696927
62.0564,1.693739
62.0574,1.693739
62.0584,1.689801
62.0594,1.684176
62.0604,1.679489
62.0624,1.675551
62.0634,1.672926
62.0644,1.674426
62.0654,1.675364
62.0664,1.677801
62.0674,1.680051
62.0684,1.680051
62.0694,1.684739
62.0704,1.689239
62.0714,1.692989
62.0724,1.696927
62.0734,1.697677
62.0744,1.698802
62.0754,1.695989
62.0764,1.694302
62.0774,1.689989
62.0784,1.689989
62.0794,1.685489
62.0814,1.680614
62.0824,1.677239
62.0834,1.674051
62.0844,1.673301
62.0854,1.672739
62.0864,1.676114
62.0874,1.679301
62.0883,1.684926
62.0893,1.684926
62.0903,1.688676
62.0913,1.692989
62.0923,1.696927
62.0933,1.697489
62.0943,1.699739
62.0953,1.697489
62.0963,1.694114
62.0973,1.690552
62.0983,1.685864
62.0993,1.685864
62.1003,1.679114
62.1023,1.676864
62.1033,1.674239
62.1044,1.674989
62.1073,1.674801
62.1173,1.677989
62.1252,1.680614
62.1282,1.685864
62.1282,1.688864
62.1292,1.688864
62.1292,1.693552
62.1302,1.696364
62.1302,1.697864
62.1312,1.698989
62.1312,1.697864
62.1322,1.695614
62.1322,1.689989
62.1332,1.685489
62.1332,1.685489
62.1342,1.680989
62.1342,1.677426
62.1352,1.674614
62.1352,1.674051
62.1352,1.673114
62.1362,1.675551
62.1362,1.679114
62.1372,1.684551
62.1372,1.689614
62.1382,1.689614
62.1382,1.693927
62.1392,1.697489
62.1392,1.697489
62.1392,1.699177
62.1402,1.700489
62.1402,1.696552
62.1412,1.691864
62.1412,1.686051
62.1422,1.680989
62.1422,1.680989
62.1432,1.679301
62.1432,1.674801
62.1442,1.674426
62.1452,1.673676
62.1462,1.676301
62.1472,1.679864
62.1482,1.684926
62.1492,1.689614
62.1502,1.694114
62.1512,1.694114
62.1522,1.697489
62.1532,1.698614
62.1542,1.699552
62.1552,1.697864
62.1562,1.694677
62.1572,1.690927
62.1582,1.686802
62.1592,1.680801
62.1612,1.678551
62.1621,1.678551
62.1631,1.675176
62.1641,1.674989
62.1652,1.676114
62.1661,1.677614
62.1671,1.680989
62.1681,1.685864
62.1691,1.689801
62.1701,1.694489
62.1711,1.696739
62.1721,1.696739
62.1731,1.698427
62.1741,1.698989
62.1751,1.698239
62.1761,1.695427
62.1771,1.690927
62.1781,1.686239
62.1791,1.681364
62.1811,1.678926
62.1821,1.678926
62.1831,1.674801
62.1841,1.674239
62.1851,1.674051
62.1861,1.675739
62.1871,1.679489
62.1881,1.685301
62.1891,1.688864
62.1901,1.694302
62.1911,1.697489
62.1921,1.697489
62.1931,1.697864
62.1941,1.699739
62.1951,1.698052
62.1961,1.696364
62.1971,1.692427
62.1985,1.688489
62.1991,1.682489
62.2010,1.678551
62.2020,1.675364
62.2030,1.675364
62.2040,1.674801
62.2050,1.674426
62.2060,1.676864
62.2070,1.679489
62.2080,1.686239
62.2090,1.689427
62.2100,1.694489
62.2110,1.697864
62.2120,1.698427
62.2130,1.698427
62.2170,1.700677
62.2250,1.699552
62.2340,1.696364
62.2369,1.692802
62.2369,1.686989
62.2379,1.682114
62.2379,1.679489
62.2379,1.676114
62.2389,1.675364
62.2389,1.675364
62.2389,1.674801
62.2399,1.677614
62.2399,1.680801
62.2409,1.687927
62.2409,1.690739
62.2409,1.695052
62.2419,1.698802
62.2419,1.698427
62.2429,1.698427
62.2429,1.700302
62.2429,1.699739
62.2439,1.695989
62.2439,1.692427
62.2439,1.686802
62.2449,1.683239
62.2449,1.680051
62.2459,1.675926
62.2459,1.675176
62.2459,1.675176
62.2469,1.675364
62.2469,1.676676
62.2479,1.680426
62.2479,1.686614
62.2499,1.690177
62.2499,1.695427
62.2509,1.698052
62.2520,1.699364
62.2529,1.700302
62.2540,1.700302
62.2549,1.700302
62.2559,1.698427
62.2569,1.694302
62.2579,1.687927
62.2589,1.683239
62.2613,1.680426
62.2619,1.674989
62.2629,1.675551
62.2639,1.675739
62.2649,1.675739
62.2659,1.677051
62.2669,1.680989
62.2679,1.685864
62.2690,1.690552
62.2699,1.695802
62.2710,1.699552
62.2719,1.699177
62.2729,1.701052
62.2739,1.699927
62.2748,1.699927
62.2758,1.697114
62.2778,1.692802
62.2778,1.688302
62.2798,1.682864
62.2808,1.680989
62.2820,1.676676
62.2828,1.675739
62.2838,1.675176
62.2848,1.677614
62.2858,1.677614
62.2868,1.681364
62.2888,1.686427
62.2888,1.690927
62.2898,1.695614
62.2908,1.701427
62.2918,1.700677
62.2928,1.701239
62.2938,1.699739
62.2948,1.699739
62.2968,1.697114
62.2978,1.692239
62.2988,1.688864
62.2998,1.683051
62.3008,1.680801
62.3018,1.676676
62.3028,1.676489
62.3038,1.675739
62.3048,1.677614
62.3058,1.677614
62.3068,1.680989
62.3078,1.686989
62.3088,1.691114
62.3098,1.696177
62.3108,1.698802
62.3117,1.700114
62.3137,1.702177
62.3147,1.700677
62.3157,1.697489
62.3167,1.697489
62.3177,1.693552
62.3187,1.689239
62.3197,1.686239
62.3213,1.682114
62.3217,1.678739
62.3229,1.676864
62.3237,1.675739
62.3250,1.677801
62.3267,1.681176
62.3271,1.681176
62.3287,1.686614
62.3290,1.690364
62.3307,1.695989
62.3317,1.699927
62.3327,1.700302
62.3337,1.702552
62.3347,1.701052
62.3357,1.697677
62.3367,1.693739
62.3387,1.693739
62.3407,1.689052
62.3556,1.684176
62.3586,1.680989
62.3596,1.677801
62.3596,1.676676
62.3596,1.675739
62.3606,1.677614
62.3606,1.680989
62.3616,1.687176
62.3616,1.687176
62.3616,1.690739
62.3626,1.694677
62.3626,1.700677
62.3636,1.700677
62.3636,1.701239
62.3636,1.700677
62.3646,1.697864
62.3646,1.694677
62.3657,1.694677
62.3657,1.689614
62.3666,1.683614
62.3666,1.680801
62.3676,1.676489
62.3676,1.676676
62.3676,1.675926
62.3686,1.678364
62.3686,1.681551
62.3696,1.686051
62.3696,1.686051
62.3706,1.690364
62.3706,1.695989
62.3716,1.698989
62.3726,1.700114
62.3736,1.701802
62.3746,1.701427
62.3756,1.698052
62.3766,1.694302
62.3776,1.689427
62.3786,1.689427
62.3796,1.683801
62.3811,1.680989
62.3826,1.676489
62.3836,1.677426
62.3846,1.677426
62.3856,1.679864
62.3865,1.681926
62.3875,1.686802
62.3885,1.690739
62.3895,1.690739
62.3905,1.696364
62.3915,1.699177
62.3925,1.700677
62.3935,1.701614
62.3945,1.700864
62.3955,1.698052
62.3965,1.694489
62.3975,1.689427
62.3985,1.683989
62.4005,1.683989
62.4006,1.681739
62.4025,1.677801
62.4035,1.677801
62.4045,1.676489
62.4055,1.678364
62.4065,1.681176
62.4075,1.685864
62.4085,1.690739
62.4095,1.695427
62.4105,1.695427
62.4115,1.699177
62.4125,1.701052
62.4135,1.702927
62.4145,1.701989
62.4155,1.698802
62.4165,1.694677
62.4175,1.689052
62.4195,1.684551
62.4205,1.684551
62.4215,1.680426
62.4225,1.677051
62.4235,1.677426
62.4244,1.676676
62.4254,1.678739
62.4264,1.681551
62.4274,1.687176
62.4284,1.690739
62.4294,1.695427
62.4304,1.695427
62.4314,1.699364
62.4354,1.699739
62.4454,1.701614
62.4539,1.701052
62.4574,1.698427
62.4574,1.694302
62.4584,1.688864
62.4584,1.685114
62.4594,1.680426
62.4594,1.680426
62.4594,1.678176
62.4604,1.677239
62.4604,1.675926
62.4613,1.677614
62.4613,1.680801
62.4613,1.686614
62.4623,1.690177
62.4623,1.695427
62.4633,1.699927
62.4643,1.699927
62.4643,1.700677
62.4653,1.701239
62.4663,1.701427
62.4663,1.699364
62.4673,1.694302
62.4673,1.689427
62.4673,1.684739
62.4683,1.680614
62.4683,1.677051
62.4693,1.677051
62.4693,1.676301
62.4693,1.675551
62.4703,1.677989
62.4703,1.680801
62.4713,1.686427
62.4713,1.689614
62.4713,1.695239
62.4723,1.698239
62.4723,1.700864
62.4733,1.700864
62.4733,1.701427
62.4743,1.700489
62.4753,1.698052
62.4763,1.693364
62.4773,1.690927
62.4793,1.686239
62.4803,1.682114
62.4813,1.679114
62.4823,1.678926
62.4833,1.678926
62.4843,1.676489
62.4853,1.677426
62.4863,1.680426
62.4873,1.685864
62.4883,1.689801
62.4893,1.695427
62.4903,1.698427
62.4913,1.699927
62.4923,1.699927
62.4933,1.701427
62.4943,1.700114
62.4953,1.697677
62.4963,1.694489
62.4973,1.688676
62.4992,1.684551
62.5002,1.680614
62.5012,1.677239
62.5022,1.676676
62.5032,1.676676
62.5042,1.675739
62.5052,1.677239
62.5062,1.680239
62.5072,1.685864
62.5082,1.689801
62.5092,1.695614
62.5102,1.699364
62.5112,1.701614
62.5122,1.702177
62.5132,1.702177
62.5142,1.700489
62.5152,1.698052
62.5162,1.693177
62.5182,1.688864
62.5192,1.684551
62.5202,1.681551
62.5212,1.676864
62.5222,1.676114
62.5232,1.675364
62.5242,1.675364
62.5252,1.677614
62.5262,1.680614
62.5272,1.685864
62.5282,1.689052
62.5292,1.695427
62.5302,1.697864
62.5312,1.698989
62.5322,1.699927
62.5332,1.700302
62.5342,1.700302
62.5352,1.698427
62.5361,1.693739
62.5401,1.688864
62.5411,1.683426
62.5411,1.681551
62.5411,1.678364
62.5421,1.677426
62.5431,1.676114
62.5441,1.678364
62.5451,1.678364
62.5461,1.680426
62.5471,1.684739
62.5485,1.689239
62.5491,1.693927
62.5501,1.696364
62.5511,1.698989
62.5521,1.700677
62.5531,1.699177
62.5541,1.699177
62.5551,1.697489
62.5651,1.693739
62.5731,1.688114
62.5760,1.684176
62.5770,1.679676
62.5770,1.676489
62.5780,1.675739
62.5780,1.674051
62.5790,1.675739
62.5790,1.675739
62.5790,1.679489
62.5800,1.684551
62.5800,1.687927
62.5810,1.693552
62.5810,1.696177
62.5820,1.697302
62.5820,1.699552
62.5830,1.698989
62.5830,1.696739
62.5840,1.696739
62.5840,1.692427
62.5850,1.687364
62.5850,1.682676
62.5850,1.679114
62.5860,1.675364
62.5860,1.674614
62.5870,1.672739
62.5870,1.675364
62.5870,1.678551
62.5880,1.678551
62.5880,1.682676
62.5890,1.686614
62.5890,1.692802
62.5900,1.695239
62.5910,1.698239
62.5920,1.698239
62.5930,1.698427
62.5940,1.695052
62.5950,1.691864
62.5960,1.691864
62.5970,1.686989
62.5990,1.683614
62.6002,1.679676
62.6010,1.676489
62.6020,1.676301
62.6030,1.674989
62.6040,1.673864
62.6050,1.676676
62.6061,1.681176
62.6070,1.681176
62.6080,1.686239
62.6090,1.691489
62.6101,1.694677
62.6109,1.695989
62.6119,1.697677
62.6129,1.697489
62.6139,1.694677
62.6149,1.690927
62.6169,1.690927
62.6180,1.685864
62.6189,1.680614
62.6200,1.676489
62.6209,1.671801
62.6220,1.672739
62.6229,1.672176
62.6241,1.672926
62.6249,1.675926
62.6261,1.679301
62.6269,1.679301
62.6282,1.684364
62.6299,1.689989
62.6302,1.692427
62.6319,1.696927
62.6319,1.698427
62.6329,1.696177
62.6339,1.693552
62.6349,1.690177
62.6369,1.684739
62.6379,1.684739
62.6389,1.679676
62.6399,1.676676
62.6409,1.671988
62.6419,1.671614
62.6429,1.669738
62.6439,1.671614
62.6449,1.674801
62.6459,1.678551
62.6469,1.683426
62.6479,1.683426
62.6497,1.688489
62.6498,1.691677
62.6508,1.693927
62.6548,1.695427
62.6658,1.695239
62.6738,1.692989
62.6768,1.687739
62.6768,1.683801
62.6778,1.679114
62.6778,1.679114
62.6788,1.674614
62.6788,1.670676
62.6788,1.670488
62.6798,1.668426
62.6798,1.670301
62.6808,1.673489
62.6808,1.678176
62.6808,1.682114
62.6819,1.688489
62.6828,1.688489
62.6828,1.690552
62.6828,1.692989
62.6838,1.692989
62.6838,1.693927
62.6848,1.690364
62.6848,1.687364
62.6848,1.682301
62.6857,1.678551
62.6857,1.678551
62.6867,1.673114
62.6867,1.669926
62.6867,1.669738
62.6877,1.668801
62.6877,1.669738
62.6887,1.672551
62.6887,1.677426
62.6887,1.680614
62.6897,1.686051
62.6897,1.686051
62.6897,1.689427
62.6917,1.692239
62.6927,1.692239
62.6937,1.692989
62.6947,1.690177
62.6957,1.688489
62.6967,1.682301
62.6984,1.678739
62.6997,1.674426
62.6997,1.674426
62.7007,1.670864
62.7017,1.668613
62.7027,1.666551
62.7037,1.668801
62.7047,1.671426
62.7057,1.675551
62.7077,1.680801
62.7087,1.686239
62.7097,1.687927
62.7107,1.687927
62.7117,1.690739
62.7127,1.692052
62.7137,1.691864
62.7147,1.690177
62.7157,1.686427
62.7170,1.680426
62.7177,1.676489
62.7207,1.672176
62.7217,1.667488
62.7226,1.665801
62.7236,1.665801
62.7246,1.667488
62.7256,1.670864
62.7266,1.674614
62.7276,1.680051
62.7286,1.688114
62.7296,1.689427
62.7306,1.690739
62.7321,1.691677
62.7326,1.691489
62.7340,1.691489
62.7356,1.688864
62.7366,1.686427
62.7376,1.680989
62.7386,1.676114
62.7396,1.671614
62.7406,1.667863
62.7416,1.666926
62.7426,1.665051
62.7436,1.666738
62.7446,1.666738
62.7456,1.669738
62.7466,1.674051
62.7476,1.678739
62.7486,1.684739
62.7496,1.686989
62.7506,1.690739
62.7516,1.690739
62.7530,1.691302
62.7546,1.691302
62.7556,1.688864
62.7566,1.684926
62.7576,1.679864
62.7586,1.674801
62.7596,1.670676
62.7625,1.667863
62.7671,1.668426
62.7715,1.664676
62.7805,1.665988
62.7835,1.665988
62.7835,1.669926
62.7835,1.674801
62.7845,1.678739
62.7845,1.684551
62.7855,1.686802
62.7855,1.690364
62.7855,1.690364
62.7865,1.691302
62.7865,1.688489
62.7875,1.688489
62.7875,1.684926
62.7875,1.679114
62.7885,1.674426
62.7885,1.670676
62.7895,1.665426
62.7895,1.665426
62.7895,1.663926
62.7905,1.665051
62.7905,1.668238
62.7915,1.668238
62.7915,1.672926
62.7925,1.678176
62.7925,1.684176
62.7935,1.687551
62.7935,1.691302
62.7945,1.692239
62.7945,1.691677
62.7945,1.688489
62.7955,1.684739
62.7965,1.684739
62.7975,1.679489
62.7986,1.674801
62.7995,1.669176
62.8004,1.666176
62.8014,1.665051
62.8024,1.664113
62.8034,1.665426
62.8044,1.668051
62.8054,1.672364
62.8064,1.672364
62.8075,1.677426
62.8084,1.682864
62.8094,1.686427
62.8114,1.689427
62.8124,1.690739
62.8134,1.690739
62.8144,1.687927
62.8154,1.684551
62.8164,1.684551
62.8174,1.678551
62.8184,1.674614
62.8194,1.669926
62.8204,1.666926
62.8214,1.664676
62.8224,1.663551
62.8234,1.664301
62.8244,1.667113
62.8254,1.673114
62.8264,1.673114
62.8274,1.678551
62.8284,1.683051
62.8294,1.686427
62.8314,1.690364
62.8324,1.689989
62.8334,1.690177
62.8344,1.687739
62.8353,1.683239
62.8363,1.678176
62.8373,1.678176
62.8384,1.673676
62.8393,1.669176
62.8403,1.664863
62.8413,1.664863
62.8423,1.662801
62.8433,1.663926
62.8443,1.667488
62.8453,1.672364
62.8463,1.677239
62.8473,1.677239
62.8483,1.682864
62.8493,1.686051
62.8513,1.689239
62.8523,1.689614
62.8533,1.690552
62.8543,1.689614
62.8553,1.685114
62.8563,1.680426
62.8573,1.674989
62.8583,1.674989
62.8593,1.669738
62.8603,1.665051
62.8613,1.665051
62.8623,1.662238
62.8633,1.662613
62.8643,1.666738
62.8653,1.672364
62.8663,1.677051
62.8673,1.682489
62.8683,1.682489
62.8722,1.685489
62.8812,1.689052
62.8902,1.689801
62.8932,1.690739
62.8932,1.687551
62.8942,1.684364
62.8942,1.678176
62.8952,1.673676
62.8952,1.673676
62.8952,1.668051
62.8962,1.664488
62.8962,1.663551
62.8972,1.662051
62.8972,1.663363
62.8972,1.666738
62.8982,1.671988
62.8992,1.676301
62.8992,1.682489
62.9002,1.682489
62.9002,1.685114
62.9002,1.690364
62.9012,1.689239
62.9012,1.689989
62.9022,1.687551
62.9022,1.683614
62.9032,1.676864
62.9032,1.674051
62.9032,1.668613
62.9042,1.668613
62.9042,1.664488
62.9052,1.663363
62.9052,1.661113
62.9062,1.662988
62.9062,1.665613
62.9062,1.670488
62.9072,1.676114
62.9072,1.681176
62.9082,1.684739
62.9092,1.684739
62.9114,1.689052
62.9121,1.689989
62.9131,1.691677
62.9141,1.688489
62.9151,1.683989
62.9161,1.677051
62.9171,1.672926
62.9181,1.666926
62.9191,1.663738
62.9201,1.663738
62.9211,1.663176
62.9221,1.661113
62.9231,1.661863
62.9241,1.665238
62.9251,1.670114
62.9261,1.675739
62.9271,1.681364
62.9281,1.683801
62.9301,1.683801
62.9311,1.689614
62.9321,1.687927
62.9331,1.689614
62.9341,1.686051
62.9351,1.682676
62.9361,1.676864
62.9371,1.672926
62.9381,1.666551
62.9391,1.663176
62.9401,1.663176
62.9411,1.663363
62.9421,1.660363
62.9431,1.661113
62.9441,1.664301
62.9451,1.669738
62.9461,1.675926
62.9470,1.681364
62.9480,1.683614
62.9500,1.687551
62.9510,1.687551
62.9520,1.688302
62.9530,1.689239
62.9540,1.686239
62.9550,1.682676
62.9560,1.676676
62.9570,1.672551
62.9580,1.666551
62.9590,1.662426
62.9600,1.661863
62.9610,1.661863
62.9620,1.659613
62.9635,1.660738
62.9640,1.664488
62.9650,1.667863
62.9660,1.674989
62.9670,1.680239
62.9670,1.683989
62.9670,1.688676
62.9670,1.688114
62.9721,1.688114
62.9721,1.688676
62.9739,1.686614
62.9739,1.683614
62.9759,1.677239
62.9759,1.672739
62.9779,1.665613
62.9779,1.661488
62.9829,1.660551
62.9863,1.658113
63.0167,1.658113
63.0167,1.660363
63.0177,1.663363
63.0177,1.668801
63.0177,1.675176
63.0177,1.679676
63.0177,1.683426
63.0177,1.687927
63.0177,1.687176
63.0177,1.687176
63.0177,1.689801
63.0177,1.685301
63.0177,1.681926
63.0177,1.676114
63.0177,1.671426
63.0177,1.665613
63.0177,1.661863
63.0177,1.660926
63.0177,1.658863
63.0278,1.658863
63.0278,1.660551
63.0278,1.663363
63.0278,1.668238
63.0318,1.674426
63.0318,1.679864
63.0328,1.683801
63.0328,1.687927
63.0338,1.688302
63.0338,1.688676
63.0338,1.688676
63.0338,1.686239
63.0338,1.682489
63.0338,1.676489
63.0338,1.672176
63.0338,1.666551
63.0338,1.661863
63.0338,1.660551
63.0338,1.658113
63.0338,1.660176
63.0338,1.660176
63.0338,1.662801
63.0338,1.668613
63.0338,1.674801
63.0338,1.679301
63.0338,1.682676
63.0338,1.687927
63.0338,1.688302
63.0338,1.689427
63.0338,1.686802
63.0338,1.686802
63.0338,1.682114
63.0338,1.676489
63.0338,1.671801
63.0338,1.664488
63.0338,1.661301
63.0338,1.659801
63.0489,1.658488
63.0499,1.658863
63.0499,1.663176
63.0499,1.663176
63.0499,1.667488
63.0499,1.674989
63.0499,1.680989
63.0499,1.684364
63.0499,1.689052
63.0499,1.688489
63.0499,1.689614
63.0499,1.686614
63.0499,1.686614
63.0499,1.682114
63.0563,1.675926
63.0573,1.672176
63.0583,1.665051
63.0593,1.660551
63.0603,1.660363
63.0613,1.656613
63.0623,1.658488
63.0633,1.661863
63.0653,1.661863
63.0653,1.667488
63.0663,1.673489
63.0673,1.680051
63.0693,1.684364
63.0703,1.688864
63.0713,1.689427
63.0723,1.690364
63.0733,1.687176
63.0743,1.682676
63.0753,1.682676
63.0763,1.677426
63.0773,1.672364
63.0783,1.665238
63.0793,1.660926
63.0803,1.659426
63.0813,1.656801
63.0823,1.658301
63.0833,1.661863
63.0843,1.667488
63.0853,1.667488
63.0863,1.674051
63.0873,1.680239
63.0893,1.684551
63.0902,1.689052
63.0912,1.689427
63.0922,1.691489
63.0932,1.688489
63.0942,1.682864
63.0952,1.676489
63.0985,1.676489
63.1092,1.671614
63.1182,1.664113
63.1222,1.660926
63.1232,1.659426
63.1232,1.657176
63.1242,1.658676
63.1246,1.661488
63.1252,1.667863
63.1252,1.674239
63.1261,1.674239
63.1261,1.679676
63.1271,1.684739
63.1281,1.689801
63.1281,1.689801
63.1281,1.690927
63.1293,1.688864
63.1293,1.683801
63.1301,1.677051
63.1301,1.672739
63.1311,1.672739
63.1311,1.665051
63.1321,1.659426
63.1331,1.658301
63.1331,1.656426
63.1331,1.656426
63.1341,1.661676
63.1341,1.668426
63.1351,1.675176
63.1351,1.675176
63.1351,1.682114
63.1361,1.686051
63.1361,1.691302
63.1371,1.690552
63.1371,1.691864
63.1371,1.689052
63.1381,1.683239
63.1381,1.677426
63.1391,1.671239
63.1391,1.671239
63.1391,1.664488
63.1401,1.659988
63.1401,1.658301
63.1411,1.656238
63.1421,1.657551
63.1431,1.661863
63.1441,1.667301
63.1451,1.674989
63.1461,1.680051
63.1471,1.680051
63.1494,1.685676
63.1501,1.691302
63.1511,1.691489
63.1521,1.693177
63.1531,1.689801
63.1541,1.684926
63.1554,1.679301
63.1561,1.673114
63.1571,1.665801
63.1581,1.665801
63.1591,1.661488
63.1601,1.658488
63.1611,1.654738
63.1621,1.654551
63.1631,1.660738
63.1640,1.665801
63.1650,1.673676
63.1660,1.679864
63.1680,1.685864
63.1690,1.685864
63.1700,1.691677
63.1710,1.692052
63.1720,1.693927
63.1730,1.692052
63.1740,1.685301
63.1750,1.677989
63.1760,1.671426
63.1771,1.662801
63.1780,1.658113
63.1791,1.658113
63.1800,1.654738
63.1810,1.652675
63.1820,1.651925
63.1830,1.656613
63.1840,1.662801
63.1850,1.670864
63.1860,1.678364
63.1880,1.684739
63.1890,1.684739
63.1900,1.690364
63.1912,1.690552
63.1920,1.692239
63.1931,1.689239
63.1940,1.683989
63.1950,1.676676
63.1960,1.670114
63.1971,1.661676
63.1981,1.656426
63.1991,1.656426
63.2000,1.652675
63.2010,1.650613
63.2019,1.650613
63.2030,1.656051
63.2039,1.662051
63.2049,1.669926
63.2109,1.676114
63.2169,1.682489
63.2259,1.688114
63.2279,1.688114
63.2289,1.689801
63.2289,1.691677
63.2289,1.689239
63.2299,1.683426
63.2299,1.677426
63.2309,1.669738
63.2309,1.660363
63.2309,1.654176
63.2323,1.650238
63.2329,1.650238
63.2339,1.647988
63.2339,1.648175
63.2349,1.652113
63.2349,1.657551
63.2359,1.666551
63.2359,1.673676
63.2369,1.681551
63.2369,1.687176
63.2379,1.688302
63.2379,1.688302
63.2379,1.690927
63.2388,1.688114
63.2388,1.682114
63.2398,1.674614
63.2398,1.667676
63.2408,1.657551
63.2408,1.651738
63.2418,1.64705
63.2418,1.6433
63.2418,1.6433
63.2428,1.642925
63.2438,1.647425
63.2448,1.653425
63.2458,1.662238
63.2468,1.669363
63.2483,1.677614
63.2500,1.685301
63.2500,1.687551
63.2508,1.687551
63.2518,1.689614
63.2528,1.687176
63.2539,1.680989
63.2548,1.672926
63.2559,1.663551
63.2568,1.654176
63.2579,1.647988
63.2588,1.642363
63.2600,1.639738
63.2618,1.639738
63.2618,1.6388
63.2638,1.643675
63.2638,1.64855
63.2658,1.658488
63.2668,1.666363
63.2681,1.673864
63.2688,1.680426
63.2698,1.682489
63.2708,1.684926
63.2719,1.684926
63.2728,1.682864
63.2739,1.676864
63.2748,1.669926
63.2759,1.661301
63.2777,1.651175
63.2787,1.645363
63.2787,1.639175
63.2807,1.637487
63.2817,1.636362
63.2827,1.636362
63.2837,1.6403
63.2847,1.64555
63.2857,1.655301
63.2867,1.662426
63.2880,1.670676
63.2887,1.678176
63.2900,1.679676
63.2907,1.682864
63.2919,1.679864
63.2927,1.679864
63.2939,1.674051
63.2947,1.666551
63.2967,1.658488
63.2977,1.648738
63.2987,1.642363
63.2997,1.635612
63.3007,1.633175
63.3017,1.632425
63.3027,1.63805
63.3037,1.63805
63.3047,1.6433
63.3057,1.653238
63.3067,1.659801
63.3082,1.668613
63.3087,1.676301
63.3102,1.676864
63.3117,1.681176
63.3117,1.678176
63.3136,1.678176
63.3146,1.673301
63.3176,1.665613
63.3276,1.656051
63.3356,1.645925
63.3386,1.640112
63.3386,1.63355
63.3396,1.6313
63.3396,1.629425
63.3396,1.634862
63.3406,1.634862
63.3406,1.640488
63.3416,1.65005
63.3416,1.657926
63.3416,1.666551
63.3426,1.672739
63.3426,1.674801
63.3426,1.678739
63.3436,1.676864
63.3436,1.669738
63.3446,1.669738
63.3446,1.663363
63.3446,1.6538
63.3456,1.64405
63.3456,1.638238
63.3466,1.630737
63.3466,1.628675
63.3476,1.627737
63.3476,1.632987
63.3486,1.638613
63.3486,1.638613
63.3496,1.6478
63.3496,1.654738
63.3505,1.664301
63.3505,1.670676
63.3515,1.672364
63.3515,1.675551
63.3525,1.674426
63.3535,1.667676
63.3545,1.660176
63.3555,1.660176
63.3565,1.652113
63.3575,1.6418
63.3585,1.635987
63.3595,1.628112
63.3605,1.6268
63.3615,1.6253
63.3625,1.6298
63.3635,1.635612
63.3645,1.645363
63.3656,1.645363
63.3665,1.652488
63.3685,1.662051
63.3695,1.669363
63.3705,1.671239
63.3715,1.675739
63.3725,1.674426
63.3735,1.666551
63.3745,1.659238
63.3755,1.659238
63.3765,1.650613
63.3775,1.640112
63.3785,1.633737
63.3795,1.626612
63.3805,1.624549
63.3815,1.623987
63.3825,1.628112
63.3835,1.634675
63.3845,1.644613
63.3865,1.644613
63.3874,1.652113
63.3884,1.661113
63.3894,1.668801
63.3904,1.671051
63.3914,1.674801
63.3924,1.673114
63.3934,1.666176
63.3944,1.659051
63.3954,1.649113
63.3964,1.649113
63.3974,1.639363
63.3984,1.633737
63.3994,1.626237
63.4004,1.623612
63.4014,1.622487
63.4024,1.62755
63.4034,1.633175
63.4044,1.643863
63.4054,1.6508
63.4064,1.6508
63.4084,1.660363
63.4094,1.669363
63.4104,1.671051
63.4114,1.674801
63.4124,1.672551
63.4134,1.665988
63.4144,1.659051
63.4154,1.648738
63.4164,1.6388
63.4174,1.6388
63.4184,1.631862
63.4194,1.624362
63.4204,1.623612
63.4214,1.620612
63.4224,1.625112
63.4234,1.631675
63.4273,1.640863
63.4373,1.649863
63.4453,1.659051
63.4484,1.659051
63.4493,1.666363
63.4493,1.669176
63.4493,1.673301
63.4503,1.671614
63.4503,1.663363
63.4503,1.656988
63.4513,1.647238
63.4513,1.638238
63.4523,1.638238
63.4523,1.631862
63.4523,1.623425
63.4533,1.62155
63.4533,1.620799
63.4533,1.623237
63.4543,1.630175
63.4543,1.639363
63.4543,1.647425
63.4553,1.657926
63.4553,1.657926
63.4563,1.665613
63.4563,1.667676
63.4563,1.673489
63.4573,1.670114
63.4573,1.663738
63.4583,1.656613
63.4583,1.646675
63.4593,1.636175
63.4593,1.629612
63.4593,1.629612
63.4603,1.621362
63.4603,1.618549
63.4613,1.616487
63.4622,1.620799
63.4632,1.626987
63.4642,1.6373
63.4654,1.645175
63.4672,1.656426
63.4682,1.665801
63.4692,1.665801
63.4702,1.667863
63.4712,1.672551
63.4722,1.671426
63.4732,1.663738
63.4742,1.654363
63.4752,1.645175
63.4762,1.635237
63.4772,1.628112
63.4782,1.618737
63.4792,1.618737
63.4802,1.616862
63.4832,1.614424
63.4842,1.625675
63.4852,1.636175
63.4862,1.643675
63.4872,1.654363
63.4883,1.662426
63.4892,1.665238
63.4902,1.670114
63.4912,1.670114
63.4922,1.668238
63.4932,1.661301
63.4942,1.654551
63.4952,1.644425
63.4962,1.633925
63.4972,1.6268
63.4982,1.618174
63.4992,1.615737
63.5001,1.612924
63.5011,1.612924
63.5021,1.619299
63.5041,1.625675
63.5051,1.636925
63.5061,1.643488
63.5071,1.654926
63.5081,1.663176
63.5091,1.664113
63.5101,1.668988
63.5111,1.668613
63.5121,1.668613
63.5131,1.661488
63.5141,1.653425
63.5151,1.643863
63.5161,1.633362
63.5171,1.6268
63.5181,1.617237
63.5191,1.614987
63.5201,1.610674
63.5221,1.614799
63.5232,1.614799
63.5236,1.6223
63.5251,1.633362
63.5261,1.639925
63.5271,1.652675
63.5281,1.661301
63.5291,1.663176
63.5301,1.670301
63.5311,1.669176
63.5321,1.669176
63.5331,1.661676
63.5341,1.654363
63.5351,1.644613
63.5390,1.634487
63.5470,1.625112
63.5561,1.614424
63.5590,1.612549
63.5600,1.610299
63.5600,1.612549
63.5610,1.612549
63.5610,1.621174
63.5620,1.6313
63.5620,1.639363
63.5630,1.6523
63.5630,1.660363
63.5630,1.664301
63.5640,1.669738
63.5640,1.668426
63.5650,1.662426
63.5660,1.662426
63.5660,1.6538
63.5671,1.6433
63.5671,1.631675
63.5680,1.623987
63.5680,1.613487
63.5680,1.611799
63.5690,1.608049
63.5690,1.611612
63.5700,1.620237
63.5700,1.620237
63.5710,1.631675
63.5710,1.6388
63.5710,1.651363
63.5720,1.659801
63.5720,1.663738
63.5730,1.670114
63.5730,1.668426
63.5740,1.661488
63.5740,1.653613
63.5740,1.653613
63.5749,1.643113
63.5759,1.632237
63.5769,1.623425
63.5779,1.612737
63.5789,1.609924
63.5799,1.606549
63.5822,1.610674
63.5829,1.618362
63.5840,1.618362
63.5849,1.62905
63.5860,1.637112
63.5869,1.650613
63.5879,1.660176
63.5889,1.662801
63.5899,1.668801
63.5910,1.668613
63.5919,1.661863
63.5929,1.653988
63.5949,1.653988
63.5951,1.642175
63.5959,1.630925
63.5969,1.624362
63.5982,1.612737
63.5989,1.610112
63.6009,1.606737
63.6020,1.611049
63.6029,1.618174
63.6040,1.627737
63.6049,1.627737
63.6059,1.637487
63.6069,1.6508
63.6079,1.659426
63.6089,1.663551
63.6100,1.670864
63.6109,1.668238
63.6119,1.662238
63.6128,1.654363
63.6139,1.642175
63.6158,1.642175
63.6168,1.632425
63.6178,1.62305
63.6188,1.611987
63.6198,1.610299
63.6208,1.606737
63.6223,1.609924
63.6233,1.618737
63.6241,1.629237
63.6248,1.6388
63.6258,1.6388
63.6268,1.651925
63.6278,1.660738
63.6288,1.662988
63.6298,1.669363
63.6310,1.671051
63.6318,1.662801
63.6329,1.6538
63.6338,1.6433
63.6349,1.632612
63.6368,1.632612
63.6378,1.623987
63.6388,1.612362
63.6398,1.609737
63.6408,1.605424
63.6420,1.610299
63.6428,1.618174
63.6440,1.62905
63.6448,1.637112
63.6478,1.637112
63.6577,1.649863
63.6669,1.659613
63.6707,1.664488
63.6707,1.671426
63.6717,1.671614
63.6717,1.664676
63.6717,1.656051
63.6727,1.644425
63.6727,1.633175
63.6737,1.633175
63.6737,1.62305
63.6737,1.612362
63.6747,1.609737
63.6747,1.605799
63.6757,1.609362
63.6757,1.616674
63.6757,1.627925
63.6767,1.637487
63.6767,1.650613
63.6777,1.650613
63.6777,1.659613
63.6777,1.664863
63.6787,1.670864
63.6787,1.671239
63.6797,1.665051
63.6797,1.655863
63.6797,1.6448
63.6807,1.633362
63.6807,1.6238
63.6817,1.6238
63.6822,1.612174
63.6827,1.608987
63.6827,1.604861
63.6837,1.608424
63.6837,1.617612
63.6847,1.627737
63.6847,1.636925
63.6866,1.65155
63.6870,1.661863
63.6886,1.661863
63.6896,1.665238
63.6906,1.672364
63.6916,1.673301
63.6926,1.667301
63.6936,1.657738
63.6946,1.646113
63.6956,1.635425
63.6966,1.623987
63.6976,1.613487
63.6986,1.613487
63.6996,1.610112
63.7006,1.605049
63.7020,1.609737
63.7026,1.618174
63.7041,1.62755
63.7056,1.638425
63.7066,1.652675
63.7076,1.661113
63.7086,1.661113
63.7096,1.666926
63.7106,1.672176
63.7116,1.674051
63.7126,1.667676
63.7136,1.658113
63.7146,1.646113
63.7156,1.634487
63.7166,1.624362
63.7176,1.613299
63.7186,1.613299
63.7196,1.610862
63.7206,1.606174
63.7223,1.610299
63.7236,1.618549
63.7245,1.629612
63.7255,1.638238
63.7265,1.651738
63.7275,1.661863
63.7285,1.667863
63.7295,1.667863
63.7305,1.674239
63.7315,1.674989
63.7325,1.668051
63.7335,1.659613
63.7345,1.647613
63.7355,1.636362
63.7365,1.624737
63.7375,1.614612
63.7385,1.610674
63.7395,1.610674
63.7405,1.604861
63.7425,1.608237
63.7435,1.617237
63.7440,1.6283
63.7455,1.636737
63.7465,1.65305
63.7475,1.662801
63.7485,1.669363
63.7495,1.676114
63.7505,1.676114
63.7515,1.677989
63.7525,1.670488
63.7535,1.660551
63.7545,1.648925
63.7555,1.637487
63.7565,1.625487
63.7575,1.614799
63.7585,1.611987
63.7605,1.604861
63.7615,1.604861
63.7624,1.607674
63.7634,1.617424
63.7644,1.6283
63.7654,1.637112
63.7664,1.653988
63.7674,1.662238
63.7704,1.670676
63.7784,1.676676
63.7884,1.676676
63.7914,1.677426
63.7914,1.670301
63.7914,1.662238
63.7924,1.649488
63.7924,1.6373
63.7934,1.625862
63.7934,1.615362
63.7934,1.611424
63.7944,1.605424
63.7944,1.605424
63.7954,1.608612
63.7954,1.617612
63.7964,1.627362
63.7964,1.637862
63.7974,1.6523
63.7974,1.663738
63.7983,1.671051
63.7993,1.676864
63.7993,1.679489
63.8003,1.679489
63.8003,1.671614
63.8014,1.662051
63.8014,1.650238
63.8014,1.63805
63.8023,1.62605
63.8023,1.614612
63.8023,1.611612
63.8033,1.605236
63.8033,1.608049
63.8043,1.608049
63.8043,1.617612
63.8043,1.628675
63.8053,1.638988
63.8063,1.654926
63.8073,1.664113
63.8083,1.671988
63.8093,1.677426
63.8103,1.679489
63.8113,1.671801
63.8123,1.671801
63.8133,1.662426
63.8143,1.6508
63.8156,1.638238
63.8163,1.627362
63.8173,1.614987
63.8183,1.611612
63.8203,1.605049
63.8213,1.608987
63.8223,1.617799
63.8233,1.617799
63.8243,1.628862
63.8253,1.639175
63.8263,1.654738
63.8273,1.663551
63.8283,1.672364
63.8293,1.678551
63.8303,1.680426
63.8313,1.672364
63.8323,1.664113
63.8333,1.664113
63.8343,1.651363
63.8353,1.64105
63.8362,1.62755
63.8372,1.615924
63.8382,1.612362
63.8402,1.606174
63.8412,1.609737
63.8422,1.619487
63.8432,1.619487
63.8442,1.628675
63.8452,1.64105
63.8462,1.656801
63.8472,1.665801
63.8482,1.674801
63.8492,1.680239
63.8502,1.681176
63.8512,1.675551
63.8522,1.665238
63.8532,1.665238
63.8542,1.652863
63.8552,1.642363
63.8562,1.628675
63.8572,1.617799
63.8592,1.612924
63.8602,1.606924
63.8612,1.610674
63.8622,1.619674
63.8632,1.630362
63.8642,1.630362
63.8652,1.641425
63.8662,1.656801
63.8672,1.666176
63.8682,1.675739
63.8692,1.680989
63.8702,1.682864
63.8712,1.675926
63.8722,1.665988
63.8732,1.6538
63.8741,1.6538
63.8751,1.642175
63.8761,1.629237
63.8771,1.618174
63.8781,1.614799
63.8841,1.608987
63.8991,1.612174
63.9031,1.621174
63.9031,1.6313
63.9041,1.642925
63.9041,1.642925
63.9051,1.657926
63.9051,1.666738
63.9051,1.676864
63.9061,1.683051
63.9061,1.683426
63.9071,1.675176
63.9071,1.666176
63.9081,1.653988
63.9081,1.643113
63.9081,1.643113
63.9091,1.630362
63.9091,1.618549
63.9101,1.615362
63.9101,1.608612
63.9110,1.611612
63.9110,1.622112
63.9110,1.631675
63.9120,1.644425
63.9120,1.644425
63.9130,1.658488
63.9130,1.667488
63.9130,1.677051
63.9140,1.681364
63.9140,1.684551
63.9155,1.677051
63.9160,1.667113
63.9160,1.6538
63.9170,1.643488
63.9170,1.643488
63.9170,1.6298
63.9180,1.620424
63.9192,1.616674
63.9195,1.609924
63.9215,1.613862
63.9215,1.6238
63.9235,1.633737
63.9245,1.646488
63.9255,1.659801
63.9265,1.659801
63.9275,1.668426
63.9285,1.679301
63.9295,1.682301
63.9305,1.685114
63.9315,1.676864
63.9329,1.667301
63.9335,1.6538
63.9345,1.643863
63.9355,1.63055
63.9365,1.63055
63.9375,1.621362
63.9395,1.617987
63.9405,1.612174
63.9415,1.615174
63.9425,1.625487
63.9435,1.636175
63.9444,1.647238
63.9454,1.660738
63.9464,1.669551
63.9474,1.669551
63.9484,1.679864
63.9494,1.683426
63.9504,1.685676
63.9514,1.677614
63.9524,1.668801
63.9534,1.656426
63.9544,1.644988
63.9554,1.631675
63.9564,1.631675
63.9574,1.621737
63.9594,1.618549
63.9604,1.612737
63.9614,1.615924
63.9624,1.626612
63.9634,1.6358
63.9644,1.648175
63.9656,1.662988
63.9664,1.671801
63.9674,1.671801
63.9684,1.681364
63.9694,1.685301
63.9704,1.687551
63.9714,1.679301
63.9724,1.670114
63.9734,1.656426
63.9744,1.64705
63.9754,1.633925
63.9764,1.62155
63.9774,1.62155
63.9794,1.619487
63.9806,1.613299
63.9843,1.616862
63.9923,1.626425
64.0028,1.636175
64.0063,1.649863
64.0109,1.663551
64.0237,1.672364
64.0264,1.683239
64.0264,1.683239
64.0272,1.686989
64.0272,1.689239
64.0283,1.680239
64.0283,1.671801
64.0292,1.658676
64.0292,1.649488
64.0302,1.635425
64.0302,1.6238
64.0302,1.619674
64.0316,1.619674
64.0322,1.613674
64.0322,1.617612
64.0332,1.626987
64.0332,1.637675
64.0332,1.6508
64.0342,1.664113
64.0342,1.672739
64.0352,1.683989
64.0352,1.687551
64.0362,1.687551
64.0362,1.690364
64.0372,1.682114
64.0372,1.672176
64.0372,1.659238
64.0382,1.648738
64.0382,1.634487
64.0392,1.623425
64.0392,1.621362
64.0402,1.621362
64.0402,1.614237
64.0402,1.617799
64.0412,1.6283
64.0412,1.6388
64.0422,1.6508
64.0422,1.665051
64.0422,1.673676
64.0432,1.685864
64.0432,1.688489
64.0443,1.688489
64.0443,1.691864
64.0452,1.682864
64.0452,1.673676
64.0452,1.659613
64.0462,1.650238
64.0462,1.636175
64.0472,1.625112
64.0472,1.622675
64.0482,1.615737
64.0488,1.615737
64.0492,1.619487
64.0502,1.629987
64.0502,1.639925
64.0502,1.652863
64.0512,1.667863
64.0512,1.676114
64.0522,1.687739
64.0522,1.689989
64.0532,1.693177
64.0532,1.693177
64.0542,1.689427
64.0542,1.677426
64.0552,1.663738
64.0552,1.652675
64.0552,1.639925
64.0562,1.628112
64.0581,1.624175
64.0591,1.620237
64.0602,1.621174
64.0611,1.621174
64.0621,1.63055
64.0631,1.641613
64.0641,1.654176
64.0651,1.667863
64.0661,1.677239
64.0671,1.689801
64.0681,1.691864
64.0691,1.694114
64.0701,1.686614
64.0711,1.686614
64.0721,1.675176
64.0731,1.661113
64.0741,1.6508
64.0751,1.636175
64.0761,1.624737
64.0781,1.621737
64.0792,1.615737
64.0801,1.618737
64.0811,1.618737
64.0821,1.629612
64.0831,1.6403
64.0841,1.654926
64.0851,1.668238
64.0861,1.678176
64.0872,1.691677
64.0881,1.693364
64.0891,1.697114
64.0901,1.688864
64.0911,1.688864
64.0970,1.677614
64.1080,1.663551
64.1180,1.653238
64.1210,1.638238
64.1220,1.62605
64.1220,1.6238
64.1231,1.616299
64.1231,1.618549
64.1240,1.6298
64.1240,1.6298
64.1240,1.640863
64.1250,1.654363
64.1250,1.669551
64.1260,1.679864
64.1260,1.692427
64.1270,1.694864
64.1270,1.698427
64.1280,1.688489
64.1280,1.679489
64.1290,1.679489
64.1290,1.665426
64.1300,1.655488
64.1300,1.638238
64.1310,1.6268
64.1310,1.624175
64.1321,1.616674
64.1321,1.620237
64.1329,1.630925
64.1329,1.641988
64.1339,1.641988
64.1339,1.655488
64.1349,1.669738
64.1349,1.679489
64.1359,1.693364
64.1359,1.695989
64.1359,1.698802
64.1369,1.690552
64.1369,1.679864
64.1379,1.665238
64.1379,1.665238
64.1389,1.655676
64.1389,1.638988
64.1399,1.627925
64.1399,1.623987
64.1409,1.616674
64.1409,1.619112
64.1409,1.629987
64.1423,1.641237
64.1429,1.641237
64.1440,1.655301
64.1451,1.669738
64.1459,1.680426
64.1469,1.693177
64.1488,1.695802
64.1489,1.699177
64.1502,1.689989
64.1519,1.679676
64.1519,1.665801
64.1539,1.665801
64.1539,1.656801
64.1549,1.6388
64.1559,1.6268
64.1579,1.624549
64.1591,1.617237
64.1599,1.619862
64.1610,1.630737
64.1619,1.642175
64.1632,1.656051
64.1639,1.656051
64.1652,1.668613
64.1659,1.680989
64.1671,1.694677
64.1679,1.696927
64.1698,1.700864
64.1708,1.692802
64.1709,1.681176
64.1718,1.667676
64.1738,1.656613
64.1748,1.656613
64.1758,1.639925
64.1768,1.627737
64.1782,1.625487
64.1788,1.618362
64.1803,1.620049
64.1808,1.631675
64.1820,1.643488
64.1828,1.657738
64.1840,1.670301
64.1848,1.670301
64.1860,1.681364
64.1870,1.695614
64.1878,1.697489
64.1890,1.700677
64.1898,1.692802
64.1910,1.682489
64.1928,1.667676
64.1928,1.657926
64.1938,1.657926
64.1958,1.640112
64.1968,1.629425
64.1980,1.626425
64.1988,1.618737
64.2001,1.620987
64.2008,1.6313
64.2038,1.642738
64.2117,1.656988
64.2217,1.671239
64.2247,1.671239
64.2257,1.681551
64.2257,1.695989
64.2267,1.697864
64.2267,1.701614
64.2277,1.693552
64.2277,1.682864
64.2287,1.668613
64.2287,1.658676
64.2287,1.64105
64.2297,1.64105
64.2297,1.629237
64.2307,1.625487
64.2307,1.618924
64.2307,1.62155
64.2321,1.6313
64.2327,1.642925
64.2327,1.657926
64.2337,1.671614
64.2337,1.682301
64.2347,1.682301
64.2347,1.696739
64.2357,1.699177
64.2357,1.702552
64.2357,1.694864
64.2367,1.683801
64.2367,1.669363
64.2377,1.658863
64.2377,1.641237
64.2387,1.629425
64.2387,1.629425
64.2397,1.626612
64.2397,1.619299
64.2397,1.621924
64.2413,1.631487
64.2417,1.643675
64.2436,1.658301
64.2446,1.671426
64.2469,1.682676
64.2477,1.700489
64.2486,1.70349
64.2496,1.70349
64.2506,1.695427
64.2516,1.683801
64.2531,1.670114
64.2536,1.658676
64.2551,1.640675
