27.2023,1.647
27.2023,1.647
27.2023,1.647
27.2023,1.647
27.2023,1.647
27.2023,1.647
27.2033,1.645
27.2033,1.645
27.2033,1.648
27.2033,1.645
27.2033,1.646
27.2033,1.645
27.2033,1.645
27.2043,1.647
27.2043,1.647
27.2043,1.653
27.2043,1.648
27.2043,1.647
27.2043,1.648
27.2043,1.647
27.2054,1.647
27.2054,1.647
27.2054,1.645
27.2054,1.645
27.2054,1.647
27.2054,1.646
27.2054,1.646
27.2054,1.647
27.2064,1.646
27.2064,1.647
27.2064,1.651
27.2064,1.647
27.2064,1.647
27.2064,1.648
27.2064,1.647
27.2074,1.647
27.2074,1.648
27.2074,1.646
27.2074,1.648
27.2074,1.646
27.2074,1.646
27.2084,1.646
27.2084,1.646
27.2084,1.648
27.2084,1.65
27.2084,1.645
27.2084,1.646
27.2084,1.648
27.2094,1.647
27.2094,1.648
27.2094,1.644
27.2094,1.647
27.2094,1.647
27.2094,1.645
27.2094,1.646
27.2104,1.645
27.2104,1.647
27.2104,1.647
27.2104,1.647
27.2104,1.65
27.2104,1.647
27.2104,1.647
27.2104,1.646
27.2114,1.646
27.2114,1.646
27.2114,1.645
27.2114,1.648
27.2114,1.644
27.2114,1.646
27.2123,1.646
27.2123,1.646
27.2123,1.646
27.2123,1.647
27.2123,1.646
27.2123,1.649
27.2123,1.648
27.2133,1.646
27.2133,1.648
27.2133,1.646
27.2133,1.647
27.2133,1.645
27.2133,1.643
27.2133,1.644
27.2143,1.646
27.2143,1.645
27.2143,1.646
27.2143,1.646
27.2143,1.645
27.2143,1.651
27.2143,1.645
27.2143,1.648
27.2153,1.647
27.2153,1.646
27.2153,1.646
27.2153,1.645
27.2153,1.643
27.2153,1.647
27.2153,1.646
27.2163,1.645
27.2163,1.645
27.2163,1.646
27.2163,1.646
27.2163,1.646
27.2163,1.647
27.2173,1.649
27.2173,1.647
27.2173,1.646
27.2173,1.646
27.2173,1.646
27.2173,1.645
27.2173,1.649
27.2183,1.645
27.2183,1.644
27.2183,1.645
27.2183,1.646
27.2183,1.645
27.2183,1.646
27.2183,1.645
27.2193,1.652
27.2193,1.648
27.2193,1.646
27.2193,1.646
27.2193,1.644
27.2193,1.648
27.2193,1.643
27.2193,1.646
27.2203,1.645
27.2203,1.646
27.2203,1.645
27.2203,1.646
27.2203,1.647
27.2203,1.646
27.2203,1.651
27.2213,1.648
27.2213,1.647
27.2213,1.647
27.2213,1.646
27.2213,1.645
27.2213,1.646
27.2213,1.644
27.2213,1.641
27.2223,1.646
27.2223,1.645
27.2223,1.644
27.2223,1.646
27.2223,1.647
27.2223,1.646
27.2233,1.65
27.2233,1.646
27.2233,1.647
27.2233,1.646
27.2233,1.646
27.2233,1.647
27.2233,1.645
27.2243,1.645
27.2243,1.645
27.2243,1.644
27.2243,1.645
27.2243,1.646
27.2243,1.645
27.2243,1.646
27.2253,1.65
27.2253,1.648
27.2253,1.647
27.2253,1.647
27.2253,1.646
27.2253,1.645
27.2253,1.648
27.2263,1.644
27.2263,1.647
27.2263,1.645
27.2263,1.646
27.2263,1.645
27.2263,1.645
27.2263,1.646
27.2273,1.645
27.2273,1.647
27.2273,1.651
27.2273,1.647
27.2273,1.646
27.2273,1.646
27.2273,1.647
27.2273,1.644
27.2283,1.644
27.2283,1.649
27.2283,1.645
27.2283,1.646
27.2283,1.646
27.2283,1.645
27.2293,1.646
27.2293,1.648
27.2293,1.646
27.2293,1.647
27.2293,1.647
27.2293,1.647
27.2293,1.647
27.2293,1.645
27.2303,1.646
27.2303,1.644
27.2303,1.644
27.2303,1.645
27.2303,1.645
27.2303,1.645
27.2303,1.648
27.2313,1.647
27.2333,1.651
27.2343,1.648
27.2382,1.647
27.2452,1.647
27.2462,1.646
27.2483,1.647
27.2483,1.644
27.2483,1.644
27.2483,1.648
27.2492,1.645
27.2492,1.646
27.2492,1.645
27.2492,1.645
27.2492,1.646
27.2492,1.645
27.2492,1.65
27.2502,1.647
27.2502,1.647
27.2502,1.646
27.2502,1.646
27.2502,1.646
27.2502,1.645
27.2502,1.65
27.2502,1.644
27.2512,1.645
27.2512,1.645
27.2512,1.645
27.2512,1.646
27.2512,1.647
27.2512,1.643
27.2512,1.651
27.2522,1.647
27.2522,1.647
27.2522,1.646
27.2522,1.646
27.2522,1.644
27.2522,1.65
27.2532,1.645
27.2532,1.646
27.2532,1.644
27.2532,1.646
27.2532,1.645
27.2532,1.646
27.2532,1.646
27.2532,1.652
27.2542,1.646
27.2542,1.646
27.2542,1.646
27.2542,1.645
27.2542,1.643
27.2542,1.647
27.2542,1.64
27.2552,1.645
27.2552,1.645
27.2552,1.644
27.2552,1.646
27.2552,1.646
27.2552,1.646
27.2552,1.644
27.2562,1.651
27.2562,1.647
27.2562,1.647
27.2562,1.646
27.2562,1.643
27.2562,1.646
27.2572,1.645
27.2572,1.643
27.2572,1.646
27.2572,1.645
27.2582,1.644
27.2582,1.645
27.2582,1.645
27.2592,1.645
27.2592,1.647
27.2592,1.645
27.2592,1.648
27.2592,1.646
27.2592,1.646
27.2592,1.646
27.2602,1.646
27.2602,1.648
27.2602,1.641
27.2612,1.644
27.2612,1.643
27.2612,1.645
27.2612,1.645
27.2612,1.647
27.2612,1.646
27.2612,1.644
27.2622,1.645
27.2622,1.647
27.2622,1.645
27.2622,1.645
27.2622,1.645
27.2622,1.646
27.2632,1.645
27.2632,1.646
27.2632,1.644
27.2632,1.645
27.2632,1.645
27.2632,1.646
27.2632,1.645
27.2642,1.649
27.2642,1.645
27.2642,1.646
27.2642,1.647
27.2642,1.646
27.2642,1.645
27.2642,1.644
27.2652,1.644
27.2652,1.645
27.2652,1.644
27.2652,1.644
27.2652,1.645
27.2652,1.645
27.2652,1.645
27.2662,1.648
27.2662,1.646
27.2662,1.644
27.2662,1.646
27.2662,1.646
27.2662,1.645
27.2662,1.645
27.2672,1.643
27.2672,1.646
27.2672,1.644
27.2672,1.644
27.2672,1.645
27.2672,1.645
27.2672,1.646
27.2682,1.646
27.2682,1.652
27.2682,1.646
27.2682,1.645
27.2682,1.647
27.2682,1.645
27.2682,1.645
27.2692,1.644
27.2692,1.646
27.2692,1.648
27.2692,1.645
27.2692,1.645
27.2692,1.645
27.2692,1.646
27.2702,1.646
27.2702,1.644
27.2702,1.648
27.2702,1.648
27.2702,1.647
27.2702,1.646
27.2702,1.644
27.2712,1.646
27.2712,1.645
27.2712,1.644
27.2712,1.645
27.2712,1.645
27.2712,1.644
27.2712,1.645
27.2722,1.645
27.2722,1.644
27.2722,1.646
27.2722,1.645
27.2722,1.648
27.2722,1.646
27.2732,1.647
27.2732,1.644
27.2732,1.646
27.2732,1.644
27.2732,1.643
27.2732,1.644
27.2732,1.645
27.2732,1.645
27.2741,1.646
27.2741,1.646
27.2741,1.646
27.2751,1.651
27.2751,1.646
27.2751,1.647
27.2751,1.645
27.2751,1.646
27.2751,1.643
27.2751,1.647
27.2761,1.644
27.2761,1.645
27.2761,1.645
27.2761,1.644
27.2761,1.645
27.2761,1.645
27.2761,1.646
27.2771,1.652
27.2771,1.646
27.2771,1.646
27.2771,1.648
27.2771,1.646
27.2771,1.647
27.2771,1.646
27.2781,1.643
27.2781,1.648
27.2781,1.645
27.2781,1.644
27.2781,1.646
27.2781,1.646
27.2781,1.645
27.2791,1.65
27.2791,1.648
27.2791,1.646
27.2791,1.647
27.2791,1.646
27.2791,1.646
27.2791,1.645
27.2801,1.644
27.2801,1.644
27.2801,1.644
27.2801,1.644
27.2801,1.645
27.2801,1.645
27.2801,1.647
27.2811,1.649
27.2811,1.649
27.2811,1.647
27.2811,1.646
27.2811,1.647
27.2811,1.646
27.2811,1.646
27.2821,1.644
27.2821,1.647
27.2821,1.644
27.2821,1.644
27.2821,1.645
27.2821,1.646
27.2831,1.646
27.2831,1.646
27.2831,1.65
27.2831,1.648
27.2831,1.645
27.2831,1.646
27.2831,1.645
27.2841,1.646
27.2841,1.647
27.2841,1.645
27.2841,1.646
27.2841,1.645
27.2841,1.645
27.2841,1.645
27.2841,1.646
27.2851,1.646
27.2851,1.645
27.2851,1.654
27.2851,1.647
27.2851,1.647
27.2851,1.646
27.2851,1.646
27.2861,1.647
27.2861,1.646
27.2861,1.644
27.2861,1.65
27.2861,1.646
27.2861,1.645
27.2861,1.645
27.2871,1.647
27.2871,1.647
27.2871,1.645
27.2871,1.649
27.2871,1.647
27.2871,1.647
27.2871,1.647
27.2881,1.646
27.2881,1.645
27.2881,1.648
27.2881,1.644
27.2881,1.644
27.2881,1.645
27.2881,1.645
27.2881,1.645
27.2891,1.647
27.2891,1.646
27.2891,1.654
27.2891,1.646
27.2891,1.647
27.2891,1.648
27.2891,1.647
27.2901,1.647
27.2901,1.647
27.2901,1.644
27.2901,1.646
27.2901,1.648
27.2901,1.646
27.2911,1.646
27.2911,1.646
27.2911,1.647
27.2911,1.647
27.2911,1.648
27.2911,1.647
27.2911,1.647
27.2921,1.648
27.2921,1.646
27.2921,1.65
27.2921,1.644
27.2921,1.643
27.2931,1.645
27.2931,1.646
27.2931,1.646
27.2931,1.647
27.2931,1.646
27.2931,1.651
27.2931,1.647
27.2941,1.647
27.2941,1.648
27.2941,1.647
27.2941,1.647
27.2941,1.645
27.2941,1.648
27.2941,1.65
27.2951,1.645
27.2951,1.646
27.2951,1.646
27.2951,1.645
27.2951,1.647
27.2951,1.647
27.2951,1.649
27.2951,1.648
27.2961,1.648
27.2961,1.648
27.2961,1.648
27.2961,1.646
27.2961,1.646
27.2971,1.645
27.2971,1.648
27.2971,1.646
27.2971,1.645
27.2971,1.646
27.2971,1.647
27.2971,1.646
27.2981,1.653
27.2981,1.646
27.2981,1.648
27.2981,1.648
27.2981,1.647
27.2981,1.644
27.2981,1.647
27.2981,1.646
27.2991,1.644
27.2991,1.645
27.2991,1.646
27.2991,1.646
27.2991,1.646
27.2991,1.648
27.2991,1.646
27.3001,1.65
27.3001,1.648
27.3001,1.649
27.3001,1.649
27.3001,1.648
27.3001,1.648
27.3001,1.645
27.3011,1.647
27.3011,1.651
27.3011,1.645
27.3011,1.645
27.3011,1.647
27.3011,1.645
27.3011,1.649
27.3021,1.646
27.3021,1.646
27.3021,1.648
27.3021,1.648
27.3021,1.649
27.3021,1.648
27.3021,1.646
27.3031,1.644
27.3031,1.649
27.3031,1.645
27.3031,1.647
27.3031,1.646
27.3031,1.647
27.3031,1.648
27.3041,1.648
27.3041,1.652
27.3041,1.647
27.3041,1.648
27.3041,1.648
27.3041,1.647
27.3041,1.648
27.3051,1.645
27.3051,1.65
27.3051,1.646
27.3051,1.646
27.3051,1.646
27.3051,1.646
27.3051,1.647
27.3061,1.647
27.3061,1.649
27.3061,1.654
27.3061,1.647
27.3061,1.649
27.3061,1.648
27.3061,1.647
27.3071,1.649
27.3071,1.648
27.3071,1.644
27.3071,1.647
27.3071,1.646
27.3071,1.647
27.3081,1.648
27.3081,1.648
27.3081,1.649
27.3081,1.651
27.3081,1.647
27.3081,1.648
27.3081,1.649
27.3091,1.648
27.3091,1.648
27.3091,1.649
27.3091,1.65
27.3091,1.65
27.3091,1.647
27.3091,1.647
27.3101,1.647
27.3101,1.647
27.3101,1.649
27.3101,1.648
27.3101,1.65
27.3101,1.653
27.3101,1.648
27.3111,1.648
27.3111,1.648
27.3111,1.647
27.3111,1.648
27.3111,1.649
27.3111,1.646
27.3111,1.647
27.3120,1.647
27.3120,1.647
27.3120,1.649
27.3120,1.649
27.3130,1.647
27.3130,1.652
27.3130,1.648
27.3130,1.649
27.3130,1.649
27.3130,1.648
27.3140,1.645
27.3140,1.648
27.3140,1.647
27.3140,1.647
27.3140,1.647
27.3140,1.648
27.3140,1.647
27.3150,1.648
27.3150,1.648
27.3150,1.653
27.3150,1.648
27.3150,1.649
27.3160,1.649
27.3160,1.648
27.3160,1.649
27.6575,1.646
27.6575,1.65
27.6585,1.648
27.6585,1.647
27.6585,1.647
27.6585,1.647
27.6595,1.649
27.6595,1.648
27.6595,1.647
27.6605,1.654
27.6605,1.649
27.6605,1.651
27.6605,1.649
27.6615,1.649
27.6635,1.648
27.6655,1.648
27.6705,1.648
27.6775,1.648
27.6785,1.647
27.6805,1.647
27.6805,1.648
27.6805,1.649
27.6805,1.648
27.6815,1.652
27.6815,1.65
27.6815,1.649
27.6815,1.649
27.6815,1.649
27.6815,1.65
27.6825,1.646
27.6825,1.65
27.6825,1.649
27.6825,1.647
27.6825,1.647
27.6825,1.649
27.6825,1.648
27.6834,1.649
27.6834,1.65
27.6834,1.655
27.6834,1.647
27.6834,1.65
27.6834,1.649
27.6834,1.648
27.6844,1.648
27.6844,1.649
27.6844,1.648
27.6844,1.648
27.6844,1.648
27.6844,1.647
27.6844,1.649
27.6844,1.649
27.6854,1.65
27.6854,1.654
27.6854,1.651
27.6854,1.65
27.6854,1.649
27.6854,1.65
27.6854,1.651
27.6865,1.651
27.6865,1.649
27.6865,1.648
27.6865,1.651
27.6865,1.648
27.6865,1.65
27.6865,1.649
27.6875,1.65
27.6875,1.649
27.6875,1.654
27.6875,1.65
27.6875,1.65
27.6875,1.65
27.6875,1.65
27.6885,1.65
27.6885,1.65
27.6885,1.648
27.6885,1.652
27.6885,1.648
27.6885,1.648
27.6885,1.649
27.6895,1.649
27.6895,1.649
27.6895,1.652
27.6895,1.654
27.6895,1.65
27.6895,1.651
27.6895,1.65
27.6895,1.652
27.6905,1.65
27.6905,1.646
27.6905,1.651
27.6905,1.65
27.6914,1.648
27.6914,1.649
27.6914,1.649
27.6924,1.651
27.6924,1.65
27.6924,1.65
27.6924,1.651
27.6924,1.651
27.6924,1.651
27.6924,1.651
27.6934,1.649
27.6934,1.651
27.6934,1.647
27.6934,1.649
27.6934,1.648
27.6934,1.649
27.6934,1.649
27.6944,1.648
27.6944,1.652
27.6944,1.652
27.6944,1.648
27.6944,1.651
27.6944,1.651
27.6944,1.65
27.6954,1.651
27.6954,1.648
27.6954,1.648
27.6954,1.653
27.6954,1.649
27.6954,1.65
27.6954,1.649
27.6964,1.651
27.6964,1.65
27.6964,1.652
27.6964,1.652
27.6964,1.651
27.6964,1.652
27.6964,1.652
27.6974,1.652
27.6974,1.652
27.6974,1.653
27.6974,1.65
27.6974,1.653
27.6974,1.65
27.6974,1.649
27.6974,1.65
27.6984,1.651
27.6984,1.65
27.6984,1.655
27.6984,1.652
27.6984,1.651
27.6984,1.652
27.6984,1.651
27.6994,1.65
27.6994,1.652
27.6994,1.649
27.6994,1.653
27.6994,1.651
27.6994,1.65
27.6994,1.651
27.7004,1.651
27.7004,1.651
27.7004,1.651
27.7004,1.65
27.7004,1.651
27.7004,1.652
27.7004,1.652
27.7014,1.651
27.7014,1.65
27.7014,1.653
27.7014,1.654
27.7014,1.648
27.7014,1.65
27.7014,1.649
27.7014,1.65
27.7024,1.652
27.7024,1.652
27.7024,1.652
27.7024,1.654
27.7024,1.654
27.7024,1.652
27.7024,1.651
27.7034,1.65
27.7034,1.651
27.7034,1.652
27.7034,1.651
27.7034,1.65
27.7034,1.649
27.7034,1.65
27.7044,1.652
27.7044,1.651
27.7044,1.653
27.7044,1.654
27.7044,1.652
27.7044,1.652
27.7044,1.652
27.7044,1.652
27.7054,1.652
27.7054,1.649
27.7054,1.652
27.7054,1.655
27.7054,1.651
27.7054,1.65
27.7054,1.651
27.7064,1.652
27.7064,1.65
27.7064,1.654
27.7064,1.652
27.7064,1.653
27.7064,1.652
27.7064,1.652
27.7074,1.652
27.7074,1.65
27.7074,1.651
27.7074,1.655
27.7084,1.65
27.7084,1.649
27.7084,1.65
27.7084,1.652
27.7084,1.651
27.7084,1.652
27.7084,1.651
27.7094,1.655
27.7094,1.652
27.7094,1.652
27.7094,1.652
27.7094,1.651
27.7094,1.652
27.7094,1.654
27.7104,1.65
27.7104,1.65
27.7104,1.651
27.7104,1.651
27.7104,1.652
27.7104,1.652
27.7104,1.653
27.7114,1.656
27.7114,1.652
27.7114,1.652
27.7114,1.653
27.7114,1.652
27.7114,1.652
27.7114,1.654
27.7124,1.65
27.7124,1.649
27.7124,1.65
27.7124,1.651
27.7124,1.651
27.7124,1.651
27.7124,1.653
27.7134,1.652
27.7134,1.653
27.7134,1.654
27.7134,1.653
27.7134,1.653
27.7134,1.652
27.7134,1.651
27.7144,1.654
27.7144,1.654
27.7144,1.652
27.7144,1.65
27.7144,1.651
27.7144,1.652
27.7144,1.653
27.7144,1.653
27.7154,1.651
27.7154,1.653
27.7154,1.652
27.7154,1.652
27.7154,1.653
27.7154,1.649
27.7154,1.652
27.7164,1.657
27.7164,1.651
27.7164,1.65
27.7164,1.651
27.7164,1.652
27.7164,1.653
27.7164,1.652
27.7174,1.651
27.7174,1.655
27.7174,1.652
27.7174,1.653
27.7174,1.653
27.7174,1.653
27.7174,1.652
27.7174,1.656
27.7184,1.65
27.7184,1.652
27.7184,1.651
27.7184,1.65
27.7184,1.654
27.7184,1.652
27.7184,1.652
27.7194,1.653
27.7194,1.657
27.7194,1.653
27.7194,1.653
27.7194,1.653
27.7194,1.651
27.7194,1.651
27.7204,1.657
27.7204,1.651
27.7204,1.652
27.7204,1.651
27.7204,1.651
27.7204,1.652
27.7204,1.654
27.7204,1.65
27.7214,1.654
27.7214,1.654
27.7214,1.653
27.7214,1.653
27.7214,1.653
27.7214,1.652
27.7214,1.651
27.7223,1.656
27.7223,1.652
27.7223,1.651
27.7223,1.652
27.7223,1.653
27.7223,1.652
27.7223,1.655
27.7233,1.657
27.7233,1.653
27.7233,1.653
27.7233,1.653
27.7233,1.653
27.7244,1.653
27.7244,1.653
27.7244,1.655
27.7244,1.652
27.7244,1.651
27.7244,1.652
27.7244,1.652
27.7254,1.653
27.7254,1.652
27.7254,1.654
27.7254,1.654
28.3392,1.654
28.3392,1.652
28.3392,1.652
28.3392,1.653
28.3402,1.652
28.3402,1.651
28.3402,1.651
28.3402,1.652
28.3412,1.651
28.3412,1.652
28.3412,1.652
28.3422,1.654
28.3422,1.653
28.3422,1.654
28.3432,1.653
28.3432,1.653
28.3432,1.651
28.3442,1.653
28.3442,1.651
28.3442,1.653
28.3452,1.652
28.3452,1.652
28.3452,1.652
28.3462,1.652
28.3462,1.653
28.3462,1.652
28.3472,1.656
28.3472,1.651
28.3472,1.654
28.3472,1.654
28.3482,1.653
28.3482,1.652
28.3482,1.653
28.3492,1.651
28.3492,1.65
28.3492,1.652
28.3492,1.652
28.3492,1.652
28.3502,1.653
28.3502,1.653
28.3502,1.652
28.3502,1.659
28.3502,1.654
28.3502,1.654
28.3502,1.653
28.3512,1.654
28.3512,1.653
28.3512,1.655
28.3512,1.651
28.3512,1.652
28.3512,1.652
28.3512,1.652
28.3512,1.652
28.3522,1.654
28.3522,1.652
28.3522,1.654
28.3522,1.656
28.3522,1.653
28.3522,1.654
28.3532,1.653
28.3532,1.654
28.3532,1.655
28.3532,1.652
28.3532,1.651
28.3532,1.654
28.3532,1.653
28.3542,1.652
28.3542,1.654
28.3542,1.654
28.3542,1.653
28.3542,1.657
28.3542,1.653
28.3542,1.654
28.3552,1.655
28.3552,1.654
28.3552,1.654
28.3552,1.65
28.3552,1.655
28.3552,1.657
28.3552,1.652
28.3552,1.653
28.3562,1.653
28.3562,1.653
28.3562,1.653
28.3562,1.655
28.3562,1.655
28.3562,1.656
28.3562,1.654
28.3572,1.654
28.3572,1.652
28.3572,1.655
28.3572,1.652
28.3572,1.651
28.3572,1.654
28.3582,1.652
28.3582,1.653
28.3582,1.654
28.3582,1.653
28.3582,1.655
28.3582,1.651
28.3582,1.656
28.3592,1.654
28.3592,1.654
28.3592,1.655
28.3592,1.652
28.3592,1.653
28.3592,1.653
28.3602,1.652
28.3602,1.652
28.3602,1.653
28.3602,1.653
28.3602,1.654
28.3602,1.654
28.3602,1.653
28.3612,1.661
28.3612,1.658
28.3612,1.655
28.3612,1.655
28.3612,1.653
28.3612,1.652
28.3612,1.654
28.3622,1.655
28.3622,1.652
28.3622,1.653
28.3622,1.653
28.3622,1.653
28.3622,1.655
28.3632,1.654
28.3632,1.652
28.3632,1.657
28.3632,1.655
28.3632,1.655
28.3632,1.655
28.3632,1.654
28.3632,1.653
28.3642,1.656
28.3642,1.654
28.3642,1.653
28.3642,1.653
28.3642,1.653
28.3642,1.653
28.3642,1.655
28.3652,1.654
28.3652,1.657
28.3652,1.659
28.3652,1.655
28.3662,1.655
28.3662,1.655
28.3662,1.654
28.3662,1.656
28.3662,1.655
28.3662,1.653
28.3672,1.652
28.3672,1.653
28.3672,1.653
28.3672,1.654
28.3672,1.654
28.3672,1.654
28.3672,1.661
28.3672,1.653
28.3682,1.656
28.3682,1.655
28.3682,1.655
28.3682,1.655
28.3682,1.654
28.3682,1.652
28.3692,1.655
28.3692,1.653
28.3692,1.654
28.3692,1.655
28.3692,1.654
28.3692,1.655
28.3692,1.653
28.3701,1.655
28.3701,1.656
28.3701,1.655
28.3701,1.655
28.3701,1.655
28.3701,1.655
28.3701,1.661
28.3711,1.653
28.3711,1.653
28.3711,1.654
28.3711,1.654
28.3711,1.655
28.3711,1.654
28.3711,1.654
28.3721,1.656
28.3721,1.661
28.3721,1.656
28.3721,1.655
28.3721,1.655
28.3721,1.653
28.3731,1.657
28.3731,1.653
28.3731,1.654
28.3731,1.654
28.3731,1.654
28.3731,1.655
28.3741,1.657
28.3741,1.655
28.3741,1.661
28.3741,1.658
28.3741,1.656
28.3741,1.656
28.3751,1.656
28.3751,1.656
28.3751,1.656
28.3751,1.655
28.3751,1.655
28.3751,1.655
28.3751,1.654
28.3751,1.654
28.3761,1.655
28.3761,1.656
28.3761,1.655
28.3761,1.661
28.3761,1.66
28.3761,1.656
28.3761,1.656
28.3771,1.657
28.3771,1.653
28.3771,1.654
28.3771,1.658
28.3771,1.656
28.3771,1.654
28.3771,1.655
28.3781,1.656
28.3781,1.655
28.3781,1.655
28.3781,1.657
28.3781,1.656
28.3781,1.656
28.3781,1.656
28.3791,1.656
28.3791,1.656
28.3791,1.653
28.3791,1.658
28.3791,1.656
28.3791,1.655
28.3801,1.655
28.3801,1.656
28.3801,1.656
28.3801,1.658
28.3801,1.656
28.3801,1.657
28.3801,1.66
28.3801,1.658
28.3811,1.658
28.3811,1.655
28.3811,1.656
28.3811,1.657
28.3821,1.654
28.3821,1.652
28.3821,1.654
28.3821,1.655
28.3821,1.656
28.3821,1.656
28.3831,1.655
28.3831,1.658
28.3831,1.658
28.3831,1.658
28.3831,1.657
28.3831,1.658
28.3831,1.656
28.3841,1.654
28.3841,1.66
28.3841,1.654
28.3841,1.652
28.3841,1.656
28.3841,1.655
28.3841,1.656
28.3841,1.657
28.3851,1.658
28.3851,1.66
28.3851,1.653
28.3851,1.658
28.3851,1.657
28.3851,1.656
28.3851,1.657
28.3861,1.653
28.3861,1.658
28.3861,1.658
28.3861,1.655
28.3861,1.655
28.3861,1.655
28.3861,1.656
28.3871,1.658
28.3871,1.655
28.3871,1.662
28.3871,1.659
28.3871,1.656
28.3871,1.658
28.3871,1.657
28.3871,1.654
28.3881,1.661
28.3881,1.657
28.3881,1.653
28.3881,1.656
28.3881,1.656
28.3881,1.657
28.3881,1.658
28.3891,1.657
28.3891,1.655
28.3891,1.663
28.3891,1.659
28.3891,1.657
28.3891,1.658
28.3891,1.655
28.3891,1.656
28.3901,1.659
28.3901,1.655
28.3901,1.657
28.3901,1.656
28.3901,1.656
28.3911,1.656
28.3911,1.657
28.3911,1.659
28.3911,1.657
28.3911,1.658
28.3911,1.658
28.3911,1.658
28.3921,1.658
28.3921,1.659
28.3921,1.656
28.3921,1.655
28.3921,1.658
28.3921,1.656
28.3921,1.656
28.3931,1.656
28.3931,1.658
28.3931,1.658
28.3931,1.656
28.3931,1.661
28.3931,1.658
28.3931,1.658
28.3931,1.657
28.3941,1.658
28.3941,1.658
28.3941,1.656
28.3941,1.656
28.3941,1.656
28.3941,1.656
28.3941,1.657
28.3951,1.658
28.3951,1.656
28.3951,1.661
28.3951,1.657
28.3951,1.659
28.3951,1.659
28.3951,1.659
28.3961,1.659
28.3961,1.657
28.3961,1.658
28.3961,1.657
28.3961,1.658
28.3961,1.657
28.3961,1.657
28.3961,1.658
28.3971,1.657
28.3971,1.661
28.3971,1.66
28.3971,1.658
28.3971,1.661
28.3971,1.659
28.3981,1.657
28.3981,1.658
28.3981,1.657
28.3981,1.655
28.3981,1.661
28.3981,1.657
28.3981,1.656
28.3991,1.658
28.3991,1.657
28.3991,1.658
28.3991,1.658
28.3991,1.657
28.3991,1.661
28.3991,1.658
28.4001,1.659
28.4001,1.658
28.4001,1.656
28.4001,1.657
28.4001,1.663
28.4001,1.658
28.4001,1.657
28.4011,1.658
28.4011,1.657
28.4011,1.658
28.4011,1.659
28.4011,1.659
28.4011,1.657
28.4011,1.66
28.4011,1.659
28.4021,1.658
28.4021,1.659
28.4021,1.657
28.4021,1.657
28.4021,1.656
28.4021,1.657
28.4031,1.658
28.4031,1.658
28.4031,1.658
28.4031,1.657
28.4031,1.658
28.4031,1.661
28.4031,1.663
28.4041,1.659
28.4041,1.659
28.4041,1.658
28.4041,1.658
28.4041,1.659
28.4041,1.656
28.4041,1.655
28.4041,1.657
28.4051,1.657
28.4051,1.659
28.4051,1.658
28.4051,1.658
28.4051,1.663
28.4051,1.661
28.4051,1.659
28.4061,1.66
28.4061,1.659
28.4061,1.659
28.4061,1.66
28.4061,1.658
28.4061,1.66
28.4061,1.659
28.4071,1.657
28.4071,1.658
28.4071,1.659
28.4071,1.657
28.4071,1.662
28.4071,1.663
28.4071,1.661
28.4081,1.66
28.4081,1.66
28.4081,1.659
28.4081,1.661
28.4081,1.658
28.4081,1.659
28.4081,1.661
28.4091,1.657
28.4091,1.658
28.4091,1.658
28.4091,1.658
28.4091,1.659
28.4091,1.662
28.4091,1.659
28.4091,1.66
28.4101,1.66
28.4101,1.659
28.4101,1.659
28.4101,1.661
28.4101,1.658
28.4101,1.663
28.4101,1.658
28.4111,1.657
28.4111,1.659
28.4111,1.659
28.4111,1.66
28.4111,1.66
28.4111,1.658
28.4111,1.659
28.4121,1.661
28.4121,1.66
28.4121,1.659
28.4121,1.658
28.4121,1.658
28.4121,1.661
28.4121,1.66
28.4131,1.657
28.4131,1.658
28.4131,1.659
28.4131,1.661
28.4131,1.659
28.4131,1.66
28.4141,1.657
28.4141,1.66
28.4141,1.661
28.4141,1.66
28.4141,1.66
28.4141,1.661
28.4141,1.661
28.4141,1.657
28.4151,1.657
28.4151,1.659
28.4151,1.658
28.4151,1.659
28.4151,1.66
28.4151,1.661
28.4151,1.659
28.4161,1.66
28.4161,1.66
29.0215,1.659
29.0215,1.661
29.0215,1.657
29.0225,1.662
29.0225,1.658
29.0225,1.658
29.0225,1.659
29.0225,1.658
29.0235,1.66
29.0235,1.662
29.0245,1.658
29.0245,1.665
29.0255,1.66
29.0255,1.662
29.0255,1.661
29.0255,1.658
29.0255,1.661
29.0265,1.658
29.0265,1.66
29.0265,1.66
29.0265,1.658
29.0265,1.659
29.0275,1.66
29.0275,1.661
29.0275,1.66
29.0275,1.664
29.0275,1.665
29.0285,1.661
29.0285,1.661
29.0285,1.659
29.0285,1.661
29.0285,1.659
29.0295,1.659
29.0295,1.66
29.0295,1.659
29.0295,1.659
29.0295,1.66
29.0305,1.659
29.0305,1.662
29.0305,1.659
29.0305,1.664
29.0305,1.662
29.0315,1.661
29.0315,1.662
29.0315,1.661
29.0315,1.657
29.0315,1.662
29.0325,1.664
29.0325,1.659
29.0325,1.659
29.0325,1.659
29.0325,1.66
29.0335,1.662
29.0335,1.661
29.0335,1.661
29.0335,1.662
29.0335,1.661
29.0335,1.661
29.0345,1.66
29.0345,1.661
29.0345,1.659
29.0345,1.661
29.0345,1.66
29.0355,1.659
29.0355,1.661
29.0355,1.66
29.0355,1.66
29.0355,1.66
29.0365,1.661
29.0365,1.663
29.0365,1.663
29.0365,1.661
29.0365,1.661
29.0365,1.659
29.0375,1.661
29.0375,1.661
29.0375,1.656
29.0375,1.662
29.0375,1.66
29.0375,1.661
29.0385,1.661
29.0385,1.661
29.0385,1.661
29.0385,1.667
29.0385,1.66
29.0385,1.662
29.0385,1.661
29.0395,1.661
29.0395,1.661
29.0395,1.66
29.0395,1.658
29.0395,1.662
29.0395,1.66
29.0405,1.66
29.0405,1.66
29.0405,1.661
29.0405,1.661
29.0405,1.66
29.0405,1.666
29.0415,1.664
29.0415,1.662
29.0415,1.662
29.0415,1.661
29.0415,1.661
29.0425,1.663
29.0425,1.657
29.0425,1.659
29.0425,1.661
29.0425,1.659
29.0425,1.661
29.0435,1.661
29.0435,1.661
29.0435,1.664
29.0435,1.659
29.0435,1.662
29.0435,1.662
29.0435,1.662
29.0435,1.662
29.0445,1.659
29.0445,1.661
29.0445,1.665
29.0445,1.66
29.0445,1.661
29.0445,1.661
29.0455,1.661
29.0455,1.663
29.0455,1.662
29.0455,1.669
29.0455,1.662
29.0455,1.662
29.0455,1.663
29.0465,1.662
29.0465,1.661
29.0465,1.659
29.0465,1.662
29.0465,1.666
29.0465,1.661
29.0465,1.661
29.0475,1.661
29.0475,1.661
29.0475,1.663
29.0475,1.659
29.0475,1.662
29.0475,1.664
29.0475,1.663
29.0485,1.662
29.0485,1.662
29.0485,1.661
29.0485,1.663
29.0485,1.66
29.0485,1.661
29.0485,1.661
29.0495,1.662
29.0495,1.662
29.0495,1.663
29.0495,1.661
29.0495,1.666
29.0495,1.662
29.0495,1.664
29.0505,1.663
29.0505,1.662
29.0505,1.662
29.0505,1.663
29.0505,1.661
29.0505,1.666
29.0515,1.661
29.0515,1.661
29.0515,1.662
29.0515,1.662
29.0515,1.662
29.0515,1.665
29.0515,1.665
29.0525,1.663
29.0525,1.663
29.0525,1.663
29.0525,1.662
29.0525,1.665
29.0525,1.663
29.0525,1.662
29.0535,1.664
29.0535,1.662
29.0535,1.662
29.0535,1.662
29.0535,1.662
29.0535,1.662
29.0535,1.664
29.0545,1.666
29.0545,1.662
29.0545,1.663
29.0545,1.663
29.0545,1.662
29.0545,1.663
29.0545,1.664
29.0554,1.66
29.0554,1.662
29.0554,1.662
29.0554,1.662
29.0554,1.662
29.0554,1.662
29.0554,1.666
29.0564,1.664
29.0564,1.663
29.0564,1.664
29.0564,1.663
29.0564,1.663
29.0564,1.663
29.0574,1.662
29.0574,1.663
29.0574,1.667
29.0574,1.661
29.0574,1.662
29.0574,1.662
29.0574,1.663
29.0584,1.664
29.0584,1.662
29.0584,1.665
29.0584,1.664
29.0584,1.664
29.0584,1.664
29.0584,1.663
29.0594,1.661
29.0594,1.665
29.0594,1.662
29.0594,1.661
29.0594,1.662
29.0594,1.661
29.0594,1.663
29.0604,1.663
29.0604,1.664
29.0604,1.668
29.0604,1.662
29.0604,1.664
29.0604,1.664
29.0614,1.663
29.0614,1.661
29.0614,1.663
29.0614,1.668
29.0614,1.658
29.0614,1.663
29.0624,1.662
29.0624,1.662
29.0624,1.663
29.0624,1.664
29.0624,1.664
29.0624,1.662
29.0624,1.664
29.0624,1.664
29.0634,1.664
29.0634,1.662
29.0634,1.665
29.0634,1.664
29.0634,1.667
29.0634,1.66
29.0634,1.661
29.0644,1.662
29.0644,1.663
29.0644,1.664
29.0644,1.663
29.0644,1.663
29.0644,1.67
29.0644,1.663
29.0654,1.665
29.0654,1.663
29.0654,1.661
29.0654,1.663
29.0654,1.666
29.0654,1.662
29.0654,1.663
29.0664,1.662
29.0664,1.662
29.0664,1.664
29.0664,1.664
29.0664,1.663
29.0664,1.66
29.0664,1.665
29.0674,1.664
29.0674,1.664
29.0674,1.664
29.0674,1.665
29.0674,1.66
29.0674,1.669
29.0674,1.662
29.0684,1.663
29.0684,1.662
29.0684,1.662
29.0684,1.665
29.0684,1.664
29.0684,1.666
29.0684,1.667
29.0684,1.664
29.0694,1.665
29.0694,1.664
29.0694,1.664
29.0694,1.664
29.0694,1.663
29.0694,1.663
29.0694,1.661
29.0704,1.662
29.0704,1.663
29.0704,1.663
29.0704,1.663
29.0704,1.665
29.0704,1.663
29.0704,1.666
29.0714,1.664
29.0714,1.664
29.0714,1.665
29.0714,1.662
29.0714,1.666
29.0724,1.658
29.0724,1.663
29.0724,1.663
29.0724,1.662
29.0724,1.664
29.0724,1.664
29.0724,1.663
29.0734,1.669
29.0734,1.662
29.0734,1.664
29.0734,1.665
29.0734,1.664
29.0734,1.664
29.0734,1.664
29.0744,1.659
29.0744,1.665
29.0744,1.663
29.0744,1.662
29.0744,1.663
29.0744,1.663
29.0744,1.664
29.0754,1.664
29.0754,1.665
29.0754,1.664
29.0754,1.664
29.0754,1.665
29.0754,1.664
29.0754,1.666
29.0764,1.661
29.0764,1.668
29.0764,1.662
29.0764,1.663
29.0764,1.663
29.0764,1.664
29.0764,1.664
29.0774,1.665
29.0774,1.665
29.0774,1.664
29.0774,1.667
29.0774,1.664
29.0774,1.664
29.0774,1.664
29.0784,1.662
29.0784,1.664
29.0784,1.668
29.0784,1.662
29.0784,1.663
29.0784,1.663
29.0784,1.664
29.0794,1.662
29.0794,1.665
29.0794,1.665
29.0794,1.663
29.0794,1.664
29.0794,1.665
29.0794,1.664
29.0804,1.666
29.0804,1.662
29.0804,1.664
29.0804,1.667
29.0804,1.664
29.0804,1.662
29.0804,1.663
29.0814,1.663
29.0814,1.666
29.0814,1.666
29.0814,1.666
29.0814,1.667
29.0814,1.666
29.0814,1.664
29.0824,1.663
29.0824,1.664
29.0824,1.665
29.0824,1.66
29.0824,1.664
29.0824,1.663
29.0824,1.663
29.0834,1.663
29.0834,1.665
29.0834,1.666
29.0834,1.663
29.0834,1.666
29.0834,1.664
29.0834,1.665
29.0844,1.664
29.0844,1.662
29.0844,1.664
29.0844,1.667
29.0844,1.665
29.0844,1.664
29.0844,1.664
29.0844,1.664
29.0854,1.667
29.0864,1.664
29.0874,1.667
29.0894,1.669
29.0934,1.665
29.0963,1.668
29.0983,1.665
29.1013,1.665
29.1013,1.667
29.1013,1.662
29.1013,1.67
29.1013,1.663
29.1013,1.664
29.1024,1.664
29.1024,1.665
29.1024,1.665
29.1024,1.664
29.1024,1.67
29.1024,1.67
29.1034,1.666
29.1034,1.666
29.1034,1.665
29.1034,1.666
29.1034,1.664
29.1034,1.664
29.1034,1.668
29.1034,1.664
29.1044,1.664
29.1044,1.666
29.1044,1.666
29.1044,1.665
29.1044,1.665
29.1044,1.668
29.1044,1.667
29.1053,1.667
29.1053,1.665
29.1053,1.665
29.1053,1.667
29.1053,1.666
29.1053,1.664
29.1053,1.665
29.1063,1.665
29.1063,1.664
29.1063,1.664
29.1063,1.665
29.1063,1.668
29.1063,1.666
29.1063,1.669
29.1073,1.666
29.1073,1.667
29.1073,1.667
29.1083,1.666
29.1083,1.666
29.1083,1.667
29.1083,1.664
29.1083,1.663
29.1083,1.665
29.1093,1.665
29.1093,1.666
29.1093,1.666
29.1093,1.666
29.1093,1.667
29.1093,1.666
29.1093,1.667
29.1103,1.666
29.1103,1.665
29.1103,1.667
29.1103,1.666
29.1103,1.667
29.1103,1.666
29.1103,1.664
29.1113,1.664
29.1113,1.665
29.1113,1.666
29.1113,1.669
29.1113,1.664
29.1113,1.665
29.1113,1.668
29.1113,1.667
29.1123,1.667
29.1123,1.664
29.1123,1.665
29.1123,1.669
29.1123,1.664
29.1123,1.665
29.1123,1.665
29.1133,1.665
29.1133,1.666
29.1133,1.667
29.1133,1.666
29.1133,1.67
29.1133,1.667
29.1133,1.667
29.1143,1.667
29.7045,1.665
29.7045,1.671
29.7045,1.668
29.7045,1.664
29.7045,1.665
29.7055,1.664
29.7055,1.665
29.7055,1.667
29.7055,1.668
29.7055,1.671
29.7055,1.667
29.7065,1.668
29.7065,1.667
29.7065,1.666
29.7065,1.669
29.7075,1.667
29.7075,1.667
29.7075,1.668
29.7085,1.666
29.7085,1.665
29.7095,1.666
29.7095,1.667
29.7095,1.665
29.7095,1.668
29.7095,1.67
29.7105,1.668
29.7105,1.668
29.7105,1.667
29.7105,1.667
29.7105,1.667
29.7115,1.665
29.7115,1.663
29.7115,1.669
29.7125,1.666
29.7125,1.666
29.7125,1.665
29.7135,1.666
29.7135,1.667
29.7135,1.674
29.7145,1.667
29.7145,1.667
29.7145,1.668
29.7155,1.667
29.7155,1.668
29.7155,1.667
29.7155,1.666
29.7155,1.664
29.7155,1.665
29.7155,1.666
29.7165,1.666
29.7165,1.666
29.7165,1.666
29.7165,1.668
29.7165,1.668
29.7165,1.668
29.7165,1.668
29.7175,1.667
29.7175,1.667
29.7175,1.669
29.7175,1.665
29.7175,1.669
29.7175,1.665
29.7175,1.665
29.7185,1.666
29.7185,1.667
29.7185,1.667
29.7185,1.667
29.7185,1.668
29.7185,1.668
29.7185,1.668
29.7195,1.667
29.7195,1.668
29.7195,1.666
29.7195,1.667
29.7195,1.669
29.7195,1.668
29.7195,1.666
29.7205,1.665
29.7205,1.665
29.7205,1.667
29.7205,1.667
29.7205,1.668
29.7205,1.669
29.7205,1.667
29.7215,1.668
29.7215,1.669
29.7215,1.667
29.7215,1.668
29.7215,1.666
29.7215,1.665
29.7215,1.671
29.7224,1.666
29.7224,1.666
29.7224,1.667
29.7224,1.667
29.7224,1.668
29.7224,1.67
29.7224,1.671
29.7234,1.669
29.7234,1.669
29.7234,1.667
29.7244,1.668
29.7244,1.666
29.7244,1.668
29.7244,1.673
29.7244,1.664
29.7244,1.667
29.7254,1.666
29.7254,1.668
29.7254,1.669
29.7254,1.668
29.7254,1.668
29.7254,1.671
29.7254,1.668
29.7264,1.669
29.7264,1.669
29.7264,1.667
29.7264,1.667
29.7264,1.667
29.7264,1.668
29.7274,1.668
29.7274,1.667
29.7274,1.668
29.7274,1.668
29.7274,1.669
29.7274,1.671
29.7274,1.667
29.7284,1.669
29.7284,1.669
29.7284,1.669
29.7284,1.668
29.7284,1.668
29.7284,1.664
29.7284,1.67
29.7284,1.67
29.7295,1.667
29.7295,1.668
29.7295,1.669
29.7295,1.669
29.7295,1.669
29.7295,1.668
29.7295,1.667
29.7305,1.67
29.7305,1.669
29.7305,1.669
29.7305,1.668
29.7305,1.669
29.7305,1.671
29.7305,1.667
29.7305,1.668
29.7315,1.668
29.7315,1.667
29.7315,1.669
29.7315,1.669
29.7315,1.673
29.7315,1.67
29.7315,1.67
29.7325,1.67
29.7325,1.669
29.7325,1.67
29.7325,1.668
29.7325,1.668
29.7325,1.673
29.7325,1.667
29.7335,1.668
29.7335,1.667
29.7335,1.668
29.7335,1.67
29.7335,1.669
29.7335,1.668
29.7335,1.675
29.7345,1.669
29.7345,1.669
29.7345,1.669
29.7345,1.668
29.7345,1.671
29.7345,1.671
29.7345,1.665
29.7345,1.669
29.7355,1.668
29.7355,1.668
29.7355,1.669
29.7355,1.669
29.7355,1.673
29.7355,1.669
29.7355,1.669
29.7365,1.67
29.7365,1.67
29.7365,1.67
29.7365,1.67
29.7365,1.667
29.7365,1.67
29.7365,1.673
29.7374,1.668
29.7374,1.668
29.7374,1.668
29.7374,1.669
29.7374,1.67
29.7374,1.669
29.7374,1.675
29.7384,1.674
29.7384,1.67
29.7384,1.67
29.7384,1.669
29.7384,1.67
29.7384,1.67
29.7384,1.667
29.7394,1.669
29.7414,1.668
29.7434,1.668
29.7464,1.668
29.7514,1.668
29.7524,1.67
29.7544,1.67
29.7554,1.672
29.7554,1.67
29.7554,1.67
29.7554,1.67
29.7554,1.669
29.7564,1.669
29.7564,1.67
29.7564,1.668
29.7564,1.668
29.7564,1.669
29.7564,1.669
29.7574,1.669
29.7574,1.67
29.7574,1.669
29.7574,1.672
29.7574,1.673
29.7584,1.67
29.7584,1.67
29.7584,1.67
29.7584,1.671
29.7584,1.67
29.7584,1.668
29.7584,1.671
29.7594,1.668
29.7594,1.668
29.7594,1.669
29.7594,1.671
29.7594,1.67
29.7594,1.674
29.7594,1.67
29.7594,1.671
29.7604,1.671
29.7604,1.671
29.7604,1.673
29.7604,1.669
29.7604,1.67
29.7604,1.675
29.7614,1.668
29.7614,1.668
29.7614,1.67
29.7614,1.67
29.7614,1.671
29.7614,1.671
29.7614,1.677
29.7614,1.672
29.7624,1.672
29.7624,1.672
29.7624,1.67
29.7624,1.672
29.7624,1.667
29.7624,1.672
29.7624,1.667
29.7634,1.669
29.7634,1.669
29.7634,1.669
29.7634,1.67
29.7634,1.671
29.7634,1.674
29.7634,1.671
29.7644,1.672
29.7644,1.672
29.7644,1.671
29.7644,1.673
29.7644,1.669
29.7644,1.668
29.7644,1.673
29.7654,1.669
29.7654,1.67
29.7654,1.67
29.7654,1.67
29.7654,1.671
29.7654,1.671
29.7654,1.676
29.7664,1.671
29.7664,1.671
29.7664,1.672
29.7664,1.671
29.7664,1.671
29.7664,1.671
29.7664,1.669
29.7664,1.668
29.7674,1.67
29.7674,1.669
29.7674,1.671
29.7674,1.671
29.7674,1.671
29.7674,1.676
29.7674,1.672
29.7684,1.671
29.7684,1.672
29.7684,1.671
29.7684,1.67
29.7684,1.669
29.7684,1.673
29.7684,1.668
29.7684,1.669
29.7694,1.669
29.7694,1.67
29.7694,1.67
29.7694,1.671
29.7694,1.67
29.7694,1.674
29.7694,1.672
29.7704,1.673
29.7704,1.672
29.7704,1.671
29.7704,1.672
29.7704,1.669
29.7704,1.677
29.7704,1.667
29.7714,1.671
29.7714,1.671
29.7714,1.67
29.7714,1.671
29.7723,1.67
29.7723,1.675
29.7723,1.672
29.7733,1.671
29.7733,1.672
29.7733,1.671
29.7743,1.672
29.7743,1.67
29.7753,1.669
29.7753,1.674
29.7753,1.67
29.7753,1.67
29.7763,1.671
29.7763,1.67
29.7763,1.672
29.7773,1.67
29.7773,1.67
29.7773,1.672
29.7773,1.671
29.7783,1.671
29.7783,1.671
29.7783,1.67
29.7793,1.671
29.7793,1.669
29.7793,1.668
29.7793,1.67
29.7803,1.67
29.7803,1.67
29.7813,1.671
29.7813,1.672
29.7813,1.677
29.7823,1.672
29.7823,1.672
29.7823,1.672
29.7833,1.671
29.7833,1.671
29.7833,1.672
29.7843,1.668
29.7843,1.673
29.7843,1.671
29.7853,1.67
29.7853,1.671
29.7853,1.671
29.7863,1.67
29.7863,1.673
29.7863,1.671
29.7873,1.672
29.7873,1.673
29.7873,1.672
29.7883,1.671
29.7883,1.671
29.7883,1.67
29.7893,1.672
29.7893,1.669
29.7893,1.67
29.7893,1.671
29.7903,1.672
29.7903,1.671
29.7903,1.672
29.7913,1.672
29.7913,1.67
29.7913,1.673
29.7923,1.672
29.7923,1.671
29.7923,1.672
29.7933,1.671
29.7933,1.669
29.7933,1.668
29.7943,1.676
29.7943,1.67
29.7943,1.67
29.7953,1.671
29.7953,1.672
29.7963,1.673
29.7963,1.67
29.7963,1.673
29.7973,1.672
29.7973,1.673
29.7973,1.672
29.7982,1.671
29.7982,1.673
29.7982,1.667
29.7992,1.671
29.7992,1.671
29.7992,1.67
29.7992,1.671
29.8002,1.672
29.8002,1.672
29.8002,1.672
29.8012,1.674
29.8012,1.674
29.8012,1.672
29.8022,1.672
29.8022,1.671
29.8022,1.672
29.8032,1.673
29.8032,1.669
29.8032,1.672
29.8042,1.671
29.8042,1.671
29.8042,1.672
29.8052,1.673
29.8052,1.671
29.8052,1.672
29.8062,1.672
29.8062,1.674
29.8062,1.672
29.8062,1.672
29.8072,1.673
29.8072,1.671
29.8072,1.675
29.8082,1.673
29.8082,1.67
29.8082,1.671
29.8092,1.671
29.8092,1.672
29.8092,1.672
29.8102,1.672
29.8102,1.676
29.8102,1.674
29.8112,1.673
29.8112,1.671
29.8112,1.671
29.8122,1.671
29.8122,1.673
29.8122,1.671
29.8132,1.671
29.8132,1.671
29.8132,1.671
29.8142,1.672
29.8142,1.671
29.8142,1.673
29.8142,1.673
29.8152,1.673
29.8152,1.673
29.8152,1.673
29.8152,1.672
29.8162,1.673
29.8162,1.671
29.8162,1.675
29.8162,1.67
29.8172,1.672
29.8172,1.67
29.8172,1.671
29.8172,1.672
29.8182,1.672
29.8182,1.671
29.8182,1.676
29.8182,1.675
29.8192,1.672
29.8192,1.673
29.8192,1.672
29.8202,1.672
29.8202,1.673
29.8202,1.67
29.8202,1.673
29.8212,1.671
29.8212,1.671
29.8222,1.672
29.8222,1.672
29.8222,1.671
29.8222,1.671
29.8232,1.676
29.8232,1.673
29.8232,1.672
29.8242,1.673
29.8242,1.674
29.8242,1.668
30.6141,1.673
30.6141,1.671
30.6151,1.671
30.6151,1.672
30.6151,1.672
30.6151,1.672
30.6161,1.675
30.6161,1.674
30.6171,1.673
30.6171,1.673
30.6171,1.673
30.6181,1.672
30.6181,1.673
30.6181,1.67
30.6191,1.669
30.6191,1.672
30.6191,1.671
30.6200,1.671
30.6200,1.672
30.6200,1.671
30.6200,1.675
30.6200,1.673
30.6200,1.67
30.6210,1.673
30.6210,1.674
30.6210,1.673
30.6210,1.674
30.6250,1.673
30.6260,1.671
30.6270,1.673
30.6340,1.673
30.6430,1.672
30.6440,1.671
30.6470,1.672
30.6480,1.672
30.6480,1.672
30.6480,1.673
30.6490,1.673
30.6490,1.673
30.6490,1.673
30.6490,1.673
30.6490,1.671
30.6500,1.674
30.6500,1.67
30.6500,1.671
30.6500,1.67
30.6500,1.672
30.6500,1.673
30.6500,1.672
30.6510,1.672
30.6510,1.678
30.6510,1.674
30.6510,1.673
30.6510,1.673
30.6510,1.673
30.6520,1.673
30.6520,1.673
30.6520,1.671
30.6530,1.67
30.6530,1.674
30.6530,1.671
30.6540,1.671
30.6540,1.673
30.6540,1.671
30.6550,1.676
30.6550,1.674
30.6550,1.674
30.6560,1.673
30.6560,1.673
30.6560,1.673
30.6569,1.673
30.6569,1.672
30.6579,1.673
30.6579,1.671
30.6589,1.671
30.6589,1.672
30.6589,1.672
30.6599,1.673
30.6599,1.673
30.6599,1.67
30.6599,1.679
30.6599,1.674
30.6599,1.674
30.6609,1.673
30.6609,1.672
30.6609,1.673
30.6609,1.672
30.6609,1.672
30.6619,1.67
30.6619,1.673
30.6619,1.672
30.6619,1.673
30.6619,1.673
30.6629,1.672
30.6629,1.679
30.6629,1.673
30.6629,1.674
30.6629,1.674
30.6629,1.674
30.6629,1.675
30.6639,1.673
30.6639,1.673
30.6649,1.676
30.6649,1.673
30.6649,1.671
30.6649,1.671
30.6659,1.673
30.6659,1.674
30.6659,1.675
30.6669,1.672
30.6669,1.676
30.6669,1.674
30.6679,1.674
30.6679,1.673
30.6679,1.672
30.6679,1.678
30.6679,1.673
30.6679,1.671
30.6679,1.673
30.6689,1.672
30.6689,1.673
30.6689,1.672
30.6699,1.672
30.6699,1.68
30.6699,1.675
30.6699,1.676
30.6709,1.674
30.6709,1.674
30.6709,1.674
30.6709,1.673
30.6709,1.669
30.6719,1.673
30.6729,1.672
30.6729,1.673
30.6739,1.673
30.6739,1.673
30.6749,1.673
30.6749,1.671
30.6759,1.68
30.6759,1.675
30.6759,1.673
30.6769,1.674
30.6769,1.673
30.6779,1.675
30.6779,1.673
30.6779,1.672
30.6789,1.671
30.6789,1.673
30.6789,1.672
30.6799,1.673
30.6799,1.674
30.6809,1.673
30.6809,1.679
30.6809,1.673
30.6819,1.674
30.6819,1.675
30.6819,1.674
30.6819,1.675
30.6829,1.674
30.6829,1.671
30.6829,1.673
30.6829,1.672
30.6829,1.672
30.6829,1.673
30.6829,1.673
30.6839,1.674
30.6839,1.676
30.6839,1.673
30.6839,1.676
30.6849,1.674
30.6849,1.674
30.6849,1.675
30.6859,1.673
30.6859,1.676
30.6859,1.676
30.6859,1.673
30.6859,1.673
30.6869,1.672
30.6869,1.673
30.6869,1.675
30.6869,1.673
30.6869,1.675
30.6879,1.678
30.6879,1.675
30.6879,1.675
30.6879,1.673
30.6889,1.674
30.6889,1.672
30.6889,1.674
30.6899,1.676
30.6899,1.671
30.6899,1.673
30.6899,1.673
30.6909,1.673
30.6909,1.674
30.6909,1.673
30.6909,1.679
30.6909,1.673
30.6919,1.676
30.6919,1.675
30.6919,1.673
30.6929,1.675
30.6929,1.675
30.6929,1.676
30.6939,1.673
30.6939,1.672
30.6939,1.673
30.6939,1.673
30.6948,1.674
30.6948,1.674
30.6948,1.673
30.6948,1.68
30.6958,1.676
30.6958,1.675
30.6958,1.675
30.6958,1.674
30.6968,1.676
30.6978,1.674
30.6978,1.673
30.6978,1.673
30.6988,1.674
30.6988,1.673
30.6988,1.673
30.6988,1.674
30.6998,1.676
30.6998,1.675
30.6998,1.678
30.6998,1.676
30.7008,1.675
30.7008,1.675
30.7008,1.674
30.7008,1.673
30.7008,1.678
30.7008,1.673
30.7018,1.674
30.7018,1.673
30.7028,1.674
30.7028,1.675
30.7028,1.675
30.7038,1.674
30.7038,1.673
30.7038,1.677
30.7038,1.676
30.7038,1.674
30.7038,1.674
30.7048,1.676
30.7048,1.672
30.7048,1.676
30.7048,1.677
30.7048,1.674
30.7048,1.673
30.7048,1.674
30.7058,1.676
30.7058,1.674
30.7058,1.677
30.7068,1.675
30.7068,1.675
30.7068,1.676
30.7078,1.676
30.7078,1.675
30.7078,1.676
30.7088,1.676
30.7088,1.675
30.7098,1.673
30.7128,1.674
30.7806,1.674
30.7816,1.675
30.7816,1.676
30.7826,1.679
30.7826,1.676
30.7836,1.675
30.7836,1.677
30.7836,1.675
30.7846,1.676
30.7846,1.674
30.7846,1.674
30.7846,1.676
30.7856,1.673
30.7856,1.674
30.7856,1.675
30.7866,1.674
30.7866,1.676
30.7876,1.675
30.7876,1.676
30.7876,1.674
30.7886,1.676
30.7886,1.676
30.7886,1.676
30.7916,1.675
30.7926,1.674
30.7936,1.671
30.7936,1.678
30.7936,1.675
30.7946,1.674
30.7946,1.674
30.7946,1.675
30.7946,1.676
30.7956,1.676
30.7956,1.677
30.7966,1.676
30.7966,1.676
30.7966,1.676
30.7976,1.676
30.7976,1.677
30.7976,1.675
30.7986,1.672
30.7986,1.677
30.7986,1.674
30.7996,1.675
30.7996,1.675
30.7996,1.676
30.8006,1.676
30.8006,1.679
30.8006,1.675
30.8016,1.677
30.8026,1.676
30.8056,1.676
30.8056,1.675
30.8056,1.676
30.8056,1.674
30.8065,1.676
30.8075,1.677
30.8095,1.674
30.8095,1.675
30.8095,1.676
30.8105,1.676
30.8145,1.676
30.8474,1.68
30.8614,1.677
30.8644,1.678
30.8654,1.676
30.8664,1.676
30.8664,1.676
30.8674,1.675
30.8674,1.674
30.8684,1.674
30.8684,1.675
30.8694,1.675
30.8694,1.675
30.8694,1.675
30.8704,1.677
30.8704,1.678
30.8714,1.679
30.8724,1.677
30.8724,1.677
30.8734,1.677
30.8744,1.675
30.8744,1.676
30.8744,1.675
30.8754,1.677
30.8754,1.678
30.8754,1.675
30.8754,1.675
30.8764,1.676
30.8764,1.676
30.8784,1.676
30.8784,1.677
30.8784,1.679
30.8794,1.676
30.8794,1.677
30.8794,1.675
30.8804,1.676
30.8804,1.676
30.8804,1.676
30.8814,1.678
30.8814,1.676
30.8823,1.674
30.8823,1.676
30.8823,1.676
30.8833,1.675
30.8833,1.676
30.8833,1.675
30.8833,1.676
30.8843,1.677
30.8843,1.676
30.8853,1.678
30.8853,1.676
30.8853,1.674
30.8853,1.675
30.8863,1.678
30.8863,1.675
30.8863,1.674
30.8873,1.676
30.8873,1.676
30.8883,1.676
30.8883,1.679
30.8883,1.676
30.8893,1.676
30.8893,1.676
30.8903,1.676
30.8903,1.677
30.8913,1.676
30.8933,1.673
30.8943,1.677
30.8943,1.674
30.8943,1.675
30.8953,1.675
30.8953,1.676
30.8963,1.677
30.8963,1.679
30.8963,1.675
30.8973,1.679
30.8973,1.676
30.8973,1.676
30.8983,1.676
30.8983,1.674
30.8983,1.677
30.9093,1.675
30.9113,1.673
30.9123,1.674
30.9123,1.674
30.9212,1.676
30.9252,1.677
30.9262,1.676
30.9272,1.678
30.9272,1.679
30.9272,1.677
30.9282,1.677
30.9292,1.676
30.9292,1.677
30.9302,1.676
30.9302,1.674
30.9302,1.673
30.9312,1.674
30.9312,1.675
30.9312,1.675
30.9322,1.675
30.9332,1.675
30.9332,1.68
30.9342,1.675
30.9342,1.675
30.9342,1.677
30.9372,1.677
30.9372,1.676
30.9372,1.675
30.9382,1.674
30.9382,1.68
30.9382,1.677
30.9392,1.675
30.9392,1.675
30.9392,1.677
30.9482,1.676
30.9631,1.676
30.9781,1.68
30.9801,1.681
30.9811,1.677
30.9821,1.677
30.9821,1.676
30.9821,1.675
30.9831,1.677
30.9831,1.676
30.9831,1.674
30.9831,1.675
30.9831,1.675
30.9841,1.674
30.9841,1.676
30.9841,1.676
30.9841,1.681
30.9841,1.681
30.9841,1.676
30.9841,1.676
30.9851,1.677
30.9851,1.674
30.9851,1.676
30.9851,1.676
30.9851,1.676
30.9851,1.675
30.9851,1.675
30.9861,1.675
30.9861,1.676
30.9861,1.676
30.9861,1.676
30.9861,1.679
30.9861,1.683
30.9861,1.677
30.9871,1.678
30.9871,1.676
30.9871,1.677
30.9871,1.677
30.9871,1.675
30.9871,1.68
30.9871,1.675
30.9881,1.674
30.9881,1.675
30.9881,1.676
30.9881,1.676
30.9881,1.681
30.9881,1.679
30.9881,1.674
30.9891,1.676
30.9891,1.677
30.9891,1.676
30.9891,1.676
30.9891,1.676
30.9891,1.673
30.9891,1.675
30.9891,1.675
30.9901,1.676
30.9901,1.677
30.9901,1.676
30.9901,1.677
30.9911,1.678
30.9911,1.678
30.9911,1.677
30.9921,1.677
30.9921,1.676
30.9931,1.676
30.9931,1.676
30.9931,1.676
30.9931,1.675
30.9940,1.675
30.9940,1.675
30.9940,1.676
30.9940,1.677
30.9940,1.677
30.9940,1.677
30.9940,1.68
30.9950,1.677
30.9950,1.677
30.9950,1.675
30.9950,1.676
30.9950,1.676
30.9950,1.674
30.9950,1.672
30.9960,1.674
30.9960,1.675
30.9960,1.677
30.9960,1.675
30.9960,1.675
30.9960,1.68
30.9960,1.678
30.9970,1.676
30.9970,1.676
30.9970,1.677
30.9970,1.675
30.9970,1.676
30.9970,1.674
30.9970,1.678
30.9970,1.677
30.9980,1.675
30.9980,1.674
30.9980,1.676
30.9980,1.676
30.9980,1.679
30.9980,1.68
30.9980,1.677
30.9990,1.676
30.9990,1.676
30.9990,1.677
30.9990,1.676
30.9990,1.678
31.0000,1.675
31.0000,1.675
31.0000,1.675
31.0000,1.674
31.0000,1.676
31.0000,1.675
31.0000,1.676
31.0000,1.677
31.0010,1.676
31.0010,1.677
31.0010,1.678
31.0010,1.678
31.0010,1.676
31.0010,1.676
31.0010,1.677
31.0020,1.673
31.0020,1.675
31.0020,1.676
31.0020,1.674
31.0020,1.675
31.0020,1.676
31.0020,1.677
31.0030,1.678
31.0030,1.676
31.0030,1.679
31.0030,1.677
31.0030,1.677
31.0030,1.677
31.0030,1.674
31.0030,1.676
31.0040,1.679
31.0040,1.675
31.0040,1.675
31.0040,1.676
31.0040,1.676
31.0040,1.676
31.0040,1.675
31.0050,1.676
31.0050,1.677
31.0050,1.677
31.0050,1.677
31.0050,1.676
31.0050,1.674
31.0050,1.678
31.0060,1.675
31.0060,1.674
31.0060,1.675
31.0060,1.675
31.0060,1.676
31.0060,1.676
31.0060,1.677
31.0070,1.679
31.0070,1.677
31.0070,1.677
31.0070,1.677
31.0070,1.676
31.0070,1.677
31.0080,1.675
31.0080,1.677
31.0080,1.68
31.0080,1.675
31.0080,1.676
31.0080,1.675
31.0080,1.675
31.0090,1.676
31.0090,1.676
31.0100,1.681
31.0100,1.676
31.0100,1.677
31.0100,1.676
31.0100,1.675
31.0110,1.677
31.0110,1.673
31.0110,1.678
31.0110,1.679
31.0110,1.676
31.0110,1.675
31.0110,1.675
31.0120,1.677
31.0120,1.677
31.0120,1.674
31.0120,1.677
31.0120,1.677
31.0120,1.677
31.0130,1.676
31.0130,1.676
31.0130,1.677
31.0130,1.676
31.0130,1.673
31.0130,1.677
31.0140,1.674
31.0140,1.676
31.0140,1.675
31.0140,1.677
31.0140,1.676
31.0140,1.675
31.0140,1.678
31.0140,1.677
31.0150,1.676
31.0150,1.677
31.0150,1.674
31.0160,1.677
31.0160,1.674
31.0160,1.674
31.0170,1.675
31.0170,1.674
31.0170,1.675
31.0170,1.675
31.0170,1.676
31.0180,1.675
31.0740,1.677
31.0870,1.677
31.0880,1.676
31.0910,1.676
31.0910,1.675
31.0910,1.675
31.0910,1.677
31.0910,1.673
31.0910,1.673
31.0920,1.675
31.0920,1.673
31.0920,1.676
31.0920,1.675
31.0920,1.676
31.0930,1.678
31.0930,1.675
31.0930,1.676
31.0940,1.676
31.0940,1.677
31.0940,1.674
31.0940,1.675
31.0940,1.676
31.0940,1.672
31.0950,1.675
31.0950,1.676
31.0950,1.675
31.0950,1.675
31.0950,1.677
31.0950,1.68
31.0950,1.674
31.0960,1.676
31.0960,1.677
31.0960,1.676
31.0960,1.676
31.0960,1.673
31.0960,1.676
31.0960,1.676
31.0970,1.673
31.0970,1.675
31.0970,1.674
31.0970,1.676
31.0970,1.675
31.0970,1.675
31.0970,1.68
31.0980,1.676
31.0980,1.675
31.0980,1.676
31.0980,1.677
31.0980,1.675
31.0980,1.675
31.0980,1.673
31.0990,1.674
31.0990,1.673
31.0990,1.675
31.0990,1.674
31.0990,1.676
31.0990,1.674
31.0990,1.676
31.1000,1.679
31.1000,1.675
31.1000,1.676
31.1000,1.675
31.1000,1.674
31.1000,1.675
31.1000,1.674
31.1000,1.678
31.1010,1.673
31.1010,1.674
31.1010,1.674
31.1010,1.674
31.1010,1.676
31.1010,1.675
31.1020,1.675
31.1020,1.679
31.1020,1.676
31.1020,1.676
31.1020,1.676
31.1020,1.674
31.1029,1.676
31.1029,1.674
31.1029,1.674
31.1029,1.674
31.1029,1.673
31.1029,1.674
31.1029,1.675
31.1040,1.674
31.1040,1.673
31.1040,1.674
31.1040,1.676
31.1040,1.676
31.1040,1.676
31.1040,1.675
31.1040,1.673
31.1050,1.674
31.1050,1.676
31.1050,1.673
31.1050,1.673
31.1050,1.673
31.1050,1.675
31.1050,1.673
31.1060,1.676
31.1060,1.674
31.1060,1.674
31.1060,1.675
31.1060,1.676
31.1060,1.675
31.1069,1.674
31.1069,1.672
31.1069,1.674
31.1069,1.672
31.1079,1.672
31.1079,1.673
31.1079,1.672
31.1079,1.674
31.1089,1.674
31.1089,1.676
31.1089,1.678
31.1089,1.675
31.1089,1.674
31.1089,1.674
31.1099,1.675
31.1099,1.673
31.1099,1.673
31.1099,1.672
31.1099,1.676
31.1099,1.673
31.1099,1.673
31.1109,1.673
31.1109,1.673
31.1109,1.673
31.1109,1.672
31.1109,1.675
31.1109,1.674
31.1109,1.675
31.1109,1.674
31.1119,1.673
31.1119,1.673
31.1119,1.674
31.1119,1.671
31.1119,1.672
31.1119,1.672
31.1119,1.672
31.1129,1.672
31.1129,1.673
31.1129,1.674
31.1129,1.674
31.1129,1.673
31.1129,1.675
31.1129,1.673
31.1139,1.673
31.1139,1.672
31.1139,1.672
31.1139,1.676
31.1139,1.673
31.1139,1.67
31.1149,1.671
31.1149,1.672
31.1149,1.673
31.1149,1.672
31.1149,1.672
31.1149,1.676
31.1159,1.673
31.1159,1.672
31.1159,1.673
31.1159,1.673
31.1159,1.671
31.1159,1.673
31.1159,1.673
31.1169,1.673
31.1169,1.671
31.1169,1.671
31.1169,1.672
31.1169,1.671
31.1169,1.674
31.1169,1.671
31.1169,1.673
31.1179,1.673
31.1179,1.673
31.1179,1.672
31.1189,1.672
31.1189,1.671
31.1189,1.674
31.1199,1.671
31.1199,1.668
31.1199,1.67
31.1199,1.671
31.1209,1.672
31.1209,1.671
31.1209,1.671
31.1209,1.673
31.1209,1.673
31.1209,1.672
31.1219,1.672
31.1219,1.671
31.1219,1.672
31.1219,1.67
31.1219,1.674
31.1219,1.671
31.1229,1.671
31.1229,1.669
31.1229,1.669
31.1229,1.671
31.1229,1.67
31.1229,1.674
31.1239,1.677
31.1239,1.672
31.1239,1.672
31.1239,1.671
31.1249,1.672
31.1249,1.67
31.1249,1.669
31.1259,1.673
31.1259,1.669
31.1259,1.67
31.1259,1.67
31.1259,1.671
31.1259,1.672
31.1259,1.67
31.1269,1.675
31.1269,1.672
31.1269,1.671
31.1269,1.671
31.1269,1.671
31.1269,1.672
31.1269,1.67
31.1269,1.672
31.1279,1.671
31.1279,1.67
31.1279,1.669
31.1279,1.67
31.1279,1.67
31.1279,1.67
31.1279,1.672
31.1289,1.674
31.1289,1.671
31.1289,1.672
31.1289,1.67
31.1289,1.672
31.1289,1.67
31.1289,1.668
31.1299,1.668
31.1299,1.673
31.1299,1.67
31.1299,1.67
31.1299,1.67
31.1299,1.67
31.1299,1.67
31.1309,1.672
31.1309,1.672
31.1309,1.672
31.1309,1.67
31.1309,1.671
31.1309,1.669
31.1309,1.671
31.1309,1.668
31.1319,1.671
31.1319,1.669
31.1319,1.669
31.1319,1.67
31.1319,1.67
31.1319,1.67
31.1329,1.676
31.1329,1.671
31.1329,1.669
31.1329,1.67
31.1329,1.671
31.1329,1.67
31.1329,1.668
31.1339,1.672
31.1339,1.67
31.1339,1.669
31.1339,1.667
31.1339,1.669
31.1339,1.67
31.1339,1.67
31.1349,1.669
31.1349,1.671
31.1349,1.668
31.1349,1.67
31.1349,1.671
31.1349,1.67
31.1349,1.67
31.1349,1.667
31.1359,1.665
31.1359,1.671
31.1359,1.666
31.1359,1.667
31.1359,1.668
31.1359,1.669
31.1359,1.668
31.1369,1.668
31.1369,1.673
31.1369,1.671
31.1369,1.669
31.1369,1.67
31.1369,1.668
31.1369,1.669
31.1379,1.67
31.1379,1.667
31.1379,1.668
31.1379,1.667
31.1379,1.668
31.1379,1.667
31.1379,1.669
31.1379,1.668
31.1389,1.674
31.1389,1.668
31.1389,1.669
31.1389,1.669
31.1389,1.668
31.1389,1.669
31.1389,1.67
31.1399,1.663
31.1399,1.668
31.1399,1.667
31.1399,1.667
31.1399,1.668
31.1409,1.668
31.1409,1.668
31.1409,1.671
31.1409,1.673
31.1409,1.667
31.1409,1.668
31.1409,1.668
31.1419,1.668
31.1419,1.668
31.1419,1.667
31.1419,1.67
31.1419,1.666
31.1419,1.667
31.7526,1.668
31.7526,1.668
31.7526,1.665
31.7526,1.669
31.7536,1.672
31.7536,1.669
31.7536,1.669
31.7536,1.666
31.7536,1.667
31.7536,1.668
31.7536,1.667
31.7546,1.666
31.7546,1.666
31.7546,1.667
31.7546,1.667
31.7546,1.668
31.7546,1.668
31.7546,1.669
31.7546,1.668
31.7556,1.668
31.7556,1.668
31.7556,1.668
31.7556,1.667
31.7556,1.665
31.7556,1.668
31.7556,1.665
31.7566,1.666
31.7566,1.666
31.7566,1.666
31.7576,1.667
31.7576,1.667
31.7576,1.671
31.7586,1.668
31.7586,1.668
31.7586,1.667
31.7596,1.668
31.7596,1.667
31.7596,1.667
31.7596,1.666
31.7596,1.665
31.7606,1.669
31.7606,1.666
31.7606,1.666
31.7606,1.666
31.7606,1.667
31.7606,1.667
31.7606,1.664
31.7606,1.673
31.7616,1.667
31.7616,1.668
31.7616,1.667
31.7616,1.666
31.7616,1.664
31.7616,1.667
31.7626,1.663
31.7626,1.665
31.7626,1.665
31.7626,1.666
31.7626,1.666
31.7626,1.667
31.7626,1.666
31.7626,1.67
31.7636,1.67
31.7636,1.667
31.7636,1.667
31.7646,1.665
31.7646,1.664
31.7646,1.665
31.7656,1.669
31.7656,1.666
31.7656,1.665
31.7656,1.665
31.7656,1.666
31.7656,1.666
31.7666,1.667
31.7666,1.664
31.7666,1.668
31.7666,1.666
31.7666,1.666
31.7666,1.666
31.7666,1.665
31.7676,1.668
31.7676,1.665
31.7676,1.664
31.7676,1.665
31.7676,1.666
31.7676,1.664
31.7676,1.665
31.7686,1.666
31.7686,1.667
31.7686,1.67
31.7686,1.669
31.7686,1.666
31.7686,1.666
31.7686,1.665
31.7696,1.665
31.7696,1.666
31.7696,1.664
31.7696,1.663
31.7696,1.666
31.7696,1.665
31.7696,1.665
31.7706,1.666
31.7706,1.665
31.7706,1.667
31.7706,1.669
31.7706,1.666
31.7706,1.666
31.7706,1.666
31.7716,1.665
31.7716,1.667
31.7716,1.664
31.7726,1.669
31.7726,1.665
31.7726,1.663
31.7726,1.664
31.7726,1.665
31.7735,1.665
31.7735,1.665
31.7735,1.667
31.7745,1.672
31.7745,1.666
31.7745,1.666
31.7755,1.665
31.7755,1.664
31.7755,1.665
31.7765,1.666
31.7765,1.661
31.7765,1.664
31.7765,1.664
31.7765,1.664
31.7765,1.665
31.7765,1.666
31.7775,1.666
31.7775,1.672
31.7775,1.665
31.7775,1.666
31.7775,1.666
31.7775,1.664
31.7775,1.667
31.7785,1.664
31.7785,1.663
31.7785,1.666
31.7785,1.663
31.7795,1.664
31.7795,1.663
31.7795,1.664
31.7795,1.665
31.7805,1.668
31.7805,1.67
31.7805,1.666
31.7805,1.666
31.7805,1.665
31.7805,1.665
31.7805,1.665
31.7815,1.669
31.7815,1.664
31.7815,1.665
31.7815,1.662
31.7826,1.662
31.7826,1.665
31.7826,1.666
31.7836,1.665
31.7836,1.668
31.7836,1.669
31.7836,1.666
31.7846,1.666
31.7846,1.665
31.7846,1.664
31.7856,1.663
31.7856,1.667
31.7865,1.667
31.7865,1.663
31.7865,1.664
31.7875,1.664
31.7875,1.665
31.7875,1.664
31.7875,1.666
31.7885,1.663
31.7885,1.665
31.7885,1.666
31.7885,1.666
31.7885,1.665
31.7885,1.666
31.7885,1.662
31.7895,1.667
31.7895,1.666
31.7895,1.663
31.7895,1.665
31.7895,1.664
31.7905,1.665
31.7905,1.667
31.7905,1.666
31.7915,1.669
31.7915,1.666
31.7915,1.665
31.7915,1.664
31.7915,1.665
31.7915,1.663
31.7925,1.665
31.7925,1.668
31.7925,1.664
31.7925,1.663
31.7925,1.663
31.7925,1.665
31.7925,1.666
31.7935,1.665
31.7935,1.666
31.7935,1.667
31.7935,1.666
31.7945,1.666
31.7945,1.666
31.7945,1.664
31.7945,1.666
31.7945,1.669
31.7945,1.663
31.7955,1.664
31.7955,1.664
31.7955,1.665
31.7955,1.665
31.7955,1.667
31.7965,1.667
31.7965,1.666
31.7965,1.668
31.7965,1.666
31.7965,1.666
31.7965,1.665
31.7965,1.664
31.7975,1.666
31.7975,1.666
31.7975,1.664
31.7975,1.663
31.7975,1.664
31.7975,1.665
31.7975,1.666
31.7985,1.666
31.7985,1.672
31.7985,1.666
31.7985,1.666
31.7985,1.667
31.7985,1.666
31.7985,1.664
31.7985,1.666
31.7995,1.664
31.7995,1.663
31.7995,1.664
31.7995,1.664
31.7995,1.664
31.7995,1.664
31.7995,1.665
31.8005,1.668
31.8005,1.667
31.8005,1.665
31.8005,1.666
31.8015,1.667
31.8015,1.664
31.8015,1.666
31.8025,1.665
31.8025,1.662
31.8025,1.664
31.8025,1.664
31.8025,1.664
31.8025,1.665
31.8025,1.664
31.8035,1.668
31.8035,1.665
31.8035,1.667
31.8035,1.667
31.8035,1.665
31.8035,1.666
31.8035,1.663
31.8045,1.664
31.8045,1.667
31.8045,1.667
31.8045,1.664
31.8045,1.663
31.8045,1.666
31.8045,1.664
31.8055,1.666
31.8055,1.665
31.8055,1.664
31.8055,1.665
31.8055,1.666
31.8055,1.666
31.8055,1.664
31.8055,1.662
31.8065,1.665
31.8065,1.665
31.8065,1.664
31.8065,1.665
31.8075,1.664
31.8075,1.665
31.8075,1.666
31.8085,1.667
31.8085,1.668
31.8085,1.669
31.8085,1.667
31.8095,1.667
31.8095,1.666
31.8095,1.666
31.8095,1.665
31.8095,1.665
31.8095,1.67
31.8095,1.665
31.8095,1.663
31.8105,1.665
31.8105,1.665
31.8105,1.666
31.8105,1.666
31.8105,1.665
31.8115,1.667
31.8115,1.666
31.8115,1.666
31.8115,1.666
31.8115,1.665
31.8115,1.664
31.8115,1.667
31.8125,1.664
31.8125,1.665
31.8125,1.665
31.8125,1.664
31.8125,1.665
31.8125,1.665
31.8125,1.667
31.8135,1.669
31.8135,1.667
31.8135,1.666
31.8135,1.666
31.8135,1.667
31.8135,1.665
31.8135,1.664
31.8135,1.665
31.8145,1.665
31.8145,1.664
31.8145,1.665
31.8145,1.665
31.8145,1.664
31.8145,1.668
31.8145,1.663
31.8154,1.667
31.8154,1.666
31.8154,1.666
31.8164,1.666
31.8164,1.662
31.8164,1.664
31.8164,1.663
31.8164,1.664
31.8164,1.664
31.8164,1.664
31.8164,1.665
31.8174,1.665
31.8174,1.665
31.8174,1.67
31.8174,1.666
31.8174,1.666
31.8174,1.667
31.8184,1.665
31.8184,1.665
31.8184,1.666
31.8184,1.664
31.8184,1.665
31.8184,1.666
31.8184,1.664
31.8184,1.665
31.8194,1.664
31.8194,1.664
31.8194,1.667
31.8194,1.667
31.8194,1.666
31.8194,1.667
31.8194,1.666
31.8204,1.666
31.8204,1.666
31.8204,1.666
31.8204,1.666
31.8204,1.666
31.8204,1.665
31.8204,1.663
31.8214,1.665
31.8234,1.664
31.8244,1.668
31.8294,1.666
31.8334,1.666
31.8354,1.666
31.8364,1.665
31.8384,1.666
31.8384,1.667
31.8384,1.664
31.8384,1.662
31.8384,1.667
31.8384,1.664
31.8384,1.665
31.8394,1.664
31.8394,1.664
31.8394,1.665
31.8394,1.666
31.8394,1.665
31.8394,1.667
31.8404,1.666
31.8404,1.666
31.8404,1.666
31.8414,1.665
31.8414,1.667
31.8414,1.666
31.8414,1.664
31.8414,1.664
31.8414,1.664
31.8424,1.664
31.8424,1.664
31.8424,1.665
31.8424,1.67
31.8424,1.665
31.8434,1.666
31.8434,1.666
31.8434,1.665
31.8434,1.665
31.8434,1.667
31.8434,1.663
31.8434,1.664
31.8444,1.666
31.8444,1.663
31.8444,1.666
31.8444,1.664
31.8444,1.664
31.8444,1.665
31.8444,1.665
31.8444,1.666
31.8454,1.665
31.8454,1.666
31.8454,1.666
31.8454,1.665
31.8454,1.667
31.8454,1.667
31.8454,1.664
31.8464,1.664
31.8464,1.665
31.8464,1.664
31.8464,1.667
31.8464,1.665
31.8464,1.668
31.8464,1.669
31.8474,1.665
31.8474,1.665
31.8474,1.665
31.8474,1.664
31.8474,1.665
31.8474,1.664
31.8474,1.664
31.8484,1.664
31.8484,1.664
31.8484,1.663
31.8484,1.664
31.8484,1.665
31.8484,1.665
31.8484,1.666
31.8484,1.667
31.8493,1.665
31.8493,1.665
31.8493,1.666
31.8493,1.664
31.8493,1.668
31.8493,1.666
31.8493,1.663
31.8503,1.663
31.8503,1.664
31.8503,1.663
31.8503,1.665
31.8503,1.665
31.8503,1.662
31.8503,1.67
31.8513,1.666
31.8513,1.666
31.8513,1.665
31.8513,1.664
31.8513,1.666
31.8523,1.665
31.8523,1.662
31.8523,1.665
31.8523,1.664
31.8523,1.664
31.8523,1.663
31.8523,1.664
31.8533,1.666
31.8533,1.662
31.8533,1.665
31.8533,1.665
31.8533,1.665
31.8533,1.666
31.8533,1.665
31.8543,1.664
31.8543,1.667
31.8543,1.664
31.8543,1.663
31.8543,1.665
31.8543,1.664
31.8553,1.665
32.6622,1.664
32.6622,1.669
32.6632,1.666
32.6632,1.666
32.6632,1.664
32.6632,1.664
32.6632,1.664
32.6632,1.662
32.6632,1.665
32.6642,1.662
32.6642,1.663
32.6642,1.663
32.6642,1.664
32.6642,1.663
32.6642,1.666
32.6642,1.667
32.6642,1.664
32.6652,1.665
32.6652,1.665
32.6652,1.664
32.6652,1.663
32.6652,1.664
32.6652,1.666
32.6652,1.66
32.6662,1.663
32.6662,1.663
32.6662,1.664
32.6662,1.663
32.6672,1.664
32.6672,1.666
32.6672,1.665
32.6682,1.665
32.6682,1.666
32.6682,1.664
32.6682,1.663
32.6682,1.664
32.6692,1.662
32.6692,1.666
32.6692,1.663
32.6692,1.663
32.6692,1.662
32.6692,1.664
32.6692,1.664
32.6701,1.665
32.6701,1.662
32.6701,1.668
32.6701,1.664
32.6701,1.664
32.6701,1.664
32.6701,1.662
32.6711,1.666
32.6711,1.666
32.6711,1.661
32.6711,1.662
32.6711,1.663
32.6711,1.663
32.6711,1.663
32.6721,1.665
32.6721,1.666
32.6721,1.665
32.6721,1.663
32.6721,1.665
32.6721,1.664
32.6721,1.664
32.6731,1.664
32.6731,1.662
32.6731,1.664
32.6741,1.662
32.6741,1.662
32.6741,1.663
32.6752,1.663
32.6752,1.663
32.6752,1.663
32.6752,1.669
32.6762,1.667
32.6762,1.664
32.6762,1.663
32.6772,1.664
32.6772,1.662
32.6772,1.661
32.6782,1.667
32.6782,1.662
32.6782,1.662
32.6792,1.663
32.6792,1.663
32.6792,1.662
32.6792,1.665
32.6792,1.663
32.6792,1.663
32.6801,1.666
32.6801,1.664
32.6801,1.664
32.6801,1.663
32.6801,1.661
32.6801,1.664
32.6801,1.66
32.6801,1.663
32.6811,1.663
32.6821,1.662
32.6821,1.663
32.6821,1.662
32.6821,1.663
32.6831,1.666
32.6831,1.667
32.6831,1.664
32.6831,1.664
32.6831,1.664
32.6831,1.661
32.6831,1.664
32.6841,1.66
32.6841,1.665
32.6841,1.662
32.6841,1.661
32.6841,1.662
32.6841,1.664
32.6851,1.662
32.6851,1.666
32.6851,1.664
32.6851,1.663
32.6851,1.664
32.6851,1.664
32.6851,1.664
32.6861,1.664
32.6861,1.661
32.6861,1.66
32.6861,1.661
32.6861,1.661
32.6861,1.662
32.6861,1.662
32.6871,1.662
32.6871,1.664
32.6871,1.661
32.6871,1.664
32.6871,1.663
32.6871,1.663
32.6871,1.664
32.6881,1.662
32.6881,1.661
32.6881,1.663
32.6881,1.661
32.6881,1.661
32.6881,1.661
32.6891,1.661
32.6891,1.662
32.6891,1.661
32.6891,1.661
32.6891,1.666
32.6891,1.665
32.6901,1.662
32.6901,1.662
32.6901,1.661
32.6901,1.663
32.6901,1.661
32.6901,1.663
32.6901,1.663
32.6911,1.66
32.6911,1.661
32.6911,1.661
32.6911,1.661
32.6911,1.662
32.6911,1.662
32.6911,1.663
32.6921,1.662
32.6931,1.662
32.6951,1.662
32.7021,1.661
32.7101,1.663
32.7131,1.66
32.7131,1.659
32.7131,1.662
32.7131,1.661
32.7131,1.66
32.7140,1.661
32.7140,1.662
32.7140,1.661
32.7140,1.665
32.7140,1.663
32.7140,1.663
32.7140,1.662
32.7150,1.661
32.7150,1.662
32.7150,1.661
32.7150,1.664
32.7150,1.659
32.7150,1.659
32.7150,1.659
32.7160,1.661
32.7160,1.661
32.7160,1.661
32.7160,1.661
32.7160,1.667
32.7160,1.661
32.7170,1.662
32.7170,1.662
32.7170,1.661
32.7170,1.662
32.7170,1.659
32.7180,1.666
32.7180,1.66
32.7180,1.659
32.7180,1.66
32.7180,1.661
32.7190,1.659
32.7190,1.66
32.7190,1.661
32.7190,1.662
32.7190,1.662
32.7190,1.661
32.7190,1.661
32.7200,1.66
32.7200,1.658
32.7200,1.663
32.7200,1.663
32.7200,1.659
32.7200,1.659
32.7200,1.658
32.7210,1.661
32.7210,1.661
32.7210,1.66
32.7210,1.661
32.7210,1.661
32.7210,1.661
32.7210,1.66
32.7210,1.66
32.7220,1.66
32.7220,1.661
32.7220,1.658
32.7220,1.662
32.7220,1.659
32.7220,1.659
32.7220,1.66
32.7230,1.66
32.7230,1.66
32.7240,1.658
32.7240,1.663
32.7240,1.66
32.7250,1.661
32.7250,1.66
32.7250,1.659
32.7250,1.66
32.7250,1.657
32.7260,1.657
32.7260,1.66
32.7260,1.658
32.7260,1.658
32.7260,1.658
32.7260,1.658
32.7260,1.661
32.7270,1.661
32.7270,1.66
32.7270,1.66
32.7270,1.66
32.7270,1.659
32.7270,1.659
32.7270,1.659
32.7280,1.661
32.7280,1.659
32.7280,1.657
32.7280,1.658
32.7280,1.658
32.7280,1.659
32.7280,1.659
32.7290,1.661
32.7290,1.659
32.7290,1.658
32.7290,1.659
32.7290,1.66
32.7290,1.659
32.7290,1.657
32.7300,1.659
32.7300,1.659
32.7300,1.657
32.7300,1.658
32.7300,1.658
32.7300,1.658
32.7310,1.657
32.7310,1.659
32.7310,1.658
32.7320,1.659
32.7320,1.66
32.7320,1.659
32.7330,1.658
32.7330,1.659
32.7330,1.656
32.7340,1.664
32.7340,1.655
32.7340,1.657
32.7350,1.656
32.7350,1.655
32.7350,1.657
32.7360,1.658
32.7360,1.658
32.7360,1.661
32.7360,1.659
32.7370,1.658
32.7370,1.658
32.7370,1.656
32.7380,1.658
32.7380,1.656
32.7380,1.655
32.7390,1.661
32.7390,1.656
32.7390,1.657
32.7400,1.656
32.7400,1.658
32.7400,1.659
32.7400,1.657
32.7410,1.66
32.7410,1.657
32.7410,1.658
32.7410,1.658
32.7420,1.657
32.7420,1.656
32.7420,1.658
32.7420,1.658
32.7420,1.655
32.7420,1.656
32.7430,1.657
32.7430,1.656
32.7430,1.658
32.7430,1.657
32.7430,1.658
32.7430,1.658
32.7430,1.657
32.7440,1.657
32.7440,1.655
32.7440,1.655
32.7440,1.657
32.7440,1.66
32.7440,1.654
32.7440,1.656
32.7440,1.655
32.7450,1.656
32.7450,1.657
32.7450,1.658
32.7450,1.659
32.7450,1.659
32.7450,1.657
32.7450,1.657
32.7459,1.658
32.7459,1.656
32.7459,1.657
32.7459,1.655
32.7459,1.655
32.7469,1.655
32.7469,1.654
32.7479,1.655
32.7479,1.656
32.7479,1.657
32.7479,1.656
32.7479,1.655
32.7479,1.659
32.7489,1.657
32.7489,1.655
32.7489,1.656
32.7489,1.656
32.7489,1.656
32.7489,1.658
32.7489,1.654
32.7489,1.656
32.7500,1.655
32.7500,1.655
32.7500,1.657
32.7500,1.656
32.7500,1.655
32.7500,1.657
32.7500,1.657
32.7510,1.656
32.7510,1.656
32.7510,1.655
32.7510,1.656
32.7510,1.653
32.7510,1.656
32.7510,1.655
32.7520,1.653
32.7520,1.655
32.7520,1.655
32.7520,1.656
32.7520,1.655
32.7520,1.656
32.7530,1.656
32.7530,1.657
32.7530,1.656
32.7530,1.655
32.7530,1.652
32.7530,1.655
32.7530,1.658
32.7539,1.653
32.7539,1.653
32.7539,1.653
32.7549,1.654
32.7549,1.655
32.7549,1.655
32.7549,1.657
32.7549,1.655
32.7549,1.656
32.7549,1.655
32.7549,1.655
32.7560,1.655
32.7560,1.653
32.7560,1.658
32.7560,1.656
32.7560,1.652
32.7569,1.653
32.7569,1.653
32.7569,1.656
32.7569,1.654
32.7569,1.656
32.7569,1.659
32.7579,1.66
32.7579,1.654
32.7579,1.655
32.7579,1.654
32.7579,1.655
32.7579,1.655
32.7579,1.654
32.7579,1.651
32.7589,1.652
32.7589,1.653
32.7589,1.655
32.7589,1.654
32.7589,1.653
32.7589,1.656
32.7599,1.658
32.7599,1.656
32.7599,1.655
32.7599,1.655
32.7599,1.654
32.7599,1.653
32.7599,1.655
32.7609,1.65
32.7609,1.654
32.7609,1.653
32.7609,1.653
32.7609,1.654
32.7609,1.655
32.7609,1.655
32.7619,1.654
32.7629,1.658
32.7629,1.656
32.7639,1.654
32.7639,1.655
32.7639,1.652
32.7649,1.654
32.7649,1.655
32.7649,1.65
32.7659,1.653
32.7659,1.653
32.7659,1.654
32.7669,1.653
32.7669,1.652
32.7669,1.66
32.7679,1.654
32.7689,1.654
32.7689,1.655
32.7689,1.653
32.7699,1.654
32.7699,1.654
32.7709,1.652
32.7709,1.654
32.7709,1.654
32.7719,1.652
32.7719,1.652
32.7719,1.654
32.7719,1.653
32.7719,1.655
32.7719,1.653
32.7729,1.659
32.7729,1.654
32.7729,1.653
32.7729,1.653
32.7729,1.652
32.7739,1.652
32.7739,1.654
32.7739,1.651
32.7739,1.652
32.7739,1.652
32.7739,1.652
32.7739,1.653
32.7749,1.653
32.7749,1.652
32.7749,1.654
32.7749,1.654
32.7749,1.653
32.7749,1.654
32.7759,1.655
32.7759,1.651
32.7759,1.653
32.7769,1.656
32.7769,1.651
32.7769,1.651
32.7779,1.653
32.7779,1.652
32.7779,1.653
32.7779,1.653
32.7789,1.654
32.7789,1.653
32.7799,1.654
32.7799,1.652
32.7799,1.653
32.7809,1.651
32.7809,1.655
32.7809,1.65
32.7819,1.652
32.7819,1.652
32.7819,1.652
32.7819,1.653
32.7828,1.655
32.7828,1.654
32.7838,1.654
32.7838,1.653
32.7838,1.652
32.7838,1.653
32.7848,1.65
32.7848,1.653
32.7848,1.651
32.7848,1.648
32.7848,1.655
32.7848,1.652
32.7848,1.652
32.7858,1.652
32.7858,1.652
32.7858,1.653
32.7858,1.658
32.7858,1.652
32.7858,1.654
32.7858,1.653
32.7868,1.652
32.7868,1.654
32.7868,1.653
32.7868,1.655
32.7868,1.654
32.7868,1.651
32.7868,1.65
32.7878,1.652
32.7878,1.653
32.7878,1.653
32.7878,1.654
32.7878,1.652
32.7878,1.653
32.7878,1.653
32.7888,1.653
32.7888,1.653
32.7888,1.652
32.7888,1.65
32.7888,1.657
32.7888,1.65
32.7888,1.65
32.7898,1.652
32.7898,1.652
32.7908,1.654
32.7908,1.651
32.7908,1.653
32.7918,1.655
32.7918,1.653
32.7918,1.653
32.7929,1.652
32.7929,1.653
32.7929,1.651
32.7939,1.655
32.7939,1.651
32.7939,1.65
32.7949,1.651
32.7949,1.65
32.7949,1.652
32.7949,1.652
32.7949,1.651
32.7958,1.653
32.7958,1.654
32.7958,1.653
32.7958,1.652
32.7958,1.65
32.7958,1.65
32.7958,1.652
32.7968,1.648
32.7968,1.652
32.7968,1.65
32.7968,1.65
32.7968,1.651
32.7968,1.652
32.7968,1.651
32.7978,1.652
32.7978,1.653
32.7978,1.651
32.7978,1.652
32.7978,1.651
32.7978,1.649
32.7988,1.652
32.7988,1.651
32.7988,1.65
32.7988,1.651
32.7988,1.65
32.7988,1.65
32.7988,1.651
32.7998,1.651
32.7998,1.653
32.7998,1.65
32.7998,1.654
32.7998,1.652
32.7998,1.652
32.7998,1.65
32.8008,1.649
32.8008,1.652
32.8008,1.654
32.8008,1.651
32.8008,1.65
32.8008,1.65
32.8008,1.651
32.8018,1.65
32.8018,1.65
32.8028,1.652
32.8048,1.655
32.8098,1.652
32.8148,1.653
32.8178,1.65
32.8178,1.651
32.8178,1.65
32.8178,1.652
32.8178,1.649
32.8178,1.65
32.8188,1.649
32.8188,1.649
32.8188,1.651
32.8188,1.65
32.8188,1.653
32.8188,1.655
32.8188,1.651
32.8198,1.651
32.8198,1.651
32.8198,1.65
32.8198,1.652
32.8198,1.652
32.8198,1.648
32.8198,1.651
32.8208,1.649
32.8208,1.65
32.8208,1.65
32.8208,1.652
32.8208,1.652
32.8208,1.651
32.8208,1.655
32.8218,1.651
32.8218,1.652
32.8218,1.651
32.8218,1.65
32.8218,1.651
32.8218,1.649
32.8218,1.646
32.8228,1.649
32.8228,1.65
32.8228,1.649
32.8228,1.651
32.8228,1.65
32.8238,1.652
32.8238,1.65
32.8238,1.653
32.8238,1.652
32.8238,1.652
32.8238,1.651
32.8248,1.649
32.8248,1.651
33.5743,1.651
33.5773,1.648
33.5773,1.649
33.5773,1.649
33.5783,1.65
33.5783,1.651
33.5783,1.651
33.5783,1.649
33.5783,1.654
33.5783,1.652
33.5783,1.651
33.5793,1.65
33.5793,1.65
33.5793,1.649
33.5793,1.651
33.5793,1.648
33.5793,1.649
33.5793,1.649
33.5803,1.649
33.5803,1.65
33.5803,1.651
33.5803,1.65
33.5803,1.65
33.5803,1.652
33.5803,1.652
33.5813,1.65
33.5813,1.651
33.5813,1.65
33.5813,1.648
33.5813,1.655
33.5813,1.65
33.5823,1.649
33.5823,1.649
33.5823,1.648
33.5823,1.65
33.5833,1.65
33.5833,1.653
33.5833,1.654
33.5833,1.65
33.5833,1.651
33.5843,1.65
33.5843,1.65
33.5843,1.651
33.5843,1.651
33.5853,1.646
33.5853,1.649
33.5853,1.649
33.5853,1.649
33.5853,1.649
33.5863,1.649
33.5863,1.651
33.5863,1.648
33.5863,1.655
33.5873,1.651
33.5873,1.651
33.5873,1.65
33.5873,1.651
33.5873,1.649
33.5883,1.65
33.5883,1.646
33.5883,1.649
33.5883,1.649
33.5883,1.649
33.5883,1.65
33.5883,1.65
33.5893,1.65
33.5893,1.656
33.5893,1.65
33.5893,1.65
33.5893,1.65
33.5903,1.65
33.5903,1.651
33.5903,1.65
33.5903,1.65
33.5903,1.648
33.5903,1.649
33.5903,1.648
33.5913,1.648
33.5913,1.649
33.5913,1.651
33.5913,1.65
33.5913,1.653
33.5913,1.65
33.5913,1.651
33.5923,1.65
33.5923,1.649
33.5923,1.649
33.5923,1.646
33.5923,1.653
33.5923,1.65
33.5923,1.649
33.5933,1.649
33.5933,1.649
33.5933,1.65
33.5933,1.649
33.5933,1.652
33.5933,1.652
33.5933,1.651
33.5933,1.651
33.5943,1.65
33.5943,1.65
33.5943,1.65
33.5943,1.649
33.5943,1.649
33.5943,1.648
33.5943,1.648
33.5953,1.649
33.5953,1.65
33.5953,1.649
33.5953,1.651
33.5953,1.65
33.5953,1.651
33.5953,1.651
33.5963,1.649
33.5963,1.649
33.5963,1.648
33.5963,1.65
33.5973,1.654
33.5973,1.648
33.5973,1.648
33.5973,1.649
33.5973,1.65
33.5983,1.649
33.5983,1.65
33.5983,1.649
33.5983,1.651
33.5983,1.65
33.5983,1.65
33.5993,1.65
33.5993,1.648
33.5993,1.648
33.5993,1.651
33.5993,1.647
33.5993,1.648
33.6003,1.649
33.6003,1.649
33.6003,1.652
33.6003,1.648
33.6003,1.656
33.6003,1.649
33.6003,1.65
33.6013,1.651
33.6013,1.65
33.6013,1.65
33.6013,1.651
33.6023,1.649
33.6023,1.648
33.6023,1.65
33.6023,1.649
33.6023,1.649
33.6023,1.649
33.6023,1.649
33.6033,1.651
33.6033,1.655
33.6033,1.648
33.6033,1.651
33.6033,1.651
33.6033,1.65
33.6042,1.651
33.6042,1.648
33.6042,1.652
33.6042,1.646
33.6042,1.648
33.6042,1.65
33.6042,1.649
33.6052,1.649
33.6052,1.649
33.6052,1.654
33.6052,1.652
33.6052,1.65
33.6052,1.65
33.6062,1.651
33.6062,1.651
33.6062,1.65
33.6062,1.647
33.6062,1.654
33.6062,1.652
33.6062,1.648
33.6072,1.649
33.6072,1.65
33.6072,1.652
33.6072,1.651
33.6082,1.65
33.6082,1.652
33.6082,1.651
33.6082,1.65
33.6082,1.65
33.6082,1.649
33.6082,1.647
33.6092,1.651
33.6092,1.646
33.6092,1.649
33.6092,1.649
33.6102,1.649
33.6102,1.65
33.6102,1.65
33.6102,1.648
33.6102,1.655
33.6102,1.652
33.6112,1.65
33.6112,1.651
33.6112,1.65
33.6112,1.651
33.6112,1.652
33.6112,1.647
33.6122,1.649
33.6122,1.65
33.6122,1.649
33.6132,1.651
33.6132,1.65
33.6132,1.65
33.6132,1.652
33.6142,1.653
33.6142,1.65
33.6142,1.651
33.6152,1.65
33.6152,1.651
33.6152,1.651
33.6152,1.648
33.6162,1.654
33.6162,1.649
33.6162,1.65
33.6162,1.65
33.6162,1.649
33.6162,1.65
33.6162,1.652
33.6172,1.65
33.6172,1.651
33.6172,1.652
33.6172,1.65
33.6172,1.651
33.6172,1.65
33.6172,1.648
33.6182,1.652
33.6182,1.652
33.6182,1.649
33.6182,1.65
33.6182,1.649
33.6182,1.651
33.6192,1.65
33.6192,1.65
33.6192,1.653
33.6192,1.651
33.6192,1.652
33.6192,1.651
33.6192,1.65
33.6192,1.648
33.6202,1.653
33.6202,1.649
33.6202,1.649
33.6202,1.65
33.6212,1.65
33.6212,1.651
33.6212,1.651
33.6212,1.651
33.6222,1.653
33.6222,1.654
33.6222,1.65
33.6222,1.65
33.6222,1.649
33.6232,1.649
33.6232,1.652
33.6232,1.648
33.6232,1.649
33.6232,1.649
33.6232,1.649
33.6242,1.651
33.6242,1.651
33.6242,1.65
33.6242,1.651
33.6242,1.653
33.6242,1.651
33.6242,1.651
33.6252,1.652
33.6252,1.651
33.6252,1.651
33.6252,1.654
33.6252,1.649
33.6252,1.65
33.6252,1.651
33.6262,1.65
33.6262,1.651
33.6262,1.651
33.6262,1.65
33.6262,1.655
33.6262,1.655
33.6262,1.652
33.6272,1.652
33.6272,1.652
33.6272,1.649
33.6272,1.651
33.6272,1.653
33.6272,1.65
33.6272,1.651
33.6282,1.649
33.6282,1.649
33.6282,1.652
33.6282,1.65
33.6282,1.653
33.6282,1.656
33.6282,1.651
33.6292,1.652
33.6292,1.651
33.6292,1.651
33.6292,1.654
33.6292,1.65
33.6292,1.652
33.6302,1.652
33.6302,1.65
33.6302,1.65
33.6302,1.651
33.6302,1.652
33.6302,1.652
33.6312,1.65
33.6312,1.652
33.6312,1.652
33.6312,1.651
33.6312,1.651
33.6312,1.652
33.6322,1.65
33.6322,1.654
33.6322,1.65
33.6322,1.65
33.6332,1.651
33.6332,1.651
33.6332,1.652
33.6332,1.652
33.6332,1.65
33.6332,1.654
33.6332,1.653
33.6342,1.651
33.6342,1.649
33.6342,1.653
33.6342,1.65
33.6342,1.651
33.6342,1.651
33.6352,1.651
33.6352,1.651
33.6352,1.651
33.6352,1.652
33.6352,1.652
33.6352,1.658
33.6362,1.652
33.6362,1.653
33.6362,1.652
33.6362,1.651
33.6362,1.652
33.6362,1.653
33.6362,1.649
33.6362,1.653
33.6372,1.651
33.6372,1.65
33.6372,1.651
33.6372,1.651
33.6372,1.651
33.6372,1.653
33.6372,1.651
33.6382,1.653
33.6382,1.652
33.6382,1.652
33.6382,1.651
33.6382,1.652
33.6382,1.655
33.6382,1.646
33.6392,1.649
33.6392,1.65
33.6392,1.651
33.6392,1.652
33.6402,1.651
33.6402,1.652
33.6402,1.656
33.6402,1.651
33.6402,1.653
33.6402,1.652
33.6412,1.652
33.6412,1.653
33.6412,1.651
33.6412,1.65
33.6412,1.653
33.6412,1.649
33.6412,1.65
33.6421,1.651
33.6421,1.652
33.6421,1.653
33.6421,1.653
33.6431,1.654
33.6431,1.652
33.6431,1.652
33.6431,1.651
33.6441,1.649
33.6441,1.651
33.6441,1.654
33.6441,1.648
33.6441,1.649
33.6441,1.649
33.6451,1.651
33.6451,1.651
33.6451,1.652
33.6451,1.651
33.6451,1.651
33.6451,1.653
33.6461,1.653
33.6461,1.651
33.6461,1.651
33.6461,1.652
33.6461,1.652
33.6471,1.654
33.6471,1.649
33.6471,1.649
33.6471,1.65
33.6471,1.651
33.6481,1.653
33.6481,1.651
33.6481,1.654
33.6481,1.655
33.6481,1.652
33.6491,1.653
33.6491,1.652
33.6491,1.652
33.6491,1.653
33.6491,1.649
33.6491,1.652
33.6501,1.65
33.6501,1.65
33.6501,1.651
33.6501,1.651
33.6501,1.651
33.6501,1.654
33.6511,1.65
33.6511,1.652
33.6511,1.653
33.6511,1.652
33.6511,1.651
33.6521,1.651
33.6521,1.652
33.6521,1.655
33.6521,1.65
33.6532,1.65
33.6532,1.651
33.6532,1.65
33.6532,1.652
33.6541,1.651
33.6541,1.651
33.6541,1.655
33.6541,1.653
33.6541,1.651
33.6541,1.651
33.6551,1.652
33.6551,1.653
33.6551,1.652
33.6561,1.647
33.6561,1.653
33.6561,1.649
33.6561,1.65
33.6571,1.652
33.6571,1.652
33.6571,1.65
33.6571,1.655
33.6581,1.651
33.6581,1.652
33.6581,1.653
33.6581,1.652
33.6581,1.651
33.6591,1.652
33.6591,1.648
33.6591,1.653
33.6601,1.651
33.6601,1.649
33.6601,1.65
33.6601,1.651
33.6601,1.651
33.6611,1.654
33.6611,1.654
33.6611,1.652
33.6611,1.653
33.6611,1.652
33.6611,1.651
33.6611,1.652
33.6621,1.653
33.6621,1.652
33.6621,1.651
33.6631,1.65
33.6631,1.651
33.6631,1.652
33.6631,1.651
33.6631,1.652
33.6631,1.653
33.6641,1.657
33.6641,1.651
33.6641,1.652
33.6641,1.651
33.6641,1.651
33.6651,1.653
33.6651,1.648
33.6651,1.652
33.6651,1.65
33.6651,1.651
33.6651,1.65
33.6661,1.65
33.6661,1.65
33.6661,1.651
33.6671,1.654
33.6671,1.653
33.6671,1.651
33.6671,1.652
33.6681,1.651
33.6681,1.651
33.6681,1.651
33.6691,1.65
33.6691,1.65
33.6691,1.65
33.6701,1.649
33.6701,1.651
33.6711,1.651
33.6711,1.652
33.6711,1.653
33.6711,1.651
33.6721,1.651
33.6741,1.652
33.6761,1.651
33.6761,1.652
33.6771,1.649
33.6771,1.65
33.6780,1.649
33.6780,1.65
33.6780,1.65
33.6790,1.649
33.6800,1.65
33.6800,1.65
33.6810,1.654
33.6970,1.655
33.7100,1.651
33.7100,1.651
33.7110,1.652
33.7110,1.651
33.7110,1.652
33.7120,1.649
33.7120,1.65
33.7120,1.65
33.7120,1.65
33.7130,1.649
33.7130,1.652
33.7130,1.651
33.7140,1.65
33.7140,1.655
33.7140,1.649
33.7150,1.65
33.7150,1.651
33.7150,1.651
33.7159,1.65
33.7159,1.65
33.7159,1.65
33.7169,1.648
33.7169,1.65
33.7169,1.65
33.7179,1.649
33.7179,1.649
33.7179,1.651
33.7189,1.651
33.7189,1.654
33.7189,1.655
33.7189,1.651
33.7199,1.651
33.7199,1.651
33.7199,1.652
33.7209,1.649
33.7209,1.65
33.7209,1.654
33.7219,1.649
33.7219,1.649
33.7219,1.65
33.7219,1.649
33.7229,1.651
33.7229,1.651
33.7239,1.65
33.7239,1.651
33.7239,1.651
33.7249,1.652
33.7249,1.649
33.7249,1.65
33.7259,1.651
33.7259,1.652
33.7259,1.65
33.7259,1.649
33.7269,1.649
33.7269,1.651
33.7269,1.65
33.7269,1.652
33.7279,1.648
33.7279,1.651
33.7279,1.651
33.7289,1.65
33.7289,1.65
33.7289,1.65
33.7289,1.649
33.7299,1.655
33.7299,1.647
33.7299,1.648
33.7309,1.649
33.7309,1.65
33.7309,1.651
33.7309,1.65
33.7319,1.651
33.7319,1.656
33.7319,1.65
33.7329,1.65
33.7329,1.65
33.7329,1.65
33.7339,1.651
33.7339,1.651
33.7339,1.654
33.7349,1.651
33.7349,1.649
33.7349,1.649
33.7349,1.65
33.7359,1.651
33.7359,1.652
33.7359,1.653
33.7369,1.655
33.7369,1.65
33.7369,1.65
33.7369,1.65
33.7379,1.648
33.7389,1.65
33.7389,1.654
33.7389,1.649
33.7409,1.648
33.7419,1.649
33.7419,1.649
33.7429,1.65
33.7429,1.65
33.7429,1.648
33.7439,1.65
33.7439,1.651
33.7439,1.651
33.7439,1.65
33.7449,1.65
33.7449,1.651
33.7449,1.648
33.7449,1.653
33.7459,1.649
33.7459,1.648
33.7469,1.649
33.7469,1.648
33.7469,1.651
33.7479,1.65
33.7479,1.646
33.7479,1.652
33.7479,1.65
33.7489,1.65
33.7489,1.649
33.7489,1.648
33.7499,1.647
33.7499,1.65
33.7499,1.651
33.7499,1.648
33.7509,1.649
33.7509,1.648
33.7509,1.649
33.7519,1.651
33.7519,1.649
33.8029,1.654
33.8069,1.65
33.8089,1.65
33.8109,1.649
33.8119,1.649
33.8119,1.649
33.8129,1.646
33.8129,1.651
33.8129,1.651
33.8139,1.647
33.8139,1.649
33.8139,1.649
33.8139,1.649
33.8149,1.648
33.8149,1.648
33.8159,1.653
33.8159,1.649
33.8159,1.649
33.8159,1.648
33.8169,1.648
33.8169,1.649
33.8169,1.648
33.8169,1.645
33.8179,1.647
33.8179,1.647
33.8179,1.649
33.8179,1.649
33.8189,1.649
33.8189,1.65
33.8189,1.65
33.8189,1.65
33.8199,1.649
33.8199,1.649
33.8199,1.649
33.8199,1.648
33.8209,1.648
33.8209,1.649
33.8209,1.65
33.8209,1.647
33.8219,1.648
33.8219,1.648
33.8219,1.647
33.8229,1.65
33.8229,1.648
33.8239,1.648
33.8239,1.649
33.8239,1.649
33.8249,1.649
33.8249,1.647
33.8259,1.648
33.8259,1.649
33.8259,1.646
33.8268,1.649
33.8268,1.647
33.8268,1.647
33.8278,1.649
33.8278,1.648
33.8278,1.648
33.8278,1.648
33.8288,1.649
33.8288,1.649
33.8288,1.649
33.8288,1.648
33.8298,1.649
33.8298,1.649
33.8298,1.65
33.8298,1.645
33.8308,1.647
33.8308,1.647
33.8308,1.647
33.8318,1.648
33.8318,1.648
33.8318,1.646
33.8328,1.654
33.8328,1.649
33.8328,1.649
33.8328,1.648
33.8338,1.648
33.8338,1.65
33.8338,1.648
33.8338,1.648
33.8348,1.648
33.8348,1.647
33.8348,1.647
33.8358,1.648
33.8358,1.648
33.8358,1.649
33.8368,1.65
33.8368,1.648
33.8368,1.649
33.8378,1.648
33.8378,1.648
33.8378,1.648
33.8388,1.646
33.8388,1.652
33.8388,1.646
33.8388,1.647
33.8398,1.646
33.8398,1.648
33.8398,1.647
33.8408,1.648
33.8408,1.653
33.8418,1.65
33.8418,1.649
33.8428,1.648
33.8438,1.648
33.8438,1.648
33.8438,1.649
33.8438,1.647
33.8448,1.647
33.8448,1.647
33.8448,1.646
33.8448,1.646
33.8458,1.647
33.8458,1.647
33.8458,1.649
33.8468,1.649
33.8468,1.653
33.8468,1.649
33.8478,1.647
33.8478,1.649
33.8478,1.648
33.8488,1.648
33.8488,1.648
33.8488,1.647
33.8488,1.646
33.8498,1.646
33.8498,1.647
33.8498,1.648
33.8508,1.648
33.8508,1.654
33.8508,1.648
33.8508,1.648
33.8518,1.648
33.8518,1.648
33.8518,1.648
33.8518,1.647
33.8528,1.647
33.8528,1.652
33.8528,1.646
33.8538,1.648
33.8538,1.646
33.8538,1.647
33.8548,1.648
33.8548,1.647
33.8558,1.653
33.8558,1.65
33.8558,1.649
33.8568,1.649
33.8568,1.649
33.8578,1.648
33.8578,1.645
33.8578,1.647
33.8578,1.65
33.8588,1.647
33.8588,1.646
33.8588,1.647
33.8588,1.647
33.8598,1.65
33.8598,1.649
33.8598,1.649
33.8598,1.65
33.8608,1.649
33.8608,1.648
33.8608,1.648
34.4837,1.645
34.4847,1.65
34.4847,1.646
34.4847,1.647
34.4847,1.647
34.4857,1.648
34.4857,1.646
34.4857,1.648
34.4857,1.648
34.4857,1.648
34.4867,1.649
34.4867,1.648
34.4867,1.647
34.4867,1.646
34.4877,1.646
34.4877,1.652
34.4877,1.647
34.4877,1.647
34.4887,1.645
34.4887,1.646
34.4887,1.648
34.4887,1.647
34.4897,1.645
34.4897,1.653
34.4897,1.648
34.4907,1.648
34.4907,1.648
34.4907,1.647
34.4907,1.648
34.4917,1.647
34.4917,1.646
34.4917,1.647
34.4917,1.647
34.4927,1.647
34.4927,1.647
34.4927,1.646
34.4927,1.651
34.4937,1.648
34.4937,1.647
34.4937,1.648
34.4947,1.648
34.4947,1.647
34.4947,1.648
34.4947,1.645
34.4957,1.645
34.4957,1.649
34.4957,1.646
34.4957,1.646
34.4967,1.647
34.4967,1.646
34.4967,1.649
34.4967,1.648
34.4977,1.651
34.4977,1.647
34.4977,1.647
34.4977,1.647
34.4977,1.646
34.4987,1.646
34.4987,1.647
34.4987,1.644
34.4987,1.647
34.4997,1.646
34.4997,1.647
34.4997,1.646
34.4997,1.646
34.5007,1.651
34.5007,1.649
34.5007,1.643
34.5007,1.648
34.5017,1.648
34.5017,1.647
34.5017,1.647
34.5017,1.645
34.5027,1.646
34.5027,1.649
34.5027,1.645
34.5027,1.646
34.5037,1.646
34.5037,1.647
34.5037,1.647
34.5037,1.646
34.5047,1.651
34.5047,1.647
34.5047,1.647
34.5047,1.647
34.5057,1.646
34.5057,1.645
34.5057,1.646
34.5057,1.643
34.5067,1.646
34.5067,1.645
34.5067,1.645
34.5077,1.645
34.5077,1.646
34.5077,1.649
34.5087,1.647
34.5087,1.646
34.5087,1.648
34.5087,1.648
34.5097,1.646
34.5097,1.648
34.5097,1.645
34.5097,1.649
34.5107,1.649
34.5107,1.646
34.5107,1.646
34.5107,1.646
34.5117,1.647
34.5117,1.646
34.5117,1.646
34.5117,1.651
34.5117,1.648
34.5127,1.648
34.5127,1.647
34.5127,1.647
34.5127,1.648
34.5137,1.645
34.5137,1.647
34.5137,1.646
34.5137,1.646
34.5146,1.646
34.5146,1.645
34.5146,1.647
34.5146,1.647
34.5156,1.652
34.5156,1.646
34.5156,1.648
34.5156,1.647
34.5166,1.647
34.5166,1.647
34.5166,1.646
34.5166,1.646
34.5166,1.649
34.5176,1.645
34.5176,1.645
34.5176,1.645
34.5176,1.646
34.5186,1.647
34.5186,1.646
34.5186,1.649
34.5186,1.649
34.5196,1.647
34.5196,1.647
34.5196,1.645
34.5196,1.647
34.5196,1.646
34.5206,1.645
34.5206,1.649
34.5206,1.645
34.5206,1.645
34.5216,1.646
34.5216,1.647
34.5216,1.646
34.5216,1.646
34.5226,1.65
34.5226,1.647
34.5226,1.647
34.5236,1.647
34.5236,1.646
34.5236,1.648
34.5246,1.645
34.5246,1.645
34.5246,1.644
34.5256,1.645
34.5256,1.646
34.5256,1.646
34.5256,1.646
34.5266,1.648
34.5266,1.648
34.5266,1.645
34.5276,1.646
34.5276,1.647
34.5276,1.646
34.5286,1.648
34.5286,1.646
34.5286,1.644
34.5296,1.651
34.5296,1.645
34.5296,1.646
34.5296,1.645
34.5306,1.646
34.5306,1.646
34.5306,1.646
34.5306,1.65
34.5316,1.648
34.5316,1.647
34.5316,1.648
34.5326,1.646
34.5326,1.647
34.5326,1.648
34.5336,1.643
34.5336,1.648
34.5336,1.644
34.5346,1.644
34.5346,1.644
34.5346,1.645
34.5346,1.647
34.5356,1.643
34.5356,1.649
34.5356,1.649
34.5366,1.646
34.5366,1.646
34.5366,1.645
34.5376,1.646
34.5376,1.648
34.5376,1.644
34.5386,1.645
34.5386,1.645
34.5386,1.645
34.5396,1.645
34.5396,1.646
34.5396,1.646
34.5406,1.648
34.5406,1.646
34.5406,1.647
34.5406,1.646
34.5416,1.646
34.5416,1.646
34.5416,1.643
34.5416,1.651
34.5426,1.645
34.5426,1.644
34.5426,1.645
34.5426,1.645
34.5426,1.645
34.5436,1.646
34.5436,1.648
34.5436,1.645
34.5436,1.648
34.5446,1.647
34.5446,1.647
34.5446,1.645
34.5446,1.644
34.5456,1.648
34.5456,1.645
34.5456,1.645
34.5456,1.645
34.5466,1.644
34.5466,1.646
34.5466,1.646
34.5466,1.645
34.5476,1.649
34.5476,1.645
34.5476,1.647
34.5476,1.646
34.5476,1.647
34.5625,1.646
34.5675,1.645
34.5775,1.648
34.5775,1.645
34.5775,1.645
34.5785,1.644
34.5785,1.645
34.5785,1.646
34.5795,1.646
34.5795,1.651
34.5795,1.647
34.5795,1.647
34.5805,1.646
34.5805,1.646
34.5805,1.646
34.5805,1.646
34.5815,1.643
34.5815,1.644
34.5815,1.644
34.5815,1.644
34.5815,1.645
34.5825,1.645
34.5825,1.647
34.5825,1.646
34.5825,1.647
34.5835,1.648
34.5835,1.647
34.5835,1.646
34.5835,1.646
34.5845,1.646
34.5845,1.646
34.5845,1.645
34.5845,1.644
34.5855,1.645
34.5855,1.644
34.5855,1.645
34.5855,1.646
34.5865,1.646
34.5865,1.647
34.5865,1.65
34.5875,1.646
34.5875,1.646
34.5875,1.646
34.5885,1.646
34.5885,1.647
34.5885,1.644
34.5885,1.643
34.5894,1.644
34.5894,1.645
34.5894,1.644
34.5904,1.644
34.5904,1.646
34.5914,1.646
34.5914,1.65
34.5914,1.646
34.5914,1.647
34.5924,1.646
34.5924,1.646
34.5924,1.647
34.5924,1.643
34.5934,1.645
34.5934,1.648
34.5934,1.644
34.5934,1.645
34.5934,1.645
34.5944,1.646
34.5944,1.646
34.5944,1.644
34.5954,1.65
34.5954,1.647
34.5954,1.647
34.5954,1.645
34.5954,1.646
34.5964,1.646
34.5964,1.644
34.5964,1.647
34.5974,1.643
34.5974,1.645
34.5974,1.644
34.5974,1.644
34.5984,1.646
34.5984,1.644
34.5984,1.649
34.5984,1.645
34.5994,1.647
34.5994,1.646
34.5994,1.646
34.6004,1.645
34.6004,1.645
34.6004,1.646
34.6004,1.643
34.6014,1.645
34.6014,1.644
34.6014,1.645
34.6024,1.645
34.6024,1.646
34.6024,1.646
34.6024,1.652
34.6034,1.646
34.6034,1.645
34.6034,1.646
34.6034,1.645
34.6044,1.646
34.6044,1.643
34.6044,1.646
34.6044,1.644
34.6054,1.643
34.6054,1.644
34.6054,1.644
34.6054,1.645
34.6064,1.647
34.6064,1.645
34.6064,1.649
34.6064,1.647
34.6074,1.646
34.6074,1.646
34.6144,1.644
34.6144,1.646
34.6154,1.644
34.6154,1.644
34.6154,1.645
34.6154,1.643
34.6164,1.645
34.6164,1.645
34.6164,1.644
34.6174,1.646
34.6174,1.649
34.6174,1.644
34.6174,1.646
34.6174,1.645
34.6184,1.645
34.6184,1.646
34.6184,1.644
34.6184,1.643
34.6194,1.643
34.6194,1.644
34.6194,1.644
34.6204,1.645
34.6204,1.645
34.6204,1.646
34.6204,1.644
34.6214,1.65
34.6214,1.645
34.6214,1.646
34.6214,1.645
34.6224,1.645
34.6224,1.646
34.6224,1.645
34.6234,1.644
34.6234,1.645
34.6234,1.645
34.6234,1.644
34.6244,1.644
34.6244,1.645
34.6244,1.646
34.6244,1.65
34.6254,1.649
34.6254,1.646
34.6254,1.646
34.6254,1.646
34.6264,1.644
34.6264,1.646
34.6264,1.647
34.6264,1.647
34.6273,1.645
34.6273,1.644
34.6273,1.644
34.6273,1.645
34.6283,1.645
34.6283,1.653
34.6283,1.645
34.6283,1.646
34.6293,1.647
34.6293,1.647
34.6293,1.646
34.6293,1.647
34.6293,1.643
34.6303,1.646
34.6303,1.645
34.6303,1.645
34.6303,1.646
34.6303,1.645
34.6313,1.646
34.6313,1.647
34.6313,1.645
34.6323,1.644
34.6323,1.647
34.6323,1.648
34.6333,1.647
34.6333,1.647
34.6333,1.645
34.6333,1.647
34.6343,1.642
34.6343,1.645
34.6343,1.645
34.6343,1.646
34.6343,1.646
34.6353,1.646
34.6353,1.649
34.6353,1.646
34.6353,1.646
34.6363,1.647
34.6363,1.646
34.6363,1.646
34.6363,1.646
34.6373,1.642
34.6373,1.649
34.6373,1.646
34.6373,1.645
34.6383,1.645
34.6383,1.646
34.6383,1.646
34.6383,1.647
34.6393,1.646
34.6403,1.649
34.6403,1.647
34.6403,1.647
34.6403,1.647
34.6413,1.646
34.6413,1.646
34.6413,1.644
34.6423,1.644
34.6423,1.645
34.6423,1.645
34.6433,1.646
34.6433,1.647
34.6433,1.646
34.6443,1.652
34.6443,1.647
34.6443,1.648
34.6453,1.647
34.6453,1.646
34.6453,1.646
34.6453,1.647
34.6463,1.643
34.6463,1.647
34.6463,1.649
34.6473,1.644
34.6583,1.645
34.6583,1.647
34.6583,1.646
34.6593,1.648
34.6593,1.65
34.6593,1.65
34.6593,1.648
34.6623,1.648
34.6642,1.648
34.6712,1.646
34.6732,1.646
34.6812,1.647
35.1679,1.646
35.1689,1.645
35.1689,1.645
35.1689,1.648
35.1689,1.647
35.1689,1.653
35.1699,1.646
35.1699,1.648
35.1699,1.648
35.1699,1.648
35.1709,1.648
35.1709,1.647
35.1709,1.647
35.1719,1.644
35.1719,1.647
35.1719,1.647
35.1729,1.646
35.1729,1.647
35.1729,1.646
35.1739,1.648
35.1739,1.649
35.1739,1.647
35.1739,1.648
35.1749,1.648
35.1749,1.646
35.1749,1.648
35.1749,1.645
35.1759,1.649
35.1759,1.648
35.1859,1.647
35.1859,1.646
35.1869,1.645
35.1869,1.648
35.1869,1.649
35.1878,1.648
35.1878,1.647
35.1878,1.65
35.1878,1.649
35.1888,1.648
35.1888,1.648
35.1898,1.646
35.1908,1.649
35.1908,1.652
35.1908,1.645
35.1908,1.647
35.1918,1.646
35.1918,1.646
35.1918,1.648
35.1928,1.648
35.1928,1.65
35.1928,1.652
35.1928,1.649
35.1938,1.649
35.1938,1.648
35.1938,1.647
35.1938,1.648
35.1948,1.647
35.1948,1.646
35.1948,1.647
35.1948,1.647
35.1958,1.646
35.1958,1.648
35.1958,1.648
35.1958,1.648
35.1968,1.652
35.1968,1.648
35.1968,1.648
35.1968,1.647
35.1978,1.648
35.1978,1.649
35.1978,1.649
35.1978,1.645
35.1978,1.647
35.1988,1.646
35.1988,1.647
35.1988,1.648
35.1988,1.647
35.1998,1.649
35.1998,1.648
35.1998,1.652
35.1998,1.65
35.2008,1.649
35.2008,1.648
35.2008,1.648
35.2008,1.646
35.2018,1.65
35.2028,1.649
35.2028,1.646
35.2038,1.647
35.2038,1.648
35.2038,1.648
35.2038,1.648
35.2048,1.648
35.2048,1.65
35.2048,1.652
35.2048,1.648
35.2058,1.649
35.2058,1.648
35.2068,1.647
35.2078,1.648
35.2078,1.647
35.2078,1.648
35.2078,1.647
35.2088,1.646
35.2088,1.648
35.2088,1.648
35.2098,1.649
35.2098,1.652
35.2098,1.649
35.2108,1.648
35.2108,1.649
35.2108,1.649
35.2138,1.648
35.2307,1.648
35.2327,1.649
35.2357,1.646
35.2367,1.65
35.2367,1.647
35.2367,1.646
35.2367,1.649
35.2377,1.648
35.2377,1.652
35.2377,1.65
35.2377,1.649
35.2387,1.649
35.2387,1.649
35.2387,1.649
35.2387,1.648
35.2397,1.648
35.2397,1.645
35.2397,1.652
35.2397,1.648
35.2407,1.647
35.2407,1.648
35.2407,1.647
35.2417,1.648
35.2417,1.648
35.2417,1.649
35.2417,1.649
35.2427,1.649
35.2427,1.649
35.2427,1.648
35.2427,1.647
35.2437,1.654
35.2447,1.648
35.2447,1.646
35.2447,1.648
35.2447,1.646
35.2457,1.648
35.2457,1.649
35.2457,1.647
35.2467,1.653
35.2467,1.651
35.2467,1.65
35.2467,1.65
35.2477,1.649
35.2477,1.648
35.2477,1.649
35.2477,1.649
35.2487,1.646
35.2487,1.648
35.2487,1.647
35.2497,1.649
35.2497,1.649
35.2497,1.648
35.2497,1.651
35.2507,1.652
35.2507,1.649
35.2507,1.649
35.2517,1.65
35.2517,1.648
35.2517,1.649
35.2517,1.648
35.2517,1.652
35.2527,1.648
35.2527,1.647
35.2527,1.648
35.2537,1.648
35.2537,1.647
35.2537,1.651
35.2537,1.649
35.2547,1.649
35.2547,1.65
35.2547,1.65
35.2547,1.65
35.2557,1.649
35.2557,1.647
35.2567,1.648
35.2577,1.653
35.2577,1.646
35.2587,1.647
35.2587,1.647
35.2587,1.649
35.2587,1.65
35.2597,1.65
35.2597,1.649
35.2597,1.652
35.2607,1.65
35.2607,1.649
35.2607,1.65
35.2607,1.647
35.2607,1.649
35.2617,1.649
35.2626,1.647
35.2626,1.647
35.2626,1.648
35.2626,1.648
35.2636,1.649
35.2636,1.648
35.2636,1.655
35.2636,1.651
35.2646,1.649
35.2646,1.65
35.2646,1.65
35.2656,1.65
35.2656,1.649
35.2656,1.647
35.2656,1.648
35.2666,1.65
35.2666,1.648
35.2666,1.648
35.2666,1.649
35.2676,1.648
35.2676,1.651
35.2676,1.648
35.2676,1.646
35.2676,1.649
35.2676,1.649
35.2686,1.649
35.2686,1.648
35.2686,1.648
35.2686,1.651
35.2696,1.647
35.2696,1.648
35.2696,1.648
35.2696,1.649
35.2696,1.648
35.2706,1.649
35.2706,1.648
35.2706,1.654
35.2706,1.65
35.2716,1.649
35.2716,1.65
35.2716,1.649
35.2726,1.65
35.2726,1.647
35.2736,1.648
35.2736,1.647
35.2736,1.647
35.2746,1.647
35.2746,1.649
35.2746,1.648
35.2746,1.649
35.2746,1.655
35.2756,1.649
35.2756,1.651
35.2756,1.65
35.2756,1.648
35.2766,1.649
35.2766,1.649
35.2766,1.648
35.2766,1.652
35.2776,1.648
35.2776,1.647
35.2776,1.649
35.2776,1.648
35.2786,1.65
35.2786,1.65
35.2786,1.649
35.2786,1.65
35.2796,1.649
35.2796,1.65
35.2806,1.65
35.2806,1.649
35.2806,1.647
35.2816,1.652
35.2816,1.647
35.2816,1.648
35.2816,1.649
35.2826,1.649
35.2836,1.649
35.2846,1.649
35.2886,1.65
35.2886,1.65
35.2886,1.65
35.2896,1.65
35.2906,1.649
35.2916,1.648
35.2916,1.647
35.2916,1.65
35.2926,1.648
35.2946,1.648
35.2946,1.648
35.2946,1.648
35.2946,1.649
35.2956,1.649
35.2956,1.649
35.2956,1.652
35.2956,1.65
35.2966,1.65
35.2966,1.65
35.2966,1.649
35.2976,1.65
35.2976,1.649
35.2976,1.646
35.2976,1.652
35.2986,1.647
35.2995,1.648
35.2995,1.648
35.2995,1.649
35.2995,1.65
35.3005,1.652
35.3005,1.649
35.3005,1.65
35.3005,1.651
35.3015,1.649
35.3015,1.649
35.3015,1.648
35.3025,1.65
35.3025,1.65
35.3025,1.647
35.3025,1.648
35.3025,1.648
35.3035,1.648
35.3035,1.65
35.3035,1.649
35.3035,1.649
35.3045,1.651
35.3045,1.651
35.3045,1.65
35.3045,1.649
35.3055,1.647
35.3055,1.65
35.3055,1.65
35.3065,1.649
35.3065,1.649
35.3065,1.647
35.3075,1.65
35.3075,1.648
35.3075,1.649
35.3075,1.65
35.3085,1.649
35.3105,1.65
35.3135,1.65
35.3145,1.649
35.3165,1.65
35.3175,1.649
35.3175,1.648
35.3175,1.653
35.3175,1.648
35.3185,1.648
35.3185,1.648
35.3185,1.648
35.3185,1.65
35.3195,1.649
35.3195,1.649
35.3195,1.651
35.3195,1.65
35.3205,1.649
35.3205,1.65
35.3205,1.649
35.3215,1.648
35.3424,1.653
35.3444,1.646
35.3464,1.648
35.3474,1.648
35.3474,1.649
35.3474,1.65
35.3474,1.65
35.3484,1.648
35.3484,1.652
35.3484,1.649
35.3484,1.65
35.3494,1.65
35.3494,1.648
35.3494,1.649
35.3494,1.647
35.3504,1.646
35.3504,1.649
35.3504,1.647
35.3504,1.648
35.3514,1.648
35.3514,1.649
35.3514,1.652
35.3514,1.649
35.3524,1.649
35.3524,1.649
35.3524,1.65
35.3534,1.648
35.3534,1.65
35.3534,1.647
35.3534,1.649
35.3534,1.653
35.3544,1.647
35.3544,1.648
35.3544,1.649
35.3554,1.648
35.3554,1.649
35.3554,1.65
35.3564,1.653
35.3574,1.65
35.3584,1.65
35.3594,1.649
35.3614,1.649
35.3614,1.648
35.3624,1.65
35.3624,1.648
35.3624,1.647
35.3634,1.648
35.3634,1.649
35.3634,1.647
35.3634,1.649
35.3644,1.649
35.3644,1.649
35.3644,1.653
35.3644,1.65
35.3654,1.649
35.3654,1.649
35.3654,1.648
35.3654,1.651
35.3654,1.647
35.3664,1.648
35.3664,1.648
35.3664,1.647
35.3694,1.648
35.3694,1.649
35.3694,1.648
35.3704,1.647
35.3704,1.649
35.3704,1.649
35.3704,1.65
35.3714,1.65
35.3714,1.649
35.3714,1.649
35.3724,1.65
35.3724,1.646
35.3724,1.651
35.3734,1.648
35.3734,1.649
35.3743,1.648
35.3743,1.648
35.3743,1.652
35.3743,1.65
35.3753,1.65
35.3753,1.649
35.3753,1.649
35.3763,1.649
35.3763,1.651
35.3763,1.649
35.3763,1.645
35.3773,1.653
35.3773,1.647
35.3773,1.648
35.3773,1.649
35.3783,1.649
35.3783,1.649
35.3783,1.651
35.3783,1.65
35.3793,1.65
35.3793,1.65
35.3793,1.649
35.3793,1.649
35.3803,1.647
35.3803,1.653
35.3803,1.648
35.3813,1.647
35.3823,1.649
35.3823,1.648
35.3823,1.65
35.3823,1.649
35.3833,1.648
35.3833,1.652
35.3833,1.651
35.3833,1.65
35.3843,1.649
35.3843,1.649
35.3843,1.649
35.3843,1.649
35.3853,1.65
35.3853,1.65
35.3853,1.648
35.3853,1.647
35.3863,1.649
35.3863,1.649
35.3863,1.649
35.3863,1.649
35.3863,1.649
35.3873,1.65
35.3873,1.649
35.3873,1.65
35.3873,1.65
35.3883,1.647
35.3883,1.651
35.3883,1.652
35.3893,1.648
35.8492,1.648
35.8502,1.648
35.8502,1.65
35.8512,1.649
35.8512,1.649
35.8512,1.65
35.8512,1.649
35.8522,1.65
35.8522,1.65
35.8522,1.647
35.8522,1.647
35.8532,1.647
35.8532,1.648
35.8532,1.648
35.8542,1.648
35.8542,1.648
35.8542,1.649
35.8542,1.649
35.8552,1.652
35.8552,1.653
35.8552,1.65
35.8552,1.65
35.8562,1.649
35.8562,1.651
35.8562,1.651
35.8572,1.65
35.8572,1.646
35.8582,1.651
35.8582,1.648
35.8582,1.649
35.8582,1.649
35.8591,1.65
35.8591,1.65
35.8591,1.649
35.8591,1.651
35.8601,1.651
35.8601,1.65
35.8601,1.649
35.8611,1.65
35.8611,1.647
35.8611,1.651
35.8621,1.649
35.8621,1.647
35.8621,1.649
35.8621,1.649
35.8631,1.65
35.8631,1.649
35.8631,1.646
35.8631,1.654
35.8641,1.65
35.8641,1.65
35.8641,1.65
35.8641,1.649
35.8651,1.65
35.8671,1.649
35.8691,1.646
35.8771,1.653
35.8811,1.649
35.8881,1.648
35.8891,1.649
35.8891,1.65
35.8901,1.649
35.8901,1.652
35.8941,1.649
35.8960,1.652
35.8960,1.65
35.8970,1.649
35.8970,1.65
35.8970,1.649
35.8980,1.654
35.8980,1.648
35.8980,1.648
35.8980,1.648
35.8990,1.649
35.8990,1.649
35.9020,1.65
35.9020,1.65
35.9020,1.649
35.9030,1.652
35.9030,1.65
35.9030,1.65
35.9030,1.649
35.9040,1.647
35.9040,1.651
35.9040,1.648
35.9040,1.647
35.9050,1.648
35.9050,1.649
35.9050,1.649
35.9050,1.649
35.9060,1.649
35.9060,1.649
35.9070,1.652
35.9070,1.65
35.9070,1.651
35.9080,1.649
35.9080,1.648
35.9080,1.651
35.9090,1.649
35.9090,1.648
35.9090,1.649
35.9090,1.649
35.9100,1.648
35.9100,1.649
35.9100,1.649
35.9100,1.656
35.9110,1.651
35.9110,1.651
35.9110,1.65
35.9110,1.65
35.9120,1.65
35.9120,1.649
35.9120,1.65
35.9130,1.647
35.9130,1.653
35.9130,1.647
35.9130,1.649
35.9140,1.649
35.9140,1.647
35.9140,1.651
35.9140,1.649
35.9150,1.649
35.9150,1.649
35.9150,1.649
35.9150,1.65
35.9150,1.649
35.9160,1.647
35.9160,1.65
35.9160,1.648
35.9160,1.648
35.9160,1.648
35.9170,1.648
35.9170,1.649
35.9170,1.649
35.9170,1.647
35.9180,1.655
35.9180,1.65
35.9180,1.65
35.9190,1.65
35.9190,1.649
35.9190,1.65
35.9190,1.65
35.9190,1.648
35.9200,1.649
35.9200,1.648
35.9200,1.647
35.9200,1.648
35.9210,1.649
35.9210,1.649
35.9210,1.653
35.9220,1.649
35.9220,1.649
35.9220,1.649
35.9220,1.65
35.9230,1.65
35.9230,1.649
35.9240,1.648
35.9240,1.648
35.9250,1.648
35.9250,1.648
35.9250,1.649
35.9260,1.649
35.9260,1.649
35.9260,1.65
35.9260,1.648
35.9270,1.652
35.9270,1.65
35.9270,1.65
35.9270,1.65
35.9280,1.649
35.9280,1.649
35.9280,1.651
35.9280,1.648
35.9290,1.647
35.9290,1.648
35.9290,1.649
35.9300,1.649
35.9300,1.649
35.9300,1.647
35.9300,1.655
35.9310,1.649
35.9310,1.65
35.9310,1.649
35.9310,1.649
35.9310,1.651
35.9320,1.649
35.9320,1.648
35.9320,1.648
35.9320,1.647
35.9330,1.647
35.9330,1.649
35.9330,1.648
35.9339,1.649
35.9339,1.649
35.9349,1.651
35.9349,1.65
35.9349,1.649
35.9349,1.65
35.9349,1.65
35.9359,1.65
35.9359,1.65
35.9359,1.648
35.9369,1.645
35.9369,1.648
35.9369,1.647
35.9369,1.65
35.9379,1.649
35.9379,1.646
35.9379,1.652
35.9379,1.649
35.9389,1.649
35.9389,1.649
35.9389,1.649
35.9389,1.649
35.9399,1.649
35.9399,1.648
35.9399,1.653
35.9419,1.648
35.9419,1.648
35.9419,1.649
35.9419,1.649
35.9429,1.648
35.9429,1.649
35.9429,1.648
35.9429,1.65
35.9439,1.649
35.9439,1.649
35.9439,1.648
35.9529,1.648
35.9559,1.652
35.9569,1.648
35.9569,1.648
35.9579,1.648
35.9579,1.647
35.9579,1.648
35.9589,1.649
35.9589,1.649
35.9599,1.648
35.9599,1.653
35.9599,1.649
35.9599,1.651
35.9609,1.65
35.9609,1.646
35.9609,1.65
35.9619,1.648
35.9619,1.649
35.9629,1.647
35.9629,1.648
35.9629,1.649
35.9629,1.649
35.9639,1.649
35.9639,1.653
35.9689,1.649
35.9708,1.649
35.9778,1.65
35.9918,1.65
35.9918,1.649
35.9928,1.648
35.9928,1.644
35.9928,1.652
35.9928,1.647
35.9938,1.648
35.9938,1.649
35.9938,1.649
35.9938,1.649
35.9948,1.65
35.9948,1.65
35.9948,1.648
35.9988,1.651
36.0008,1.649
36.0048,1.649
36.0048,1.648
36.0048,1.646
36.0058,1.65
36.0068,1.647
36.0078,1.648
36.0087,1.647
36.0087,1.648
36.0097,1.649
36.0097,1.649
36.0097,1.652
36.0107,1.653
36.0107,1.65
36.0117,1.65
36.0117,1.649
36.0127,1.649
36.0137,1.649
36.0137,1.648
36.0137,1.647
36.0147,1.652
36.0147,1.648
36.0147,1.648
36.0157,1.648
36.0157,1.649
36.0157,1.65
36.0157,1.649
36.0167,1.648
36.0167,1.65
36.0167,1.65
36.0177,1.648
36.0177,1.649
36.0177,1.648
36.0177,1.649
36.0187,1.646
36.0187,1.647
36.0187,1.648
36.0197,1.648
36.0197,1.648
36.0197,1.65
36.0207,1.65
36.0207,1.653
36.0207,1.652
36.0217,1.649
36.0217,1.649
36.0217,1.649
36.0227,1.648
36.0237,1.653
36.0237,1.648
36.0237,1.647
36.0247,1.649
36.0247,1.648
36.0247,1.65
36.0247,1.648
36.0257,1.649
36.0267,1.654
36.0267,1.652
36.0277,1.649
36.0277,1.649
36.0277,1.649
36.0287,1.649
36.0287,1.649
36.0287,1.65
36.0287,1.651
36.0297,1.648
36.0297,1.647
36.0297,1.648
36.0307,1.649
36.0307,1.649
36.0307,1.651
36.0317,1.651
36.0317,1.649
36.0317,1.65
36.0317,1.65
36.0327,1.649
36.0327,1.65
36.0327,1.645
36.0327,1.65
36.0337,1.648
36.0337,1.648
36.0337,1.648
36.0337,1.649
36.0347,1.65
36.0347,1.649
36.0347,1.649
36.0357,1.649
36.0357,1.65
36.0357,1.65
36.0367,1.65
36.0367,1.648
36.0367,1.648
36.0367,1.649
36.0377,1.647
36.0377,1.649
36.0377,1.648
36.0377,1.648
36.0387,1.649
36.0387,1.649
36.0387,1.655
36.0387,1.65
36.0397,1.649
36.0407,1.65
36.0407,1.65
36.0417,1.65
36.0417,1.65
36.0417,1.646
36.0427,1.649
36.0427,1.651
36.0427,1.648
36.0437,1.648
36.0437,1.649
36.0437,1.648
36.0447,1.65
36.0447,1.651
36.0447,1.648
36.0457,1.649
36.0457,1.65
36.0457,1.65
36.0466,1.649
36.0466,1.646
36.0466,1.651
36.0466,1.649
36.0476,1.648
36.0476,1.649
36.0476,1.648
36.0486,1.648
36.0486,1.65
36.0486,1.647
36.0496,1.655
36.0496,1.649
36.0496,1.65
36.0506,1.651
36.0506,1.648
36.0506,1.651
36.0516,1.649
36.0516,1.649
36.0516,1.647
36.0516,1.648
36.0526,1.649
36.0526,1.649
36.0526,1.648
36.0526,1.65
36.0536,1.65
36.0536,1.65
36.0536,1.65
36.0536,1.65
36.0536,1.65
36.0546,1.648
36.0546,1.648
36.0546,1.651
36.0546,1.648
36.0556,1.649
36.0556,1.647
36.0556,1.647
36.0566,1.649
36.0566,1.649
36.0566,1.651
36.0566,1.653
36.0576,1.651
36.0576,1.65
36.0576,1.651
36.0576,1.65
36.0586,1.651
36.0586,1.648
36.0586,1.647
36.0596,1.651
36.0596,1.648
36.0596,1.648
36.0606,1.649
36.0606,1.65
36.0606,1.65
36.0616,1.649
36.0616,1.65
36.0616,1.651
36.0616,1.65
36.0626,1.649
36.0626,1.649
36.0626,1.649
36.0626,1.648
36.0636,1.648
36.0636,1.65
36.0636,1.65
36.0636,1.649
36.0646,1.649
36.0646,1.649
36.0646,1.654
36.0656,1.652
36.0656,1.649
36.0656,1.651
36.0666,1.651
36.0666,1.649
36.0666,1.65
36.0666,1.648
36.0676,1.651
36.0676,1.65
36.0676,1.649
36.0676,1.648
36.0686,1.649
36.0686,1.65
36.0686,1.648
36.0686,1.648
36.0696,1.651
36.0696,1.65
36.0696,1.65
36.0696,1.651
36.0696,1.649
36.0706,1.652
36.0706,1.647
36.0706,1.651
36.0706,1.649
36.0716,1.648
36.0716,1.648
36.0726,1.65
36.0746,1.649
36.0746,1.651
36.0746,1.652
36.0756,1.649
36.0756,1.649
36.0766,1.651
36.0766,1.65
36.0766,1.648
36.0766,1.648
36.0816,1.652
36.0816,1.649
36.0816,1.647
36.0826,1.648
36.0826,1.649
36.5463,1.649
36.5473,1.648
36.5473,1.655
36.5473,1.65
36.5483,1.651
36.5483,1.65
36.5483,1.648
36.5493,1.651
36.5493,1.648
36.5493,1.648
36.5493,1.647
36.5503,1.649
36.5503,1.649
36.5503,1.649
36.5513,1.65
36.5513,1.649
36.5513,1.655
36.5513,1.651
36.5523,1.651
36.5523,1.651
36.5523,1.65
36.5533,1.651
36.5533,1.65
36.5533,1.648
36.5533,1.65
36.5533,1.648
36.5543,1.649
36.5543,1.649
36.5543,1.65
36.5543,1.649
36.5553,1.649
36.5553,1.652
36.5553,1.651
36.5553,1.651
36.5563,1.65
36.5563,1.65
36.5573,1.648
36.5573,1.651
36.5573,1.652
36.5583,1.649
36.5583,1.648
36.5583,1.648
36.5583,1.649
36.5593,1.651
36.5593,1.649
36.5593,1.651
36.5593,1.654
36.5603,1.65
36.5603,1.65
36.5603,1.65
36.5603,1.648
36.5613,1.65
36.5613,1.649
36.5613,1.647
36.5613,1.648
36.5623,1.65
36.5623,1.649
36.5623,1.65
36.5623,1.651
36.5633,1.652
36.5633,1.652
36.5633,1.651
36.5633,1.651
36.5633,1.651
36.5643,1.651
36.5643,1.65
36.5643,1.647
36.5643,1.651
36.5653,1.649
36.5653,1.649
36.5653,1.649
36.5663,1.649
36.5663,1.65
36.5663,1.649
36.5663,1.651
36.5663,1.651
36.5673,1.651
36.5673,1.651
36.5673,1.651
36.5673,1.65
36.5683,1.648
36.5683,1.65
36.5683,1.648
36.5683,1.65
36.5692,1.649
36.5692,1.649
36.5692,1.65
36.5692,1.65
36.5702,1.646
36.5702,1.656
36.5702,1.65
36.5702,1.65
36.5712,1.651
36.5712,1.649
36.5712,1.651
36.5722,1.649
36.5722,1.648
36.5722,1.649
36.5722,1.649
36.5732,1.65
36.5732,1.649
36.5742,1.651
36.5742,1.651
36.5742,1.655
36.5752,1.65
36.5752,1.651
36.5752,1.65
36.5752,1.651
36.5762,1.651
36.5762,1.651
36.5762,1.651
36.5772,1.65
36.5772,1.649
36.5772,1.649
36.5782,1.649
36.5782,1.65
36.5782,1.65
36.5782,1.65
36.5792,1.656
36.5792,1.651
36.5792,1.65
36.5802,1.652
36.5802,1.648
36.5802,1.652
36.5802,1.65
36.5812,1.648
36.5812,1.647
36.5812,1.649
36.5812,1.649
36.5822,1.65
36.5822,1.65
36.5822,1.651
36.5832,1.654
36.5832,1.65
36.5832,1.651
36.5832,1.651
36.5842,1.651
36.5842,1.652
36.5842,1.65
36.5842,1.647
36.5852,1.651
36.5852,1.649
36.5852,1.649
36.5862,1.65
36.5862,1.65
36.5862,1.65
36.5862,1.651
36.5872,1.649
36.5872,1.652
36.5872,1.65
36.5882,1.651
36.5882,1.652
36.5882,1.649
36.5882,1.652
36.5892,1.655
36.5892,1.648
36.5892,1.649
36.5902,1.649
36.5902,1.65
36.5902,1.651
36.5912,1.65
36.5912,1.649
36.5912,1.656
36.5912,1.651
36.5922,1.652
36.5922,1.652
36.5922,1.652
36.5932,1.651
36.5932,1.651
36.5932,1.647
36.5932,1.649
36.5942,1.649
36.5942,1.651
36.5942,1.65
36.5952,1.651
36.5952,1.652
36.5952,1.649
36.5952,1.652
36.5962,1.652
36.5962,1.65
36.5962,1.651
36.5962,1.651
36.5972,1.651
36.5972,1.654
36.5972,1.65
36.5972,1.649
36.5982,1.649
36.5982,1.65
36.5982,1.651
36.5982,1.651
36.6141,1.655
36.6141,1.655
36.6141,1.651
36.6141,1.651
36.6151,1.651
36.6151,1.65
36.6151,1.652
36.6151,1.649
36.6161,1.651
36.6161,1.65
36.6161,1.648
36.6161,1.65
36.6171,1.65
36.6171,1.65
36.6181,1.651
36.6181,1.652
36.6181,1.652
36.6181,1.652
36.6191,1.651
36.6191,1.651
36.6191,1.651
36.6201,1.649
36.6201,1.656
36.6221,1.648
36.6231,1.65
36.6231,1.649
36.6241,1.649
36.6241,1.65
36.6241,1.65
36.6251,1.649
36.6251,1.656
36.6251,1.653
36.6251,1.651
36.6261,1.65
36.6261,1.65
36.6261,1.652
36.6271,1.651
36.6271,1.65
36.6271,1.651
36.6281,1.65
36.6281,1.65
36.6281,1.65
36.6291,1.65
36.6291,1.65
36.6291,1.651
36.6301,1.653
36.6301,1.652
36.6301,1.652
36.6301,1.651
36.6311,1.65
36.6311,1.65
36.6321,1.649
36.6321,1.654
36.6351,1.649
36.6371,1.65
36.6450,1.65
36.6500,1.651
36.6560,1.652
36.6580,1.651
36.6610,1.651
36.6610,1.651
36.6610,1.651
36.6620,1.652
36.6620,1.651
36.6620,1.65
36.6620,1.649
36.6630,1.652
36.6630,1.649
36.6630,1.649
36.6640,1.651
36.6640,1.651
36.6640,1.651
36.6640,1.651
36.6650,1.652
36.6650,1.654
36.6650,1.651
36.6660,1.652
36.6660,1.652
36.6660,1.649
36.6670,1.651
36.6670,1.65
36.6670,1.649
36.6670,1.648
36.6680,1.65
36.6680,1.65
36.6680,1.651
36.6690,1.652
36.6690,1.65
36.6690,1.657
36.6700,1.651
36.6700,1.652
36.6700,1.652
36.6710,1.651
36.6710,1.652
36.6710,1.652
36.6710,1.649
36.6720,1.653
36.6720,1.649
36.6720,1.65
36.6730,1.651
36.6730,1.651
36.6730,1.654
36.6740,1.653
36.6740,1.651
36.6740,1.652
36.6750,1.652
36.6750,1.651
36.6750,1.651
36.6750,1.65
36.6760,1.648
36.6760,1.654
36.6760,1.649
36.6770,1.65
36.6770,1.65
36.6770,1.651
36.6770,1.651
36.6780,1.651
36.6780,1.652
36.6780,1.652
36.6790,1.652
36.6790,1.652
36.6790,1.652
36.6800,1.651
36.6800,1.65
36.6800,1.652
36.6800,1.65
36.6809,1.65
36.6809,1.651
36.6809,1.651
36.6809,1.651
36.6819,1.652
36.6819,1.651
36.6819,1.654
36.6819,1.653
36.6829,1.652
36.6829,1.652
36.6829,1.649
36.6839,1.651
36.6839,1.655
36.6839,1.65
36.6849,1.65
36.6849,1.651
36.6849,1.65
36.6859,1.653
36.6859,1.652
36.6859,1.651
36.6869,1.655
36.6869,1.652
36.6869,1.652
36.6879,1.651
36.6879,1.652
36.6879,1.652
36.6889,1.652
36.6889,1.649
36.6889,1.651
36.6899,1.651
36.6899,1.651
36.6909,1.65
36.6909,1.652
36.6909,1.654
36.6909,1.653
36.6919,1.652
36.6919,1.652
36.6919,1.652
36.6929,1.652
36.6929,1.652
36.6929,1.651
36.6939,1.649
36.6939,1.654
36.6939,1.652
36.6939,1.649
36.6949,1.65
36.6949,1.652
36.6949,1.651
36.6949,1.652
36.6959,1.653
36.6959,1.653
36.6959,1.652
36.6969,1.652
36.6969,1.652
36.6969,1.652
36.6969,1.65
36.6979,1.652
36.6979,1.651
36.6979,1.65
36.6979,1.651
36.6989,1.651
36.6989,1.651
36.6989,1.652
36.6989,1.65
36.6999,1.656
36.6999,1.653
36.6999,1.652
36.7009,1.652
36.7009,1.65
36.7009,1.652
36.7009,1.649
36.7019,1.651
36.7019,1.648
36.7019,1.65
36.7019,1.651
36.7029,1.652
36.7029,1.652
36.7029,1.652
36.7039,1.652
36.7039,1.652
36.7039,1.653
36.7039,1.653
36.7049,1.652
36.7049,1.652
36.7049,1.653
36.7059,1.65
36.7059,1.653
36.7059,1.651
36.7059,1.651
36.7069,1.651
36.7069,1.652
36.7069,1.652
36.7079,1.656
36.7079,1.652
36.7079,1.651
36.7089,1.653
36.7089,1.652
36.7089,1.652
36.7089,1.653
36.7099,1.647
36.7099,1.653
36.7099,1.652
36.7109,1.65
36.7109,1.651
36.7109,1.65
36.7109,1.652
36.7119,1.652
36.7119,1.652
36.7119,1.655
36.7129,1.652
36.7129,1.652
36.7129,1.653
36.7129,1.651
36.7139,1.65
36.7139,1.652
36.7139,1.652
36.7149,1.651
36.7149,1.65
36.7149,1.652
36.7149,1.651
36.7159,1.652
36.7159,1.65
36.7159,1.658
36.7159,1.652
36.7169,1.652
36.7169,1.652
36.7169,1.651
36.7169,1.652
36.7179,1.653
36.7179,1.65
36.7179,1.654
36.7188,1.651
36.7188,1.65
36.7188,1.651
36.7198,1.651
36.7198,1.651
36.7198,1.655
36.7198,1.652
36.7208,1.653
36.7208,1.652
36.7208,1.652
36.7208,1.652
36.7218,1.652
36.7218,1.653
36.7218,1.652
36.7228,1.65
36.7228,1.65
36.7228,1.65
36.7238,1.651
36.7238,1.653
36.7238,1.652
36.7238,1.653
36.7248,1.654
36.7248,1.651
36.7248,1.653
36.7258,1.652
36.7258,1.649
36.7258,1.654
36.7258,1.654
36.7268,1.652
36.7268,1.65
36.7268,1.652
36.7268,1.651
36.7278,1.652
36.7278,1.652
36.7278,1.65
36.7278,1.655
36.7288,1.653
36.7288,1.652
36.7288,1.652
36.7288,1.652
36.7298,1.653
36.7298,1.652
36.7298,1.652
36.7308,1.65
36.7308,1.651
36.7308,1.65
36.7308,1.653
36.7318,1.652
36.7318,1.655
36.7318,1.657
36.7318,1.653
36.7328,1.652
36.7328,1.651
36.7328,1.653
36.7328,1.652
36.7338,1.654
36.7338,1.65
36.7338,1.65
36.7338,1.651
37.4579,1.65
37.4579,1.651
37.4579,1.653
37.4579,1.654
37.4589,1.651
37.4589,1.651
37.4589,1.653
37.4589,1.652
37.4599,1.652
37.4599,1.651
37.4599,1.656
37.4609,1.652
37.4609,1.65
37.4609,1.65
37.4619,1.65
37.4629,1.652
37.4629,1.651
37.4629,1.652
37.4639,1.654
37.4639,1.654
37.4639,1.654
37.4649,1.651
37.4649,1.652
37.4649,1.651
37.4649,1.652
37.4658,1.649
37.4658,1.652
37.4658,1.651
37.4668,1.65
37.4668,1.651
37.4668,1.652
37.4668,1.655
37.4668,1.653
37.4678,1.651
37.4678,1.653
37.4678,1.653
37.4688,1.652
37.4688,1.652
37.4698,1.65
37.4698,1.647
37.4698,1.654
37.4698,1.65
37.4708,1.65
37.4708,1.651
37.4708,1.651
37.4708,1.652
37.4718,1.653
37.4718,1.649
37.4718,1.657
37.4718,1.652
37.4728,1.651
37.4728,1.651
37.4728,1.65
37.4728,1.651
37.4738,1.651
37.4738,1.649
37.4738,1.651
37.4738,1.65
37.4738,1.65
37.4748,1.652
37.4748,1.649
37.4748,1.655
37.4748,1.654
37.4758,1.653
37.4758,1.652
37.4758,1.651
37.4768,1.651
37.4778,1.652
37.4778,1.651
37.4778,1.648
37.4778,1.653
37.4788,1.65
37.4788,1.651
37.4788,1.651
37.4788,1.651
37.4798,1.654
37.4798,1.653
37.4798,1.652
37.4798,1.652
37.4808,1.652
37.4808,1.651
37.4808,1.652
37.4808,1.651
37.4818,1.655
37.4818,1.649
37.4818,1.65
37.4828,1.65
37.4828,1.65
37.4828,1.651
37.4838,1.652
37.4838,1.652
37.4838,1.651
37.4848,1.652
37.4848,1.652
37.4848,1.651
37.4848,1.651
37.4858,1.649
37.4858,1.655
37.4858,1.651
37.4868,1.651
37.4868,1.65
37.4868,1.65
37.4878,1.651
37.4878,1.652
37.4878,1.651
37.4888,1.651
37.4888,1.654
37.4888,1.652
37.4898,1.651
37.4898,1.651
37.4898,1.65
37.4898,1.652
37.4908,1.651
37.4908,1.651
37.4918,1.65
37.4928,1.649
37.4928,1.65
37.4928,1.651
37.4938,1.649
37.4938,1.651
37.4938,1.652
37.4948,1.652
37.4948,1.652
37.4948,1.652
37.4958,1.651
37.4958,1.65
37.4958,1.647
37.4968,1.654
37.4968,1.649
37.4968,1.65
37.4978,1.65
37.4978,1.65
37.4988,1.652
37.4988,1.652
37.4988,1.65
37.4988,1.655
37.4998,1.652
37.4998,1.652
37.4998,1.651
37.4998,1.65
37.5008,1.651
37.5008,1.655
37.5008,1.65
37.5008,1.65
37.5018,1.649
37.5018,1.649
37.5018,1.652
37.5018,1.651
37.5028,1.651
37.5028,1.656
37.5028,1.652
37.5028,1.651
37.5037,1.651
37.5037,1.651
37.5037,1.651
37.5047,1.651
37.5047,1.649
37.5047,1.651
37.5077,1.65
37.5107,1.649
37.5167,1.65
37.5207,1.651
37.5267,1.652
37.5287,1.656
37.5317,1.652
37.5327,1.651
37.5327,1.652
37.5337,1.65
37.5337,1.652
37.5337,1.65
37.5347,1.646
37.5347,1.652
37.5357,1.65
37.5357,1.649
37.5357,1.65
37.5357,1.65
37.5367,1.651
37.5367,1.652
37.5367,1.653
37.5367,1.653
37.5367,1.651
37.5377,1.652
37.5377,1.651
37.5377,1.65
37.5377,1.653
37.5387,1.654
37.5387,1.649
37.5387,1.648
37.5387,1.65
37.5397,1.65
37.5397,1.651
37.5397,1.651
37.5406,1.649
37.5406,1.654
37.5406,1.654
37.5416,1.651
37.5416,1.651
37.5426,1.65
37.5436,1.65
37.5436,1.653
37.5436,1.649
37.5436,1.65
37.5446,1.65
37.5446,1.65
37.5446,1.65
37.5446,1.65
37.5456,1.649
37.5456,1.654
37.5456,1.651
37.5456,1.651
37.5456,1.652
37.5466,1.651
37.5466,1.651
37.5466,1.651
37.5466,1.65
37.5476,1.654
37.5476,1.649
37.5476,1.649
37.5486,1.651
37.5486,1.651
37.5496,1.65
37.5496,1.655
37.5496,1.652
37.5496,1.65
37.5506,1.652
37.5506,1.651
37.5506,1.65
37.5506,1.65
37.5506,1.647
37.5516,1.654
37.5516,1.649
37.5516,1.65
37.5526,1.649
37.5526,1.65
37.5526,1.652
37.5526,1.65
37.5526,1.651
37.5536,1.654
37.5536,1.651
37.5536,1.651
37.5536,1.651
37.5546,1.649
37.5546,1.649
37.5546,1.65
37.5546,1.646
37.5556,1.65
37.5556,1.649
37.5556,1.65
37.5576,1.65
37.5576,1.65
37.5576,1.653
37.5586,1.654
37.5586,1.649
37.5586,1.651
37.5586,1.651
37.5596,1.651
37.5596,1.651
37.5596,1.65
37.5596,1.649
37.5606,1.649
37.5606,1.65
37.5606,1.649
37.5606,1.65
37.5616,1.65
37.5616,1.651
37.5616,1.652
37.5616,1.649
37.5626,1.65
37.5626,1.651
37.5626,1.651
37.5636,1.65
37.5636,1.648
37.5646,1.651
37.5646,1.65
37.5646,1.649
37.5646,1.648
37.5646,1.649
37.5656,1.649
37.5656,1.651
37.5656,1.651
37.5656,1.649
37.5666,1.652
37.5666,1.651
37.5666,1.651
37.5666,1.65
37.5696,1.649
37.5696,1.649
37.5696,1.654
37.5716,1.649
37.5716,1.649
37.5716,1.649
37.5726,1.649
37.5726,1.65
37.5736,1.651
37.5736,1.649
37.5736,1.655
37.5746,1.651
37.5746,1.651
37.5746,1.651
37.5746,1.648
37.5756,1.65
37.5756,1.65
37.5756,1.65
37.5756,1.649
37.5756,1.648
37.5766,1.65
37.5766,1.65
37.5766,1.65
37.5766,1.651
37.5775,1.655
37.5775,1.65
37.5785,1.65
37.5785,1.65
37.5785,1.649
37.5785,1.651
37.5795,1.649
37.5795,1.652
37.5795,1.649
37.5795,1.648
37.5805,1.648
37.5805,1.65
37.5805,1.649
37.5805,1.652
37.5815,1.65
37.5815,1.651
37.5815,1.651
37.5815,1.652
37.5825,1.651
37.5825,1.65
37.5825,1.648
37.5825,1.648
37.5835,1.655
37.5835,1.649
37.5835,1.649
37.5835,1.649
37.5845,1.65
37.5845,1.65
37.5845,1.65
37.5855,1.651
37.5865,1.651
37.5865,1.65
37.5865,1.65
37.5875,1.65
37.5875,1.65
37.5875,1.648
37.5875,1.653
37.5875,1.649
37.5885,1.649
37.5885,1.649
37.5885,1.649
37.5895,1.649
37.5895,1.651
37.5895,1.649
37.5895,1.654
37.5905,1.65
37.5905,1.65
37.5905,1.649
37.5905,1.649
37.5905,1.65
37.5915,1.654
37.5915,1.648
37.5915,1.648
37.5925,1.648
37.5925,1.649
37.5935,1.65
37.5935,1.649
37.5935,1.649
37.5935,1.652
37.5945,1.65
37.5945,1.65
37.5945,1.651
37.5945,1.65
37.5955,1.648
37.5955,1.65
37.5955,1.647
37.5955,1.651
37.5965,1.648
37.5965,1.647
37.5965,1.649
37.5965,1.65
37.5975,1.649
37.5975,1.654
37.5975,1.65
37.5975,1.65
37.5985,1.65
37.5985,1.649
37.5985,1.651
37.5995,1.649
37.5995,1.647
37.6005,1.649
37.6005,1.652
37.6015,1.649
37.6015,1.65
37.6015,1.65
37.6015,1.649
37.6015,1.652
37.6025,1.649
37.6025,1.651
37.6025,1.65
37.6035,1.65
37.6035,1.65
37.6035,1.651
37.6045,1.648
37.6045,1.651
37.6045,1.648
37.6045,1.649
37.6055,1.648
37.6055,1.649
37.6065,1.649
37.6065,1.651
37.6065,1.646
37.6075,1.655
37.6075,1.65
37.6075,1.65
37.6085,1.649
37.6085,1.648
37.6085,1.65
37.6095,1.648
37.6095,1.65
37.6095,1.645
37.6105,1.649
37.6105,1.649
37.6105,1.649
37.6115,1.649
37.6115,1.649
37.6115,1.65
37.6125,1.65
37.6125,1.649
37.6125,1.651
37.6125,1.65
37.6135,1.649
37.6135,1.651
37.6135,1.646
37.6145,1.651
37.6164,1.648
37.6184,1.648
37.6254,1.648
37.6314,1.649
37.6364,1.65
37.6394,1.656
37.6404,1.649
37.6414,1.649
37.6414,1.65
37.6414,1.649
37.6424,1.65
37.6424,1.649
37.6424,1.647
37.6434,1.648
37.6434,1.651
37.6434,1.647
37.6434,1.648
37.6444,1.649
37.6444,1.649
37.6444,1.65
37.6444,1.65
37.6454,1.649
37.6454,1.649
37.6454,1.65
37.6464,1.649
37.6464,1.649
37.6464,1.649
37.6464,1.649
37.6474,1.647
37.6474,1.648
37.6474,1.647
37.6474,1.648
37.6484,1.648
37.6484,1.649
37.6484,1.65
37.6494,1.649
37.6494,1.65
37.6494,1.649
37.6504,1.649
37.6504,1.65
37.6504,1.651
37.6514,1.649
37.6514,1.646
37.6514,1.65
37.6514,1.647
37.6524,1.648
37.6524,1.649
37.6524,1.649
37.6524,1.65
37.6533,1.65
37.6533,1.649
37.6533,1.65
37.6533,1.65
37.6543,1.649
37.6543,1.645
37.6543,1.647
37.6543,1.652
37.6553,1.647
37.6553,1.648
37.6563,1.649
37.6563,1.647
37.6563,1.651
37.6573,1.649
37.6573,1.65
37.6573,1.649
37.6583,1.65
37.6583,1.649
37.6583,1.65
37.6593,1.649
37.6593,1.646
37.6593,1.648
37.6593,1.648
37.6593,1.648
37.6603,1.648
37.6603,1.648
37.6613,1.648
37.6613,1.65
37.6613,1.647
37.6613,1.651
37.6623,1.649
37.6623,1.65
37.6623,1.649
37.6633,1.648
37.6633,1.647
37.6633,1.652
37.6643,1.647
37.6643,1.647
37.6643,1.648
37.6653,1.648
37.6653,1.648
37.6653,1.649
37.6663,1.651
37.6663,1.647
37.6663,1.65
37.6663,1.65
37.6663,1.649
37.6673,1.648
37.6673,1.648
37.6673,1.649
37.6673,1.648
37.6683,1.647
37.6683,1.648
37.6683,1.648
37.6683,1.648
37.6693,1.649
37.6693,1.647
37.6693,1.651
37.6693,1.652
37.6703,1.65
37.6703,1.65
37.6703,1.649
37.6703,1.648
37.6713,1.649
37.6713,1.649
37.6713,1.645
37.6713,1.648
37.6723,1.647
37.6723,1.649
37.6723,1.649
37.6733,1.649
37.6733,1.653
37.6733,1.651
37.6743,1.649
37.6743,1.649
37.6743,1.65
37.6743,1.649
37.6753,1.649
37.6753,1.648
37.6753,1.649
37.6753,1.647
37.6763,1.647
37.6763,1.647
37.6763,1.649
37.6763,1.648
37.6773,1.649
37.6773,1.649
37.6773,1.649
37.6773,1.649
37.6783,1.649
37.6783,1.649
37.6783,1.649
37.6783,1.646
37.6793,1.649
37.6793,1.65
37.6793,1.647
37.6793,1.647
37.6803,1.647
37.6803,1.648
37.6803,1.65
37.6813,1.649
37.6813,1.647
37.6813,1.649
37.6813,1.649
37.6823,1.648
37.6823,1.648
37.6823,1.647
37.6823,1.649
37.6823,1.648
37.6833,1.648
37.6833,1.648
37.6833,1.647
37.6833,1.648
37.6843,1.647
37.6843,1.649
37.6843,1.646
37.6843,1.652
37.6853,1.649
37.6853,1.649
37.6853,1.649
37.6853,1.646
37.6863,1.649
37.6863,1.649
37.6863,1.647
37.6873,1.646
37.6873,1.647
37.6873,1.647
37.6873,1.649
37.6883,1.649
37.6883,1.648
37.6883,1.65
37.6883,1.649
37.6893,1.649
37.6893,1.649
37.6893,1.648
37.6893,1.649
37.6902,1.648
37.6902,1.649
37.6902,1.649
37.6902,1.647
37.6912,1.648
37.6912,1.647
37.6912,1.648
37.6912,1.648
37.6982,1.649
37.6992,1.648
37.6992,1.65
37.6992,1.649
37.6992,1.648
37.7002,1.649
37.7002,1.648
37.7002,1.645
37.7002,1.653
37.7012,1.647
37.7012,1.647
37.7022,1.647
37.7022,1.647
37.7022,1.649
37.7032,1.649
37.7032,1.648
37.7032,1.65
37.7032,1.649
37.7042,1.649
37.7042,1.649
37.7042,1.647
37.7042,1.647
37.7052,1.654
37.7052,1.646
37.7062,1.647
37.7062,1.647
37.7072,1.648
37.7072,1.649
37.7072,1.649
37.7072,1.648
37.7082,1.653
37.7092,1.649
37.7092,1.649
37.7102,1.648
37.9127,1.649
37.9137,1.646
37.9137,1.651
37.9137,1.647
37.9137,1.645
37.9146,1.647
37.9146,1.647
37.9146,1.647
37.9146,1.649
37.9156,1.648
37.9156,1.65
37.9156,1.65
37.9156,1.649
37.9166,1.649
37.9166,1.648
37.9166,1.646
37.9166,1.649
37.9176,1.648
37.9176,1.645
37.9176,1.646
37.9176,1.647
37.9186,1.648
37.9186,1.649
37.9186,1.648
37.9186,1.648
37.9196,1.653
37.9196,1.649
37.9196,1.649
37.9206,1.649
37.9206,1.648
37.9206,1.649
37.9216,1.649
37.9216,1.644
37.9216,1.651
37.9216,1.647
37.9226,1.647
37.9226,1.647
37.9226,1.648
37.9236,1.65
37.9236,1.649
37.9236,1.647
37.9246,1.649
37.9246,1.649
37.9246,1.649
37.9246,1.649
37.9256,1.647
37.9256,1.644
37.9256,1.653
37.9266,1.647
37.9266,1.648
37.9266,1.649
37.9276,1.648
37.9276,1.649
37.9276,1.649
37.9276,1.654
37.9276,1.649
37.9286,1.649
37.9286,1.65
37.9286,1.649
37.9286,1.647
37.9296,1.649
37.9296,1.646
37.9296,1.648
37.9296,1.647
37.9306,1.647
37.9306,1.648
37.9306,1.648
37.9306,1.648
37.9306,1.652
37.9316,1.65
37.9316,1.647
37.9316,1.649
37.9316,1.649
37.9326,1.649
37.9326,1.648
37.9326,1.645
37.9326,1.653
37.9336,1.647
37.9336,1.648
37.9336,1.647
37.9336,1.648
37.9336,1.649
37.9346,1.649
37.9346,1.646
37.9346,1.651
37.9356,1.649
37.9356,1.649
37.9356,1.649
37.9356,1.648
37.9356,1.648
37.9366,1.651
37.9366,1.647
37.9366,1.647
37.9366,1.647
37.9376,1.648
37.9376,1.648
37.9376,1.649
37.9376,1.648
37.9386,1.651
37.9386,1.651
37.9386,1.648
37.9396,1.65
37.9396,1.648
37.9396,1.646
37.9396,1.651
37.9396,1.648
37.9406,1.647
37.9406,1.647
37.9406,1.647
37.9406,1.648
37.9416,1.649
37.9446,1.648
37.9456,1.653
37.9466,1.65
37.9545,1.649
37.9635,1.649
37.9645,1.649
37.9675,1.647
37.9675,1.648
37.9685,1.648
37.9685,1.646
37.9685,1.647
37.9695,1.646
37.9695,1.646
37.9695,1.647
37.9705,1.648
37.9705,1.653
37.9715,1.65
37.9715,1.648
37.9715,1.65
37.9725,1.649
37.9725,1.649
37.9735,1.648
37.9735,1.644
37.9735,1.65
37.9745,1.648
37.9745,1.648
37.9745,1.646
37.9745,1.647
37.9755,1.648
37.9755,1.649
37.9765,1.646
37.9765,1.652
37.9765,1.649
37.9765,1.649
37.9775,1.649
37.9775,1.648
37.9775,1.65
37.9785,1.648
37.9785,1.647
37.9785,1.648
37.9795,1.648
37.9795,1.648
37.9795,1.649
37.9805,1.649
37.9805,1.647
37.9805,1.655
37.9815,1.649
37.9815,1.65
37.9815,1.65
37.9825,1.648
37.9825,1.651
37.9825,1.648
37.9825,1.647
37.9835,1.647
37.9835,1.648
37.9835,1.648
37.9835,1.647
37.9845,1.649
37.9845,1.648
37.9845,1.649
37.9855,1.649
37.9855,1.65
37.9855,1.65
37.9855,1.649
37.9865,1.649
37.9865,1.647
37.9865,1.646
37.9865,1.653
37.9875,1.648
37.9875,1.648
37.9875,1.647
37.9885,1.649
37.9885,1.649
37.9885,1.649
37.9894,1.649
37.9894,1.648
37.9904,1.65
37.9904,1.65
37.9914,1.65
37.9914,1.65
37.9914,1.646
37.9924,1.648
37.9924,1.648
37.9924,1.647
37.9924,1.649
37.9934,1.648
37.9934,1.649
37.9934,1.649
37.9944,1.649
37.9944,1.655
37.9944,1.651
37.9954,1.651
37.9954,1.65
37.9954,1.648
37.9954,1.65
37.9964,1.651
37.9964,1.649
37.9964,1.649
37.9964,1.648
37.9974,1.649
37.9974,1.649
37.9974,1.649
37.9974,1.65
37.9974,1.652
37.9984,1.65
37.9984,1.651
37.9984,1.65
37.9994,1.649
37.9994,1.649
37.9994,1.647
37.9994,1.649
38.0004,1.649
38.0004,1.648
38.0004,1.649
38.0014,1.648
38.0014,1.649
38.0014,1.651
38.0014,1.649
38.0024,1.656
38.0024,1.65
38.0024,1.65
38.0034,1.649
38.0034,1.647
38.0034,1.65
38.0034,1.648
38.0044,1.647
38.0044,1.65
38.0044,1.649
38.0044,1.65
38.0054,1.649
38.0054,1.649
38.0054,1.653
38.0064,1.653
38.0064,1.651
38.0074,1.65
38.0074,1.651
38.0074,1.649
38.0084,1.649
38.0084,1.648
38.0084,1.649
38.0094,1.647
38.0094,1.649
38.0094,1.649
38.0104,1.649
38.0104,1.649
38.0104,1.651
38.0114,1.654
38.0114,1.649
38.0114,1.65
38.0124,1.651
38.0124,1.65
38.0124,1.651
38.0134,1.649
38.0134,1.649
38.0134,1.652
38.0134,1.648
38.0144,1.648
38.0144,1.65
38.0144,1.648
38.0144,1.649
38.0154,1.65
38.0154,1.65
38.0154,1.651
38.0164,1.651
38.0164,1.651
38.0164,1.649
38.0174,1.648
38.0174,1.651
38.0174,1.647
38.0184,1.65
38.0184,1.648
38.0184,1.648
38.0194,1.649
38.0194,1.649
38.0194,1.65
38.0194,1.651
38.0204,1.652
38.0204,1.651
38.0204,1.65
38.0204,1.65
38.0214,1.649
38.0214,1.65
38.0214,1.653
38.0224,1.647
38.0224,1.649
38.0234,1.648
38.0234,1.649
38.0244,1.651
38.0244,1.649
38.0244,1.65
38.0254,1.651
38.0254,1.651
38.0263,1.65
38.0263,1.651
38.0263,1.651
38.0273,1.649
38.0273,1.649
38.0273,1.648
38.0273,1.651
38.0283,1.649
38.0283,1.649
38.0283,1.65
38.0293,1.651
38.0293,1.651
38.0293,1.652
38.0293,1.648
38.0303,1.651
38.0303,1.651
38.0303,1.649
38.0313,1.65
38.0313,1.648
38.0313,1.646
38.0323,1.649
38.0323,1.649
38.0323,1.649
38.0333,1.65
38.0333,1.649
38.0333,1.656
38.0343,1.65
38.5961,1.651
38.5961,1.651
38.5971,1.65
38.5971,1.65
38.6001,1.65
38.6041,1.65
38.6101,1.655
38.6171,1.649
38.6191,1.649
38.6191,1.649
38.6220,1.65
38.6230,1.65
38.6230,1.649
38.6240,1.651
38.6240,1.653
38.6240,1.652
38.6250,1.651
38.6250,1.651
38.6250,1.65
38.6260,1.649
38.6260,1.653
38.6260,1.649
38.6260,1.65
38.6270,1.649
38.6270,1.649
38.6270,1.651
38.6270,1.651
38.6270,1.652
38.6280,1.655
38.6280,1.652
38.6280,1.653
38.6280,1.651
38.6290,1.651
38.6290,1.652
38.6290,1.65
38.6290,1.649
38.6290,1.651
38.6300,1.65
38.6300,1.65
38.6300,1.651
38.6300,1.651
38.6310,1.652
38.6310,1.652
38.6310,1.653
38.6320,1.652
38.6320,1.652
38.6320,1.652
38.6330,1.652
38.6330,1.651
38.6330,1.647
38.6340,1.65
38.6340,1.65
38.6340,1.65
38.6340,1.651
38.6350,1.651
38.6350,1.651
38.6350,1.653
38.6350,1.652
38.6360,1.654
38.6360,1.652
38.6360,1.651
38.6360,1.65
38.6360,1.651
38.6370,1.651
38.6370,1.652
38.6370,1.648
38.6370,1.649
38.6370,1.651
38.6370,1.652
38.6380,1.651
38.6380,1.651
38.6380,1.656
38.6380,1.654
38.6390,1.652
38.6390,1.652
38.6390,1.652
38.6400,1.652
38.6400,1.653
38.6410,1.649
38.6410,1.655
38.6410,1.65
38.6410,1.651
38.6420,1.65
38.6420,1.65
38.6420,1.652
38.6420,1.652
38.6430,1.65
38.6430,1.654
38.6430,1.653
38.6440,1.652
38.6440,1.652
38.6440,1.649
38.6440,1.65
38.6440,1.656
38.6450,1.648
38.6450,1.65
38.6450,1.651
38.6460,1.651
38.6460,1.652
38.6460,1.652
38.6460,1.65
38.6470,1.655
38.6470,1.653
38.6470,1.652
38.6470,1.652
38.6480,1.651
38.6480,1.652
38.6480,1.652
38.6480,1.649
38.6490,1.65
38.6490,1.65
38.6490,1.65
38.6490,1.651
38.6500,1.651
38.6500,1.657
38.6500,1.653
38.6500,1.652
38.6500,1.652
38.6510,1.653
38.6510,1.652
38.6510,1.651
38.6510,1.65
38.6520,1.649
38.6520,1.657
38.6520,1.651
38.6520,1.651
38.6530,1.651
38.6530,1.651
38.6530,1.652
38.6540,1.652
38.6540,1.652
38.6540,1.654
38.6550,1.652
38.6550,1.651
38.6550,1.653
38.6560,1.65
38.6560,1.652
38.6560,1.655
38.6560,1.65
38.6570,1.65
38.6570,1.65
38.6570,1.651
38.6580,1.652
38.6580,1.651
38.6580,1.656
38.6580,1.652
38.6589,1.651
38.6589,1.653
38.6589,1.654
38.6589,1.652
38.6599,1.651
38.6599,1.648
38.6599,1.655
38.6599,1.651
38.6599,1.65
38.6609,1.652
38.6609,1.652
38.6609,1.652
38.6619,1.653
38.6619,1.654
38.6619,1.657
38.6629,1.652
38.6629,1.653
38.6629,1.652
38.6639,1.65
38.6639,1.653
38.6639,1.652
38.6639,1.649
38.6639,1.651
38.6649,1.651
38.6649,1.651
38.6649,1.652
38.6649,1.651
38.6659,1.654
38.6659,1.651
38.6659,1.653
38.6659,1.653
38.6669,1.653
38.6669,1.652
38.6669,1.652
38.6669,1.656
38.6679,1.652
38.6679,1.651
38.6679,1.651
38.6689,1.651
38.6689,1.651
38.6689,1.652
38.6689,1.652
38.6699,1.654
38.6699,1.656
38.6699,1.652
38.6699,1.653
38.6699,1.652
38.6709,1.654
38.6709,1.652
38.6709,1.652
38.6709,1.655
38.6719,1.65
38.6719,1.651
38.6719,1.652
38.6729,1.652
38.6729,1.653
38.6729,1.653
38.6729,1.656
38.6739,1.653
38.6739,1.652
38.6739,1.653
38.6739,1.652
38.6749,1.653
