21.0896,1.531
21.0896,1.5398
21.0919,2.6862
21.0919,2.6894
21.0949,1.8689
21.0949,1.5366
21.0949,1.5734
21.0982,1.5261
21.0989,2.443
21.1011,2.7164
21.1019,2.6997
21.1042,2.717
21.1059,2.7171
21.1059,2.1184
21.1089,1.5344
21.1092,1.522
21.1119,2.5896
21.1119,2.6316
21.1144,1.9546
21.1144,1.537
21.1154,1.5944
21.1177,1.5261
21.1184,2.2819
21.1207,2.7162
21.1214,2.7072
21.1238,2.7171
21.1251,2.7171
21.1258,2.1927
21.1278,1.5372
21.1287,1.5177
21.1327,2.6217
21.1347,2.5394
21.1387,2.0046
21.1447,1.5404
21.1457,1.5897
21.1477,1.5265
21.1477,2.4074
21.1576,2.7153
21.1596,2.7051
21.1596,2.7173
21.1606,2.7175
21.1606,2.2647
21.1606,1.5452
21.1606,1.5162
21.1606,2.6759
21.1616,2.498
21.1616,2.1308
21.1616,1.5486
21.1616,1.5435
21.1616,1.5265
21.1626,2.2677
21.1626,2.7147
21.1626,2.7106
21.1636,2.7171
21.1646,2.7175
21.1677,2.329
21.1677,1.5557
21.1685,2.2101
21.1707,2.7076
21.1715,2.4514
21.1749,2.1753
21.1749,1.5471
21.1780,1.5469
21.1780,1.5265
21.1780,2.1198
21.1812,2.717
21.1820,2.717
21.1849,2.7175
21.1853,2.7177
21.1865,2.3991
21.1890,1.5608
21.1909,2.3376
21.1909,2.7183
21.1915,2.4121
21.1937,2.2497
21.1945,1.5713
21.1967,1.5486
21.1975,1.5257
21.1985,2.0515
21.2016,2.7155
21.2016,2.717
21.2048,2.717
21.2048,2.7173
21.2079,2.4756
21.2079,1.5224
21.2089,2.2613
21.2119,2.7207
21.2119,2.3933
21.2148,2.3065
21.2148,1.5552
21.2178,1.5578
21.2178,1.5267
21.2201,1.9531
21.2220,2.7081
21.2220,2.7164
21.2242,2.7173
21.2242,2.7179
21.2279,2.549
21.2279,1.5252
21.2302,2.1456
21.2314,2.7183
21.2324,2.4484
21.2337,1.5801
21.2347,1.5529
21.2380,1.5859
21.2380,1.527
21.2402,1.9026
21.2430,2.7053
21.2470,2.7171
21.2540,2.7173
21.2559,2.7173
21.2559,1.6127
21.2559,1.5227
21.2569,2.1001
21.2569,2.7192
21.2569,2.4771
21.2569,1.5878
21.2569,1.5437
21.2579,1.5754
21.2579,1.5267
21.2609,2.7186
21.2609,2.7096
21.2632,2.7173
21.2648,2.717
21.2656,2.7173
21.2679,1.6369
21.2682,1.5214
21.2701,1.6619
21.2701,2.7181
21.2735,2.5025
21.2735,1.603
21.2745,1.5392
21.2778,1.5621
21.2778,1.5254
21.2809,2.7145
21.2816,2.7068
21.2824,2.7171
21.2836,2.7171
21.2845,2.6984
21.2868,1.6739
21.2878,1.5246
21.2901,1.933
21.2908,2.7186
21.2939,2.57
21.2939,1.6236
21.2949,1.5377
21.2978,1.5794
21.2988,1.5707
21.2998,2.7183
21.3008,2.7096
21.3028,2.7164
21.3034,2.7175
21.3054,2.7185
21.3064,1.7267
21.3074,1.5278
21.3096,1.8571
21.3104,2.4546
21.3124,2.6463
21.3134,1.6677
21.3154,1.5415
21.3164,1.6009
21.3174,1.5989
21.3193,2.7164
21.3203,2.7166
21.3223,2.7168
21.3233,2.7168
21.3253,2.7177
21.3278,1.7826
21.3284,1.5269
21.3296,1.7335
21.3304,2.4353
21.3324,2.6656
21.3334,1.6862
21.3363,1.5525
21.3370,1.5284
21.3370,1.5302
21.3410,2.717
21.3410,2.7185
21.3438,2.7083
21.3442,2.7175
21.3465,2.7181
21.3492,1.8638
21.3542,1.5284
21.3612,2.7085
21.3632,2.4286
21.3632,2.6667
21.3632,1.756
21.3642,1.5428
21.3642,1.5291
21.3642,1.5263
21.3642,2.7055
21.3652,2.7192
21.3652,2.7173
21.3661,2.7175
21.3661,2.7179
21.3661,1.9576
21.3694,1.5306
21.3694,2.7065
21.3701,2.4319
21.3734,2.7038
21.3734,1.8158
21.3768,1.5715
21.3768,1.5293
21.3789,1.5257
21.3806,2.5135
21.3806,2.717
21.3828,2.7171
21.3838,2.7173
21.3861,2.7175
21.3868,2.0472
21.3899,1.5023
21.3899,2.6455
21.3909,2.4989
21.3939,2.7188
21.3939,1.8743
21.3961,1.5629
21.3969,1.5297
21.3988,1.5261
21.4012,2.4057
21.4012,2.7059
21.4036,2.716
21.4036,2.717
21.4064,2.7177
21.4064,2.1231
21.4098,1.5244
21.4098,2.5223
21.4120,2.5745
21.4139,2.6562
21.4139,1.5392
21.4158,1.5994
21.4168,1.5362
21.4196,1.5261
21.4196,2.3472
21.4225,2.7016
21.4225,2.717
21.4235,2.7175
21.4257,2.7179
21.4265,1.5426
21.4285,1.5274
21.4295,2.5694
21.4318,2.6331
21.4339,2.5857
21.4339,1.5424
21.4363,1.5645
21.4363,1.5308
21.4386,1.5257
21.4396,2.2527
21.4418,2.6991
21.4428,2.717
21.4436,2.7173
21.4458,2.7177
21.4466,1.5454
21.4488,1.5276
21.4496,2.5103
21.4527,2.6791
21.4527,2.4944
21.4537,1.5456
21.4566,1.5754
21.4566,1.5385
21.4606,1.5257
21.4616,2.7162
21.4666,2.7076
21.4716,2.7171
21.4736,2.7173
21.4746,2.7173
21.4755,1.5509
21.4755,1.521
21.4755,2.4061
21.4755,2.7115
21.4755,2.1974
21.4766,1.5527
21.4766,1.5769
21.4766,1.5467
21.4790,1.5265
21.4790,2.7168
21.4817,2.7173
21.4826,2.7162
21.4850,2.7164
21.4860,2.3997
21.4860,1.5604
21.4889,1.5205
21.4896,2.3211
21.4918,2.7186
21.4928,2.2538
21.4959,1.5585
21.4980,1.5525
21.4988,2.1072
21.4998,2.7164
21.5020,2.7042
21.5020,2.7162
21.5049,2.717
21.5056,2.48
21.5080,1.573
21.5090,1.5209
21.5090,2.2353
21.5120,2.4063
21.5120,2.3029
21.5150,1.5634
21.5160,1.5664
21.5190,1.5263
21.5190,1.9883
21.5190,2.7171
21.5223,2.7023
21.5230,2.7162
21.5260,2.717
21.5260,2.552
21.5289,1.5917
21.5289,1.5218
21.5299,2.1426
21.5319,2.4436
21.5319,2.3931
21.5356,1.5771
21.5356,1.5535
21.5366,1.5267
21.5388,1.8722
21.5396,2.719
21.5426,2.7023
21.5426,2.7162
21.5459,2.7173
21.5459,2.6159
21.5481,1.615
21.5489,1.5227
21.5489,2.7179
21.5529,2.4805
21.5529,2.4291
21.5549,1.5959
21.5570,1.5542
21.5570,1.5272
21.5592,1.8107
21.5592,2.7168
21.5629,2.699
21.5629,2.7168
21.5649,2.7177
21.5659,2.6652
21.5669,1.6454
21.5699,1.524
21.5749,2.7181
21.5799,2.5006
21.5829,2.5085
21.5839,1.6178
21.5839,1.5439
21.5839,1.5284
21.5839,1.7477
21.5849,2.7183
21.5849,2.7068
21.5849,2.7173
21.5849,2.7173
21.5859,2.7031
21.5869,1.6851
21.5900,1.5248
21.5900,2.7186
21.5929,2.4725
21.5929,2.5913
21.5957,1.6274
21.5957,1.5338
21.5967,1.5265
21.5987,1.5349
21.5997,2.7166
21.6019,2.7119
21.6033,2.7164
21.6050,2.7168
21.6058,2.7175
21.6067,1.7331
21.6090,1.5237
21.6097,2.7186
21.6130,2.4537
21.6130,2.624
21.6140,1.6909
21.6159,1.5357
21.6169,1.5272
21.6192,1.5315
21.6192,2.7194
21.6229,2.7143
21.6229,2.7164
21.6229,2.7171
21.6270,2.7179
21.6270,1.8008
21.6300,1.5282
21.6300,2.7181
21.6328,2.4533
21.6328,2.6768
21.6338,1.7157
21.6361,1.5623
21.6368,1.528
21.6399,1.5265
21.6399,2.6708
21.6422,2.7162
21.6440,2.717
21.6440,2.7173
21.6468,2.7177
21.6468,1.8878
21.6499,1.5284
21.6499,2.7076
21.6529,2.4288
21.6529,2.69
21.6539,1.7391
21.6558,1.5389
21.6568,1.5374
21.6591,1.5261
21.6598,2.618
21.6621,2.7162
21.6628,2.7168
21.6638,2.7173
21.6660,2.7173
21.6660,1.9772
21.6698,1.5302
21.6708,2.7181
21.6718,2.4402
21.6740,2.7096
21.6740,1.8151
21.6766,1.5675
21.6790,1.5291
21.6800,1.5259
21.6830,2.5122
21.6920,2.7171
21.6950,2.7166
21.6950,2.7171
21.6960,2.7179
21.6960,2.0616
21.6960,1.5342
21.6960,2.71
21.6960,2.5156
21.6970,2.6609
21.6970,1.9157
21.6970,1.5955
21.6980,1.534
21.6980,1.5259
21.6999,2.5521
21.7009,2.7188
21.7031,2.7171
21.7039,2.7173
21.7052,2.7177
21.7073,2.1374
21.7090,1.5359
21.7110,2.6421
21.7110,2.5752
21.7123,2.6369
21.7134,1.9474
21.7157,1.6339
21.7167,1.5375
21.7195,1.5265
21.7195,2.3449
21.7205,2.7164
21.7235,2.717
21.7240,2.7177
21.7261,2.717
21.7270,2.2152
21.7270,1.5287
21.7302,2.555
21.7302,2.6343
21.7337,2.5829
21.7337,2.029
21.7357,1.6675
21.7367,1.5501
21.7387,1.5263
21.7399,2.2351
21.7407,2.7168
21.7438,2.7164
21.7438,2.7173
21.7468,2.7177
21.7468,2.2821
21.7478,1.5212
21.7504,2.3984
21.7504,2.6828
21.7526,2.5015
21.7534,2.1293
21.7556,1.5799
21.7574,1.539
21.7574,1.5267
21.7608,2.2047
21.7608,2.7185
21.7636,2.7166
21.7636,2.7175
21.7656,2.7175
21.7678,2.3401
21.7678,1.5229
21.7704,2.3804
21.7709,2.7113
21.7738,2.4441
21.7738,2.2248
21.7769,1.5645
21.7769,1.5368
21.7779,1.5259
21.7799,2.1199
21.7809,2.7175
21.7839,2.717
21.7839,2.7173
21.7849,2.7173
21.7888,2.4154
21.7938,1.5216
21.8007,2.2744
21.8037,2.7183
21.8037,2.4138
21.8037,1.5829
21.8047,1.627
21.8047,1.5557
21.8047,1.5263
21.8047,2.101
21.8057,2.7087
21.8057,2.7162
21.8057,2.717
21.8057,2.7175
21.8067,2.4929
21.8098,1.5239
21.8098,2.2701
21.8108,2.7198
21.8130,2.4211
21.8138,1.57
21.8158,1.581
21.8169,1.6182
21.8179,1.5276
21.8205,1.99
21.8205,2.7072
21.8229,2.717
21.8238,2.7175
21.8268,2.7177
21.8268,1.5972
21.8289,1.5231
21.8297,2.1124
21.8307,2.7198
21.8327,2.4576
21.8337,1.5799
21.8366,1.5644
21.8366,1.5728
21.8398,1.5261
21.8398,2.7173
21.8408,2.7068
21.8437,2.717
21.8437,2.7173
21.8457,2.7171
21.8467,1.6165
21.8488,1.5229
21.8497,2.0695
21.8507,2.7185
21.8538,2.4822
21.8538,1.6204
21.8559,1.5377
21.8568,1.5518
21.8587,1.5254
21.8610,2.7166
21.8610,2.7044
21.8637,2.717
21.8637,2.717
21.8657,2.6675
21.8667,1.6426
21.8698,1.5235
21.8698,1.9639
21.8720,2.7218
21.8736,2.5272
21.8736,1.6259
21.8758,1.582
21.8768,1.5713
21.8799,1.6486
21.8799,2.7155
21.8819,2.7005
21.8830,2.716
21.8838,2.7168
21.8867,2.7036
21.8867,1.6866
21.8887,1.527
21.8897,1.8409
21.8928,2.4871
21.8928,2.5726
21.8937,1.63
21.8967,1.5342
21.8997,1.6652
21.9087,1.6185
21.9117,2.719
21.9127,2.7078
21.9127,2.717
21.9127,2.7175
21.9127,2.7173
21.9137,1.7342
21.9137,1.5257
21.9137,1.8413
21.9137,2.4486
21.9147,2.6204
21.9147,1.6583
21.9157,1.5514
21.9167,1.5285
21.9198,1.6229
21.9198,2.7156
21.9219,2.7185
21.9238,2.7164
21.9244,2.7168
21.9264,2.7177
21.9264,1.7905
21.9298,1.5278
21.9298,2.7215
21.9318,2.4216
21.9328,2.636
21.9358,1.7549
21.9358,1.5477
21.9368,1.5287
21.9389,1.5263
21.9399,2.705
21.9420,2.716
21.9428,2.717
21.9454,2.7179
21.9459,2.7179
21.9469,1.8936
21.9498,1.528
21.9498,2.7185
21.9529,2.4149
21.9529,2.6896
21.9547,1.7468
21.9558,1.5919
21.9568,1.5304
21.9590,1.5259
21.9598,2.6223
21.9628,2.7185
21.9628,2.7173
21.9649,2.7175
21.9667,2.7177
21.9674,1.9789
21.9684,1.5668
21.9694,2.6667
21.9729,2.4426
21.9729,2.7003
21.9755,1.8413
21.9765,1.6319
21.9788,1.5389
21.9788,1.5259
21.9798,2.5131
21.9818,2.6999
21.9838,2.717
21.9858,2.7173
21.9858,2.7173
21.9879,2.0648
21.9888,1.5584
21.9898,2.6856
21.9929,2.5107
21.9929,2.6746
21.9959,1.537
21.9959,1.5739
21.9979,1.5314
21.9998,1.525
21.9998,2.4106
22.0020,2.7072
22.0028,2.7166
22.0058,2.7171
22.0068,2.7175
22.0168,1.5389
22.0198,1.5302
22.0217,2.6206
22.0217,2.5795
22.0217,2.606
22.0217,1.5484
22.0227,1.5874
22.0227,1.534
22.0227,1.5261
22.0227,2.7181
22.0227,2.708
22.0237,2.717
22.0249,2.7175
22.0257,2.7181
22.0279,1.5404
22.0299,1.5255
22.0311,2.5756
22.0321,2.6313
22.0321,2.0502
22.0341,1.5767
22.0351,1.6435
22.0380,1.5364
22.0401,1.5257
22.0401,2.7162
22.0416,2.704
22.0426,2.7168
22.0451,2.717
22.0451,2.7177
22.0471,1.5441
22.0487,1.5231
22.0498,2.4676
22.0520,2.6836
22.0528,2.1447
22.0549,1.5482
22.0559,1.6396
22.0581,1.5687
22.0600,1.5267
22.0600,2.719
22.0631,2.7106
22.0641,2.7166
22.0651,2.7177
22.0661,2.3502
22.0684,1.5574
22.0684,1.5248
22.0691,2.3125
22.0728,2.711
22.0728,2.1901
22.0759,1.5486
22.0759,1.5752
22.0787,1.5464
22.0787,1.5267
22.0797,2.7175
22.0819,2.7173
22.0827,2.7171
22.0847,2.7173
22.0857,2.4168
22.0877,1.5651
22.0887,1.5227
22.0897,2.3481
22.0911,2.7177
22.0921,2.2669
22.0941,1.564
22.0951,1.579
22.0971,1.5514
22.0981,1.5265
22.0991,2.7186
22.1011,2.713
22.1021,2.7171
22.1041,2.7175
22.1051,2.4886
22.1061,1.5773
22.1081,1.5222
22.1101,2.2478
22.1131,2.7171
22.1191,2.3339
22.1250,1.5734
22.1280,1.5765
22.1280,1.5531
22.1280,1.5267
22.1280,2.716
22.1290,2.7081
22.1290,2.7171
22.1290,2.7173
22.1290,2.554
22.1300,1.5938
22.1300,1.524
22.1300,2.1023
22.1310,2.7192
22.1330,2.383
22.1330,1.5739
22.1370,1.5612
22.1370,1.5565
22.1399,1.5265
22.1399,2.7177
22.1423,2.7029
22.1423,2.7171
22.1433,2.7173
22.1468,2.618
22.1473,1.6172
22.1488,1.5233
22.1498,1.9411
22.1526,2.7186
22.1526,2.4479
22.1536,1.5857
22.1568,1.5351
22.1568,1.5844
22.1588,1.5263
22.1596,2.7175
22.1606,2.704
22.1628,2.717
22.1636,2.7173
22.1659,2.6661
22.1666,1.6448
22.1689,1.5229
22.1710,2.0356
22.1729,2.7155
22.1729,2.5235
22.1739,1.6037
22.1770,1.5332
22.1770,1.591
22.1793,1.5267
22.1797,2.7155
22.1830,2.701
22.1830,2.7166
22.1830,2.7171
22.1870,2.705
22.1870,1.6855
22.1898,1.5225
22.1900,1.7481
22.1910,2.7188
22.1933,2.5758
22.1940,1.6317
22.1963,1.5518
22.1963,1.5758
22.2008,1.5269
22.2030,2.7074
22.2030,2.716
22.2030,2.7162
22.2065,2.7179
22.2065,1.7387
22.2100,1.5265
22.2100,1.7254
22.2122,2.461
22.2130,2.6371
22.2130,1.6607
22.2169,1.5389
22.2172,1.5878
22.2198,1.5261
22.2203,2.7156
22.2223,2.717
22.2273,2.7156
22.2333,2.7175
22.2353,2.7179
22.2353,1.8077
22.2353,1.5285
22.2353,1.7237
22.2363,2.446
22.2363,2.6643
22.2363,1.6861
22.2363,1.5426
22.2373,1.5304
22.2396,1.5323
22.2396,2.7171
22.2430,2.7179
22.2430,2.7074
22.2440,2.7173
22.2470,2.7177
22.2470,1.8942
22.2490,1.5287
22.2500,1.5887
22.2522,2.4036
22.2529,2.6575
22.2539,1.8779
22.2562,1.5471
22.2562,1.5284
22.2595,1.5257
22.2595,2.6774
22.2617,2.7164
22.2625,2.7025
22.2647,2.7175
22.2656,2.7171
22.2667,1.9823
22.2700,1.5293
22.2700,2.7076
22.2728,2.4366
22.2728,2.7085
22.2759,1.7807
22.2759,1.6189
22.2769,1.5314
22.2799,1.5257
22.2799,2.4605
22.2818,2.7164
22.2828,2.7173
22.2859,2.717
22.2859,2.7171
22.2869,2.0654
22.2892,1.5308
22.2899,2.6789
22.2929,2.5011
22.2929,2.7102
22.2951,1.8293
22.2960,1.5876
22.2960,1.5347
22.2992,1.5257
22.3000,2.3916
22.3026,2.7164
22.3026,2.7164
22.3048,2.7168
22.3058,2.7173
22.3089,2.1456
22.3089,1.528
22.3099,2.6191
22.3121,2.5724
22.3129,2.6245
22.3149,1.9801
22.3171,1.6253
22.3178,1.54
22.3191,1.5259
22.3198,2.3061
22.3220,2.6978
22.3228,2.7164
22.3247,2.7173
22.3257,2.7177
22.3279,2.2169
22.3289,1.5261
22.3297,2.5218
22.3327,2.6335
22.3367,2.5441
22.3447,1.5604
22.3487,1.5951
22.3496,1.5355
22.3496,1.5257
22.3496,2.3393
22.3507,2.7078
22.3507,2.7171
22.3507,2.7175
22.3507,2.7177
22.3516,1.5462
22.3516,1.5085
22.3516,2.4038
22.3516,2.6892
22.3526,2.492
22.3557,1.5574
22.3557,1.6832
22.3588,1.5419
22.3588,1.5261
22.3598,2.716
22.3618,2.7036
22.3628,2.7171
22.3646,2.7168
22.3656,2.7173
22.3679,1.5525
22.3699,1.5184
22.3719,2.3247
22.3719,2.7119
22.3729,2.2184
22.3747,1.5497
22.3758,1.576
22.3780,1.5424
22.3789,1.5259
22.3797,2.7183
22.3817,2.7158
22.3827,2.7166
22.3860,2.7171
22.3860,2.4162
22.3889,1.5649
22.3889,1.5224
22.3905,2.329
22.3916,2.7181
22.3926,2.2686
22.3948,1.5557
22.3956,1.5764
22.3980,1.551
22.3980,2.0661
22.4019,2.7162
22.4019,2.7076
22.4029,2.7173
22.4049,2.7173
22.4049,2.4983
22.4082,1.5825
22.4089,1.5235
22.4112,2.2184
22.4122,2.4145
22.4122,2.3719
22.4146,1.5987
22.4157,1.5604
22.4189,1.555
22.4199,1.9846
22.4209,2.7171
22.4221,2.6976
22.4229,2.717
22.4255,2.7175
22.4255,2.5606
22.4278,1.5945
22.4285,1.5207
22.4314,2.107
22.4314,2.4717
22.4338,2.3811
22.4360,1.5773
22.4360,1.6199
22.4389,1.5259
22.4389,1.8499
22.4419,2.7162
22.4429,2.7006
22.4478,2.7164
22.4538,2.7177
22.4569,2.6228
22.4569,1.6195
22.4569,1.5248
22.4578,2.7186
22.4578,2.4951
22.4578,2.4393
22.4578,1.5914
22.4588,1.5374
22.4588,1.5267
22.4588,1.8713
22.4611,2.7166
22.4618,2.7072
22.4646,2.7171
22.4646,2.7177
22.4656,2.6691
22.4688,1.6463
22.4688,1.5246
22.4710,2.7194
22.4718,2.4573
22.4749,2.5364
22.4749,1.6092
22.4759,1.5989
22.4778,1.5274
22.4788,1.657
22.4813,2.7181
22.4819,2.7051
22.4845,2.7173
22.4845,2.7177
22.4855,2.7029
22.4877,1.6855
22.4885,1.5244
22.4916,2.7186
22.4916,2.4627
22.4938,2.5745
22.4960,1.6459
22.4960,1.5704
22.4979,1.5265
22.4989,1.5542
22.5009,2.7164
22.5019,2.7053
22.5042,2.7164
22.5048,2.7171
22.5058,2.7179
22.5089,1.7344
22.5092,1.5252
22.5119,2.72
22.5119,2.4443
22.5145,2.6286
22.5145,1.6561
22.5155,1.594
22.5177,1.5282
22.5185,1.5263
22.5207,2.7128
22.5226,2.7179
22.5249,2.717
22.5249,2.7177
22.5257,2.7181
22.5289,1.807
22.5289,1.7172
22.5311,2.7185
22.5321,2.4203
22.5347,2.6714
22.5347,1.6969
22.5357,1.5786
22.5387,1.5282
22.5387,1.5255
22.5419,2.6795
22.5439,2.717
22.5439,2.7175
22.5448,2.7175
22.5458,2.7179
22.5479,1.8869
22.5488,1.6191
22.5518,2.7194
22.5558,2.4066
22.5618,2.6823
22.5638,1.7296
22.5648,1.5923
22.5648,1.5299
22.5658,1.5257
22.5658,2.6804
22.5658,2.7173
22.5658,2.7171
22.5668,2.7171
22.5668,2.7173
22.5678,1.9772
22.5688,1.5702
22.5709,2.7121
22.5718,2.4353
22.5727,2.7033
22.5750,1.8265
22.5757,1.5859
22.5788,1.5308
22.5788,1.5254
22.5810,2.5188
22.5818,2.7162
22.5828,2.7171
22.5848,2.717
22.5858,2.7177
22.5878,2.0603
22.5888,1.5454
22.5898,2.6615
22.5917,2.5077
22.5927,2.687
22.5947,1.8736
22.5957,1.5786
22.5977,1.5306
22.5987,1.5261
22.5997,2.5386
22.6019,2.7173
22.6029,2.7171
22.6039,2.717
22.6059,2.7177
22.6069,2.1359
22.6089,1.5111
22.6099,2.5964
22.6119,2.5797
22.6129,2.621
22.6149,1.9422
22.6159,1.5951
22.6169,1.5347
22.6189,1.5263
22.6199,2.4464
22.6219,2.7061
22.6228,2.7164
22.6238,2.7171
22.6258,2.7173
22.6268,2.2165
22.6288,1.5057
22.6298,2.5401
22.6318,2.6345
22.6328,2.551
22.6338,2.0526
22.6358,1.584
22.6368,1.5345
22.6383,1.5261
22.6393,2.3564
22.6413,2.7065
22.6423,2.7173
22.6443,2.7173
22.6453,2.7175
22.6463,2.281
22.6483,1.5152
22.6493,2.4346
22.6513,2.6841
22.6523,2.4918
22.6543,2.1231
22.6553,1.594
22.6563,1.5405
22.6583,1.5263
22.6633,2.2649
22.6742,2.7125
22.6862,2.7162
22.6892,2.7168
22.6892,2.7173
22.6902,2.3419
22.6902,1.5134
22.6912,2.3487
22.6912,2.7128
22.6922,2.4351
22.6922,2.188
22.6932,1.6004
22.6932,1.5392
22.6942,1.5261
22.6942,2.1788
22.6952,2.7158
22.6952,2.7168
22.6952,2.7173
22.6962,2.7181
22.6962,2.4106
22.6972,1.5188
22.6972,2.2189
22.6972,2.7181
22.6982,2.4085
22.6982,2.2653
22.6992,1.5659
22.6992,1.5445
22.7002,1.5257
22.7002,2.1513
22.7012,2.7113
22.7022,2.7164
22.7032,2.7171
22.7052,2.7175
22.7062,2.4884
22.7082,1.5244
22.7092,2.1344
22.7111,2.7177
22.7121,2.3838
22.7141,2.3412
22.7151,1.56
22.7161,1.5514
22.7181,1.5263
22.7201,2.0168
22.7211,2.7106
22.7221,2.7171
22.7231,2.7173
22.7251,2.7173
22.7261,2.5495
22.7281,1.524
22.7291,2.0689
22.7311,2.7188
22.7321,2.4552
22.7341,2.4514
22.7351,1.5642
22.7361,1.5595
22.7381,1.5267
22.7391,1.9808
22.7411,2.7048
22.7421,2.717
22.7441,2.7173
22.7451,2.7179
22.7471,2.6204
22.7480,1.5242
22.7490,2.0363
22.7510,2.7201
22.7520,2.4905
22.7540,2.4447
22.7550,1.5863
22.7570,1.6962
22.7580,1.5291
22.7590,1.8574
22.7610,2.7059
22.7620,2.7171
22.7630,2.7175
22.7650,2.7179
22.7660,2.6691
22.7680,1.5237
22.7720,1.9446
22.7790,2.7183
22.7879,2.4653
22.7899,1.6559
22.7899,1.5449
22.7909,1.5929
22.7909,1.5272
22.7919,1.8233
22.7919,2.7102
22.7919,2.717
22.7919,2.7173
22.7929,2.7179
22.7929,2.705
22.7929,1.5246
22.7939,1.7804
22.7939,2.7186
22.7939,2.4728
22.7949,1.8413
22.7949,1.5644
22.7969,1.6084
22.7979,1.5291
22.7989,1.7339
22.8009,2.7145
22.8019,2.7171
22.8039,2.7175
22.8049,2.7177
22.8069,2.7179
22.8079,1.5254
22.8089,1.8214
22.8109,2.7183
22.8119,2.4565
22.8139,1.6566
22.8149,1.5402
22.8169,1.6064
22.8179,1.5287
22.8189,1.5887
22.8209,2.7168
22.8219,2.7164
22.8238,2.717
22.8248,2.7179
22.8268,2.7183
22.8278,1.5291
22.8298,1.6215
22.8308,2.719
22.8328,2.4379
22.8378,1.7712
22.8458,1.5435
22.8458,1.5833
22.8478,1.5278
22.8478,1.5372
22.8478,2.7158
22.8488,2.7115
22.8488,2.7171
22.8488,2.7179
22.8488,2.7181
22.8488,1.5291
22.8498,1.5985
22.8508,2.7192
22.8527,2.4151
22.8535,1.8381
22.8542,1.612
22.8567,1.5745
22.8577,1.5289
22.8597,1.5267
22.8602,2.7156
22.8627,2.707
22.8637,2.7173
22.8647,2.7175
22.8667,1.9735
22.8677,1.533
22.8697,1.5617
22.8707,2.6926
22.8717,2.4419
22.8737,1.8117
22.8747,1.5411
22.8763,1.5807
22.8773,1.5308
22.8803,1.5263
22.8893,2.7162
22.8912,2.7085
22.8932,2.717
22.8932,2.7179
22.8952,2.0609
22.8962,1.533
22.9032,1.5102
22.9032,2.6472
22.9042,2.518
22.9042,1.9559
22.9042,1.543
22.9052,1.5797
22.9052,1.5317
22.9052,1.5261
22.9052,2.7173
22.9052,2.708
22.9062,2.7175
22.9068,2.1346
22.9078,1.5353
22.9098,1.4912
22.9108,2.5326
22.9128,2.6288
22.9135,2.0879
22.9156,1.6345
22.9166,1.6988
22.9176,1.5488
22.9197,2.4036
22.9208,2.7162
22.9228,2.705
22.9238,2.717
22.9248,2.7171
22.9268,2.2144
22.9278,1.5394
22.9298,1.5062
22.9308,2.4361
22.9328,2.5675
22.9338,2.0588
22.9348,1.545
22.9363,1.7554
22.9374,1.5681
22.9397,2.2669
22.9403,2.716
22.9424,2.7025
22.9435,2.7166
22.9445,2.7173
22.9467,2.2838
22.9477,1.5452
22.9497,1.5143
22.9507,2.3903
22.9528,2.4942
22.9538,2.1901
22.9547,1.5501
22.9568,1.587
22.9577,1.5255
22.9598,2.1565
22.9607,2.7171
22.9628,2.7072
22.9637,2.7173
22.9648,2.7171
22.9664,2.3403
22.9675,1.5533
22.9698,1.5218
22.9708,2.2731
22.9727,2.449
22.9738,2.2746
22.9827,1.6907
22.9847,1.681
22.9917,1.527
22.9977,2.1231
22.9987,2.7168
23.0007,2.7166
23.0017,2.7171
23.0017,2.7171
23.0017,2.4121
23.0017,1.563
23.0027,1.5207
23.0027,2.2623
23.0027,2.4121
23.0027,2.2533
23.0027,1.5585
23.0037,1.5602
23.0037,1.5263
23.0037,2.1213
23.0047,2.717
23.0047,2.7177
23.0047,2.7164
23.0047,2.7179
23.0067,2.4895
23.0077,1.5788
23.0098,1.524
23.0107,2.1134
23.0117,2.3948
23.0138,2.3168
23.0148,1.5634
23.0168,1.5655
23.0178,1.5267
23.0188,2.0453
23.0208,2.7153
23.0218,2.7072
23.0238,2.7168
23.0248,2.7175
23.0268,2.5488
23.0278,1.5923
23.0298,1.5246
23.0308,2.7185
23.0318,2.4576
23.0334,2.419
23.0344,1.606
23.0367,1.5625
23.0378,1.5263
23.0387,1.9433
23.0407,2.7168
23.0417,2.7078
23.0438,2.7171
23.0447,2.7175
23.0468,2.6133
23.0475,1.6154
23.0496,1.5237
23.0507,2.7192
23.0517,2.4951
23.0534,2.4443
23.0544,1.5861
23.0567,1.5749
23.0578,1.5272
23.0588,1.8334
23.0608,2.7173
23.0618,2.7055
23.0638,2.7171
23.0648,2.7175
23.0658,2.6648
23.0677,1.6442
23.0687,1.5246
23.0708,2.7168
23.0718,2.4856
23.0738,2.5154
23.0748,1.6041
23.0768,1.5467
23.0778,1.5272
23.0788,1.6986
23.0808,2.7173
23.0818,2.707
23.0838,2.717
23.0848,2.7173
23.0868,2.6982
23.0878,1.6757
23.0888,1.5237
23.0908,2.7185
23.0918,2.467
23.0938,2.5656
23.0948,1.6212
23.0958,1.5353
23.1028,1.5269
23.1087,1.5782
23.1107,2.7168
23.1107,2.7061
23.1117,2.7168
23.1117,2.7173
23.1117,2.7181
23.1127,1.729
23.1127,1.5248
23.1127,2.7183
23.1127,2.4672
23.1137,2.6208
23.1143,1.6636
23.1153,1.543
23.1177,1.5278
23.1187,1.6566
23.1208,2.7156
23.1218,2.7171
23.1238,2.7168
23.1248,2.7177
23.1258,2.7179
23.1278,1.7886
23.1288,1.5272
23.1307,2.722
23.1317,2.4383
23.1338,2.6753
23.1348,1.7183
23.1358,1.5584
23.1378,1.5276
23.1388,1.5261
23.1407,2.7171
23.1417,2.719
23.1438,2.7164
23.1448,2.7177
23.1458,2.7183
23.1476,1.8801
23.1487,1.527
23.1508,2.7186
23.1518,2.4173
23.1528,2.6963
23.1549,1.7477
23.1558,1.5649
23.1575,1.5327
23.1584,1.5263
23.1604,2.6403
23.1617,2.7196
23.1627,2.7164
23.1648,2.717
23.1655,2.7181
23.1677,1.9658
23.1687,1.5295
23.1707,2.716
23.1717,2.4342
23.1727,2.7042
23.1748,1.8021
23.1757,1.5379
23.1777,1.5295
23.1787,1.5261
23.1808,2.545
23.1818,2.7166
23.1828,2.7164
23.1847,2.717
23.1857,2.7173
23.1878,2.0528
23.1887,1.5306
23.1907,2.6939
23.1917,2.4946
23.1927,2.6787
23.1947,1.9171
23.1957,1.5737
23.1977,1.5302
23.1987,1.5254
23.2007,2.4678
23.2017,2.716
23.2037,2.7168
23.2047,2.717
23.2057,2.717
23.2087,2.1273
23.2097,1.5338
23.2137,2.6472
23.2187,2.5763
23.2207,2.63
23.2217,2.0564
23.2227,1.596
23.2227,1.5317
23.2227,1.5257
23.2237,2.4168
23.2237,2.7057
23.2237,2.7164
23.2248,2.717
23.2258,2.7177
23.2278,2.2028
23.2288,1.5336
23.2307,2.5923
23.2318,2.6223
23.2337,2.5707
23.2348,1.5666
23.2358,1.6977
23.2378,1.5473
23.2388,1.5265
23.2407,2.3059
23.2417,2.7074
23.2438,2.7162
23.2448,2.7171
23.2457,2.7179
23.2476,1.543
23.2486,1.5167
23.2507,2.462
23.2518,2.6811
23.2537,2.5199
23.2547,1.5465
23.2557,1.582
23.2577,1.5374
23.2587,1.5261
23.2607,2.7183
23.2617,2.7091
23.2637,2.7162
23.2647,2.7168
23.2668,2.7173
23.2677,1.5501
23.2688,1.5216
23.2708,2.3733
23.2717,2.7057
23.2738,2.2054
23.2748,1.5546
23.2768,1.5758
23.2777,1.54
23.2787,1.5263
23.2808,2.7158
23.2818,2.7166
23.2838,2.716
23.2848,2.717
23.2868,2.3937
23.2878,1.5606
23.2888,1.5239
23.2908,2.293
23.2918,2.719
23.2938,2.2923
23.2948,1.6011
23.2967,1.6131
23.2976,1.5464
23.2986,2.1021
23.3006,2.7192
23.3016,2.7089
23.3038,2.7164
23.3046,2.7173
23.3066,2.4663
23.3076,1.5739
23.3086,1.5237
23.3107,2.2101
23.3117,2.4138
23.3137,2.3052
23.3157,1.5599
23.3177,1.6536
23.3227,1.6069
23.3277,2.0209
23.3287,2.7156
23.3307,2.7038
23.3327,2.7166
23.3327,2.7177
23.3337,2.5465
23.3337,1.5915
23.3337,1.5244
23.3337,2.1633
23.3347,2.4447
23.3347,2.3961
23.3347,1.587
23.3368,1.5565
23.3378,1.5265
23.3398,2.0209
23.3407,2.7156
23.3418,2.707
23.3437,2.717
23.3447,2.7177
23.3467,2.6078
23.3477,1.6144
23.3497,1.5244
23.3507,2.7188
23.3517,2.4813
23.3538,2.4331
23.3548,1.5983
23.3567,1.54
23.3577,1.5267
23.3598,1.8612
23.3608,2.7186
23.3618,2.7059
23.3635,2.7173
23.3645,2.7173
23.3665,2.6573
23.3675,1.6375
23.3698,1.5252
23.3707,2.7173
23.3726,2.5025
23.3737,2.5248
23.3747,1.6236
23.3768,1.5878
23.3777,1.5272
23.3797,1.7059
23.3807,2.7179
23.3827,2.7048
23.3838,2.717
23.3848,2.7175
23.3865,2.6958
23.3875,1.6735
23.3898,1.9491
23.3908,2.7179
23.3924,2.4912
23.3934,2.5598
23.3944,1.618
23.3965,1.6037
23.3974,1.5274
23.3997,1.6103
23.4007,2.7183
23.4028,2.717
23.4037,2.717
23.4045,2.7175
23.4068,2.7183
23.4078,1.7192
23.4098,1.8182
23.4108,2.7192
23.4127,2.4715
23.4138,2.6146
23.4157,1.5387
23.4168,1.5994
23.4178,1.5284
23.4198,1.5349
23.4208,2.7162
23.4228,2.7164
23.4238,2.7173
23.4258,2.7179
23.4278,2.7181
23.4288,1.5293
23.4337,1.7551
23.4387,2.7188
23.4417,2.4516
23.4427,2.6637
23.4427,1.5467
23.4427,1.5966
23.4427,1.5291
23.4437,1.5323
23.4437,2.7158
23.4437,2.7147
23.4437,2.7173
23.4458,2.7175
23.4468,2.7179
23.4475,1.5282
23.4496,1.6782
23.4505,2.7188
23.4528,2.4387
23.4538,1.7489
23.4558,1.5539
23.4567,1.5732
23.4588,1.5284
23.4597,1.5263
23.4607,2.7155
23.4627,2.6986
23.4637,2.7173
23.4657,2.7179
23.4667,1.9591
23.4688,1.5315
23.4697,1.6109
23.4708,2.7151
23.4727,2.4121
23.4737,1.7802
23.4757,1.5769
23.4767,1.6772
23.4788,1.5366
23.4798,2.5371
23.4808,2.7156
23.4828,2.7025
23.4837,2.717
23.4858,2.7175
23.4868,2.0397
23.4888,1.5327
23.4898,1.5754
23.4908,2.7021
23.4928,2.6976
23.4937,1.8496
23.4958,1.5368
23.4968,1.5672
23.4988,1.5302
23.4997,2.4548
23.5008,2.716
23.5027,2.7035
23.5037,2.7171
23.5057,2.7179
23.5067,2.1188
23.5077,1.5357
23.5097,1.5447
23.5107,2.6508
23.5127,2.611
23.5137,1.9435
23.5157,1.5396
23.5167,1.5957
23.5188,1.5265
23.5197,2.3742
23.5218,2.7158
23.5227,2.7018
23.5238,2.7171
23.5258,2.7179
23.5267,2.1987
23.5288,1.5404
23.5298,1.521
23.5308,2.6067
23.5328,2.5765
23.5338,2.0654
23.5358,1.5514
23.5368,1.5938
23.5388,1.5265
23.5408,2.2506
23.5447,2.716
23.5507,2.7065
23.5517,2.7175
23.5537,2.7177
23.5537,2.2653
23.5547,1.5462
23.5547,1.5344
23.5547,2.6731
23.5547,2.5073
23.5547,2.1211
23.5557,1.5486
23.5567,1.6187
23.5588,1.5269
23.5598,2.257
23.5618,2.7158
23.5628,2.7018
23.5638,2.7173
23.5658,2.7177
23.5668,2.3232
23.5688,1.5527
23.5697,1.521
23.5718,2.7023
23.5728,2.4576
23.5748,2.1841
23.5758,1.5482
23.5768,1.5437
23.5788,1.5261
23.5798,2.1239
23.5817,2.7177
23.5828,2.7188
23.5848,2.7171
23.5857,2.7177
23.5867,2.3853
23.5888,1.56
23.5897,2.4411
23.5918,2.7181
23.5928,2.4241
23.5948,2.2504
23.5957,1.5544
23.5967,1.5567
23.5988,1.5267
23.5998,2.0853
23.6017,2.7186
23.6027,2.7168
23.6047,2.7175
23.6057,2.7175
23.6067,2.4713
23.6097,1.5732
23.6118,2.7171
23.6128,2.4091
23.6148,2.3354
23.6158,1.564
23.6178,1.5529
23.6188,1.5263
23.6198,2.0114
23.6218,2.7061
23.6228,2.7171
23.6247,2.7177
23.6257,2.7173
23.6278,2.5379
23.6288,1.5231
23.6298,2.185
23.6317,2.7183
23.6327,2.428
23.6347,1.5741
23.6357,1.6508
23.6377,1.6229
23.6387,1.5278
23.6397,1.9317
23.6417,2.7046
23.6427,2.7171
23.6447,2.7175
23.6457,2.7177
23.6487,1.6109
23.6587,1.5242
23.6607,2.104
23.6617,2.7188
23.6617,2.4968
23.6617,1.5893
23.6627,1.5456
23.6627,1.5717
23.6627,1.5267
23.6627,1.9077
23.6637,2.7104
23.6637,2.717
23.6642,2.7171
23.6652,2.7177
23.6672,1.6364
23.6687,1.5252
23.6698,2.0564
23.6718,2.7188
23.6728,2.4856
23.6748,1.6131
23.6758,1.5387
23.6778,1.5908
23.6788,1.5272
23.6808,2.7177
23.6817,2.7023
23.6827,2.7171
23.6847,2.7173
23.6857,2.7173
23.6878,1.6686
23.6888,1.5248
23.6908,1.9497
23.6917,2.7192
23.6927,2.5788
23.6947,1.705
23.6957,1.5509
23.6977,1.5863
23.6987,1.5272
23.7007,2.7177
23.7017,2.71
23.7027,2.7171
23.7048,2.7173
23.7058,2.7173
23.7078,1.7157
23.7088,1.5237
23.7108,1.8404
23.7118,2.719
23.7128,2.5816
23.7147,1.6379
23.7157,1.6088
23.7178,1.7061
23.7187,1.5837
23.7207,2.7162
23.7214,2.7119
23.7235,2.717
23.7245,2.7171
23.7255,2.7171
23.7275,1.7727
23.7285,1.5259
23.7325,1.7543
23.7395,2.4389
23.7395,2.659
23.7415,1.708
23.7445,1.5477
23.7535,1.5792
23.7584,1.5548
23.7684,2.7168
23.7705,2.7177
23.7764,2.716
23.7784,2.7175
23.7784,2.7181
23.7784,1.8548
23.7784,1.5297
23.7794,1.6446
23.7794,2.4091
23.7794,2.6631
23.7794,1.7614
23.7804,1.5454
23.7804,1.531
23.7804,1.5267
23.7804,2.7121
23.7814,2.7156
23.7814,2.7036
23.7814,2.7171
23.7824,2.7175
23.7824,1.9382
23.7824,1.531
23.7824,2.7102
23.7824,2.4226
23.7834,2.6954
23.7834,1.8953
23.7834,1.5612
23.7834,1.5308
23.7844,1.5259
23.7844,2.6729
23.7844,2.7162
23.7844,2.7175
23.7844,2.7179
23.7864,2.7179
23.7874,2.0245
23.7884,1.5345
23.7908,2.68
23.7918,2.4901
23.7936,2.7035
23.7947,1.8347
23.7968,1.6804
23.7978,1.5404
23.7988,1.5265
23.8007,2.4741
23.8017,2.7181
23.8117,2.717
23.8127,2.7175
23.8127,2.7179
23.8137,2.1025
23.8137,1.4948
23.8137,2.6196
23.8147,2.5506
23.8147,2.6768
23.8147,1.9156
23.8167,1.5895
23.8177,1.5329
23.8187,1.5255
23.8208,2.5101
23.8217,2.7083
23.8237,2.7171
23.8247,2.7177
23.8268,2.7175
23.8278,2.1779
23.8298,1.5132
23.8306,2.5456
23.8346,2.6105
23.8416,2.5559
23.8426,1.5524
23.8455,1.6127
23.8536,1.5387
23.8635,1.5261
23.8665,2.3772
23.8695,2.7087
23.8824,2.717
23.8834,2.7168
23.8854,2.7175
23.8874,1.5426
23.8944,1.5117
23.9044,2.4816
23.9054,2.6697
23.9134,2.5122
23.9154,1.5876
23.9154,1.5792
23.9164,1.5338
23.9164,1.5265
23.9164,2.7156
23.9164,2.7063
23.9173,2.7168
23.9173,2.7175
23.9173,2.7181
23.9173,1.5537
23.9234,1.5141
23.9243,2.4237
23.9253,2.701
23.9253,2.1552
23.9263,1.5482
23.9263,1.7365
23.9263,1.5702
23.9263,1.5267
23.9274,2.7175
23.9274,2.7181
23.9274,2.7173
23.9274,2.7173
23.9284,2.3673
23.9284,1.5578
23.9284,1.5175
23.9284,2.3067
23.9284,2.7186
23.9293,2.2279
23.9293,1.5559
23.9293,1.564
23.9293,1.5407
23.9303,2.1258
23.9303,2.716
23.9303,2.7096
23.9303,2.7164
23.9313,2.7166
23.9313,2.4483
23.9313,1.569
23.9323,1.5229
23.9323,2.2113
23.9323,2.7194
23.9353,2.2754
23.9413,1.5784
23.9423,1.5629
23.9423,1.5627
23.9433,2.1121
23.9433,2.7198
23.9433,2.707
23.9433,2.7164
23.9433,2.7175
23.9443,2.5175
23.9443,1.5848
23.9443,1.5254
23.9443,2.1582
23.9453,2.7185
23.9453,2.389
23.9453,1.6439
23.9453,1.5615
23.9453,1.561
23.9463,2.0402
23.9463,2.7188
23.9463,2.7081
23.9473,2.7173
23.9493,2.7175
23.9542,2.5865
23.9542,1.6043
23.9553,1.524
23.9562,2.1184
23.9562,2.4901
23.9562,2.4074
23.9562,1.581
23.9573,1.6202
23.9573,1.6377
23.9597,1.9221
23.9608,2.7175
23.9616,2.7053
23.9638,2.7173
23.9648,2.7173
23.9668,2.6375
23.9677,1.6277
23.9687,1.5242
23.9708,2.0076
23.9718,2.5107
23.9736,2.4809
23.9766,1.5951
23.9825,1.5411
23.9875,1.5745
23.9895,1.777
23.9905,2.7168
23.9915,2.7066
23.9935,2.717
23.9995,2.7175
23.9995,2.6851
23.9995,1.6598
24.0005,1.5239
24.0005,1.9559
24.0005,2.4837
24.0005,2.5021
24.0015,1.6405
24.0015,1.5445
24.0015,1.5882
24.0015,1.738
24.0015,2.7168
24.0025,2.7059
24.0038,2.7164
24.0048,2.7173
24.0067,2.7125
24.0076,1.6996
24.0087,1.5272
24.0108,1.8175
24.0118,2.467
24.0137,2.6106
24.0147,1.7084
24.0168,1.5509
24.0178,1.5644
24.0188,1.5818
24.0218,2.7185
24.0268,2.7061
24.0278,2.7164
24.0288,2.7173
24.0288,2.7179
24.0288,1.7564
24.0288,1.527
24.0307,1.8188
24.0317,2.462
24.0338,2.6607
24.0348,1.6784
24.0358,1.5942
24.0378,1.6684
24.0388,1.5289
24.0407,2.7156
24.0417,2.717
24.0437,2.7166
24.0447,2.7175
24.0457,2.7181
24.0475,1.8293
24.0485,1.5287
24.0555,1.6742
24.0565,2.4258
24.0565,2.6675
24.0575,1.7185
24.0575,1.5456
24.0575,1.5968
24.0585,1.5272
24.0605,2.7162
24.0616,2.7175
24.0636,2.7057
24.0656,2.7177
24.0706,2.7179
24.0726,1.9232
24.0726,1.5319
24.0726,1.5839
24.0726,2.4241
24.0726,2.6333
24.0746,1.7434
24.0755,1.545
24.0775,1.5814
24.0785,1.5265
24.0806,2.6335
24.0817,2.716
24.0827,2.7063
24.0857,2.7177
24.0907,2.7177
24.0977,2.0061
24.1016,1.5332
24.1066,1.5638
24.1077,2.4674
24.1077,2.7046
24.1086,1.8831
24.1086,1.563
24.1086,1.5822
24.1086,1.5263
24.1096,2.5475
24.1096,2.7171
24.1096,2.7021
24.1096,2.7175
24.1106,2.7171
24.1106,2.0854
24.1106,1.5332
24.1106,1.5383
24.1118,2.5401
24.1127,2.684
24.1147,1.9202
24.1157,1.5379
24.1177,1.6849
24.1188,1.5265
24.1198,2.477
24.1217,2.7177
24.1287,2.7063
24.1287,2.7177
24.1297,2.7173
24.1307,2.164
24.1307,1.5374
24.1317,1.5085
24.1317,2.606
24.1327,2.5838
24.1348,2.0052
24.1357,1.5473
24.1378,1.5805
24.1388,1.5255
24.1398,2.3809
24.1417,2.7164
24.1427,2.705
24.1448,2.7168
24.1457,2.7173
24.1475,2.2401
24.1486,1.5411
24.1496,1.5291
24.1517,2.6504
24.1526,2.4989
24.1548,1.9898
24.1558,1.5477
24.1576,1.5368
24.1582,1.5257
24.1652,2.2128
24.1672,2.7164
24.1672,2.708
24.1672,2.717
24.1672,2.7179
24.1672,2.3048
24.1688,1.5479
24.1698,1.5265
24.1718,2.6931
24.1728,2.4719
24.1798,2.1829
24.1817,1.5764
24.1817,1.5462
24.1817,1.5265
24.1817,2.1839
24.1817,2.7186
24.1827,2.713
24.1848,2.7171
24.1858,2.7179
24.1868,2.3554
24.1887,1.5561
24.1897,1.5205
24.1917,2.7166
24.1947,2.4428
24.2007,2.2148
24.2057,1.5499
24.2067,1.5745
24.2087,1.527
24.2087,2.1244
24.2097,2.7175
24.2166,2.713
24.2177,2.7173
24.2177,2.7175
24.2177,2.434
24.2186,1.5687
24.2186,1.5255
24.2186,2.7188
24.2186,2.4008
24.2196,2.2789
24.2196,1.5615
24.2196,1.551
24.2196,1.5263
24.2196,2.1145
24.2218,2.7181
24.2227,2.7076
24.2237,2.7177
24.2257,2.7175
24.2267,2.5083
24.2287,1.5824
24.2297,1.5231
24.2317,2.7183
24.2337,2.416
24.2387,2.2823
24.2397,1.5805
24.2397,1.5569
24.2407,1.5263
24.2407,2.0596
24.2418,2.7188
24.2428,2.7057
24.2438,2.7173
24.2455,2.7179
24.2485,2.5731
24.2525,1.5992
24.2535,1.5237
24.2535,2.7181
24.2545,2.4893
24.2545,2.3995
24.2555,1.6604
24.2565,1.5807
24.2588,1.527
24.2595,1.9572
24.2665,2.7168
24.2675,2.7027
24.2675,2.717
24.2685,2.717
24.2685,2.6296
24.2685,1.624
24.2695,2.0729
24.2718,2.7185
24.2727,2.5006
24.2737,2.4771
24.2767,1.5936
24.2807,1.6649
24.2827,1.5284
24.2837,1.7957
24.2837,2.7162
24.2837,2.7096
24.2837,2.717
24.2858,2.7175
24.2867,2.6761
24.2886,1.6514
24.2894,2.0033
24.2904,2.7222
24.2927,2.4753
24.2937,2.5199
24.2958,1.6101
24.2968,1.5803
24.3057,1.5272
24.3128,1.6711
24.3187,2.7175
24.3197,2.7061
24.3217,2.7171
24.3237,2.7179
24.3277,2.7081
24.3297,1.6973
24.3297,1.8604
24.3307,2.7185
24.3307,2.4738
24.3317,1.6463
24.3317,1.5981
24.3317,1.5282
24.3317,1.6846
24.3327,2.7175
24.3327,2.717
24.3357,2.7175
24.3417,2.7175
24.3427,2.7185
24.3436,1.7432
24.3436,1.7479
24.3436,2.7196
24.3436,2.4441
24.3436,2.627
24.3447,1.567
24.3447,1.6277
24.3447,1.5285
24.3447,1.6771
24.3456,2.7168
24.3456,2.7168
24.3456,2.7164
24.3456,2.7168
24.3466,2.7177
24.3506,1.5265
24.3546,1.7656
24.3546,2.7186
24.3556,2.4241
24.3556,2.6781
24.3556,1.5527
24.3566,1.6746
24.3588,1.5334
24.3598,1.527
24.3618,2.7209
24.3628,2.7063
24.3697,2.7168
24.3707,2.7175
24.3707,2.7177
24.3707,1.5317
24.3717,1.6647
24.3717,2.7185
24.3728,2.3991
24.3748,1.7806
24.3758,1.5366
24.3768,1.581
24.3788,1.5299
24.3798,1.5267
24.3818,2.7166
24.3828,2.7078
24.3838,2.7173
24.3857,2.7179
24.3867,1.9876
24.3887,1.5323
24.3897,1.593
24.3918,2.71
24.3928,2.4503
24.3948,1.8201
24.3958,1.5396
24.3968,1.5709
24.3987,1.5304
24.3997,2.5178
24.4017,2.7179
24.4027,2.7031
24.4048,2.7173
24.4056,2.7177
24.4067,2.068
24.4087,1.5332
24.4098,1.5664
24.4127,2.6905
24.4187,2.6836
24.4257,1.9073
24.4267,1.5419
24.4267,1.5955
24.4277,1.5347
24.4287,2.4989
24.4287,2.7183
24.4297,2.705
24.4297,2.7171
24.4307,2.7175
24.4317,2.1503
24.4317,1.5368
24.4327,1.5184
24.4327,2.6016
24.4327,2.6112
24.4347,1.9801
24.4357,1.549
24.4377,1.5784
24.4387,1.5265
24.4397,2.4899
24.4417,2.7175
24.4427,2.7096
24.4448,2.7168
24.4457,2.7177
24.4474,2.2161
24.4485,1.5413
24.4494,1.5351
24.4518,2.6416
24.4528,2.5482
24.4548,2.0584
24.4558,1.5417
24.4578,1.5867
24.4588,1.5267
24.4598,2.2728
24.4618,2.7201
24.4628,2.7089
24.4648,2.7168
24.4658,2.7179
24.4678,2.2859
24.4686,1.5454
24.4697,1.5255
24.4716,2.6866
24.4727,2.4813
24.4747,2.14
24.4756,1.5464
24.4777,1.5422
24.4787,1.5267
24.4807,2.1944
24.4817,2.717
24.4827,2.7106
24.4847,2.717
24.4857,2.7173
24.4878,2.3425
24.4887,1.5527
24.4907,2.4068
24.4918,2.7115
24.4928,2.4449
24.4948,2.2133
24.4958,1.5516
24.4977,1.5449
24.4987,1.5259
24.5008,2.122
24.5018,2.7171
24.5028,2.7173
24.5048,2.717
24.5058,2.7177
24.5077,2.4143
24.5087,1.5642
24.5107,2.2887
24.5117,2.7177
24.5127,2.4091
24.5148,2.2771
24.5157,1.5687
24.5178,1.5565
24.5188,1.5265
24.5208,2.0751
24.5238,2.7183
24.5327,2.7168
24.5337,2.7175
24.5357,2.7179
24.5367,2.492
24.5367,1.5227
24.5367,2.2593
24.5367,2.717
24.5377,2.4166
24.5377,2.3551
24.5377,1.5621
24.5377,1.5606
24.5387,1.5267
24.5408,2.0667
24.5418,2.7059
24.5438,2.7168
24.5448,2.7171
24.5458,2.7173
24.5474,2.5598
24.5484,1.5229
24.5508,2.1919
24.5518,2.7188
24.5538,2.467
24.5548,1.581
24.5558,1.5456
24.5578,1.5647
24.5588,1.5265
24.5608,1.8917
24.5617,2.7074
24.5637,2.717
24.5647,2.7175
24.5657,2.7175
24.5677,1.6191
24.5687,1.5237
24.5707,2.1049
24.5717,2.7173
24.5738,2.4991
24.5747,1.5912
24.5757,1.5404
24.5777,1.6199
24.5787,1.5276
24.5807,2.7177
24.5817,2.707
24.5838,2.7171
24.5848,2.7171
24.5857,2.7175
24.5878,1.6463
24.5888,1.5248
24.5908,2.0123
24.5918,2.7194
24.5938,2.5167
24.5948,1.6047
24.5968,1.5387
24.5978,1.587
24.5988,1.5278
24.6008,2.7156
24.6018,2.7042
24.6028,2.717
24.6048,2.7173
24.6058,2.7177
24.6078,1.6836
24.6088,1.5267
24.6108,1.9696
24.6118,2.7183
24.6137,2.5923
24.6148,1.636
24.6157,1.5405
24.6177,1.582
24.6187,1.5276
24.6208,2.716
24.6217,2.705
24.6238,2.7162
24.6247,2.7173
24.6257,2.7177
24.6278,1.7316
24.6287,1.5272
24.6307,1.8728
24.6327,2.7177
24.6337,2.6446
24.6387,1.6681
24.6437,1.5462
24.6457,1.5889
24.6467,1.5284
24.6477,2.7186
24.6477,2.7158
24.6487,2.7162
24.6487,2.7173
24.6487,2.7177
24.6487,1.7952
24.6497,1.5287
24.6508,1.8034
24.6518,2.7201
24.6538,2.6823
24.6548,1.705
24.6558,1.5394
24.6578,1.5887
24.6588,1.5293
24.6608,2.7177
24.6618,2.7149
24.6628,2.7091
24.6648,2.7168
24.6658,2.7175
24.6678,1.8861
24.6687,1.5302
24.6708,1.7033
24.6718,2.7181
24.6728,2.6975
24.6747,1.7537
24.6757,1.5413
24.6778,1.5994
24.6787,1.5306
24.6797,2.6663
24.6817,2.7186
24.6827,2.704
24.6847,2.7166
24.6857,2.7177
24.6877,1.96
24.6887,1.5299
24.6908,1.6771
24.6917,2.7192
24.6928,2.707
24.6947,1.792
24.6957,1.5381
24.6974,1.5765
24.6985,1.5306
24.6994,2.5533
24.7017,2.7171
24.7027,2.7063
24.7047,2.7162
24.7057,2.7175
24.7077,2.0459
24.7087,1.5315
24.7097,1.582
24.7118,2.7048
24.7127,2.6864
24.7147,1.8664
24.7157,1.539
24.7178,1.576
24.7188,1.5317
24.7198,2.4816
24.7217,2.7168
24.7227,2.7051
24.7247,2.717
24.7257,2.7173
24.7267,2.1256
24.7288,1.5351
24.7298,1.5458
24.7317,2.66
24.7327,2.6373
24.7347,1.9904
24.7357,1.5415
24.7367,1.5936
24.7387,1.5368
24.7397,2.3721
24.7418,2.7151
24.7427,2.7066
24.7447,2.7171
24.7467,2.7177
24.7507,2.2028
24.7557,1.5398
24.7557,1.5231
24.7577,2.6108
24.7587,2.5746
24.7597,2.0549
24.7597,1.5447
24.7597,1.608
24.7597,1.5402
24.7607,2.3354
24.7617,2.7168
24.7628,2.7113
24.7647,2.7171
24.7657,2.717
24.7667,2.2664
24.7687,1.5452
24.7697,1.5349
24.7718,2.5703
24.7728,2.5178
24.7748,2.1031
24.7758,1.5437
24.7768,1.5805
24.7788,1.539
24.7798,2.1803
24.7817,2.7164
24.7827,2.7091
24.7847,2.7168
24.7858,2.7168
24.7867,2.3249
24.7888,1.5503
24.7898,1.5203
24.7918,2.4657
24.7928,2.4625
24.7937,2.1595
24.7957,1.5477
24.7967,1.5788
24.7988,1.5428
24.7998,2.1248
24.8018,2.7156
24.8027,2.7162
24.8037,2.717
24.8058,2.7173
24.8068,2.3933
24.8088,1.5614
24.8098,1.5222
24.8118,2.3453
24.8128,2.4308
24.8138,2.2664
24.8157,1.5559
24.8167,1.5645
24.8188,1.5535
24.8197,2.0911
24.8217,2.7181
24.8227,2.7046
24.8237,2.717
24.8257,2.7175
24.8267,2.4695
24.8288,1.5749
24.8297,1.5231
24.8318,2.2821
24.8328,2.4068
24.8338,2.3335
24.8358,1.5642
24.8368,1.5617
24.8388,1.5272
24.8398,1.9812
24.8407,2.7153
24.8428,2.7053
24.8438,2.7168
24.8458,2.7177
24.8468,2.54
24.8488,1.5897
24.8498,1.5254
24.8508,2.2171
24.8528,2.4573
24.8538,2.3871
24.8568,1.5758
24.8627,1.5419
24.8707,1.5267
24.8707,1.9032
24.8717,2.7164
24.8717,2.707
24.8717,2.7168
24.8717,2.7173
24.8727,2.602
24.8727,1.6133
24.8727,1.5248
24.8727,2.1889
24.8737,2.4925
24.8737,2.4514
24.8758,1.5964
24.8767,1.5424
24.8787,1.5274
24.8798,1.8867
24.8808,2.7162
24.8828,2.702
24.8838,2.717
24.8857,2.7177
24.8867,2.6496
24.8878,1.6371
24.8898,1.524
24.8908,2.1036
24.8928,2.4905
24.8938,2.5034
24.8957,1.6039
24.8968,1.5372
24.8978,1.5278
24.8998,1.6819
24.9008,2.7171
24.9028,2.7033
24.9038,2.7171
24.9058,2.7177
24.9067,2.6945
24.9077,1.6726
24.9098,1.5263
24.9107,2.0027
24.9128,2.4711
24.9138,2.5613
24.9158,1.6219
24.9167,1.537
24.9177,1.528
24.9198,1.6122
24.9207,2.7173
24.9228,2.7001
24.9237,2.7156
24.9257,2.7175
24.9268,2.7168
24.9278,1.7153
24.9298,1.5257
24.9308,2.7203
24.9328,2.4681
24.9338,2.624
24.9358,1.6474
24.9367,1.5415
24.9377,1.5282
24.9397,1.5327
24.9407,2.7158
24.9428,2.7143
24.9437,2.7162
24.9448,2.7168
24.9468,2.7175
24.9478,1.7755
24.9495,1.5263
24.9505,2.7186
24.9515,2.4441
24.9535,2.6615
24.9557,1.6979
24.9567,1.5387
24.9577,1.5276
24.9597,1.5263
24.9607,2.7136
24.9627,2.717
24.9638,2.716
24.9647,2.7168
24.9667,2.7173
24.9677,1.8563
24.9727,1.528
24.9787,2.7183
24.9797,2.4237
24.9817,2.6789
24.9827,1.7474
24.9827,1.5449
24.9827,1.5299
24.9827,1.5269
24.9837,2.7076
24.9837,2.7175
24.9837,2.7153
24.9847,2.7175
24.9867,2.7179
24.9877,1.9414
24.9897,1.5308
24.9907,2.7198
24.9927,2.4258
24.9938,2.7051
24.9947,1.7828
24.9968,1.5392
24.9977,1.531
24.9997,1.5265
25.0008,2.5289
25.0028,2.7183
25.0038,2.7168
25.0048,2.7175
25.0067,2.7179
25.0077,2.0281
25.0098,1.5321
25.0108,2.7134
25.0128,2.4903
25.0138,2.7147
25.0158,1.8482
25.0168,1.5383
25.0198,1.5269
25.0208,2.4794
25.0228,2.7029
25.0238,2.7162
25.0258,2.7168
25.0268,2.7177
25.0278,2.1038
25.0298,1.5527
25.0308,2.6834
25.0328,2.5566
25.0338,2.6541
25.0358,1.9652
25.0368,1.5902
25.0378,1.5345
25.0398,1.5261
25.0408,2.3751
25.0428,2.7014
25.0438,2.7171
25.0458,2.7168
25.0467,2.717
25.0477,2.182
25.0497,1.5471
25.0507,2.6399
25.0528,2.621
25.0537,2.5645
25.0558,1.5449
25.0567,1.5996
25.0577,1.5381
25.0598,1.5263
25.0607,2.3142
25.0628,2.7014
25.0638,2.7171
25.0658,2.7175
25.0668,2.7173
25.0678,2.2531
25.0698,1.5229
25.0707,2.5602
25.0728,2.662
25.0738,2.5081
25.0747,1.5443
25.0768,1.5959
25.0797,1.542
25.0917,1.5263
25.0947,2.2101
25.0957,2.7078
25.0957,2.7173
25.0957,2.7168
25.0957,2.7173
25.0967,2.3172
25.0967,1.5239
25.0967,2.5103
25.0967,2.708
25.0977,2.4665
25.0977,1.551
25.0977,1.5855
25.0987,1.5435
25.0997,1.5267
25.1007,2.2214
25.1028,2.7173
25.1037,2.7166
25.1047,2.717
25.1068,2.7177
25.1078,2.3757
25.1098,1.5233
25.1108,2.4038
25.1118,2.7203
25.1138,2.4363
25.1148,1.5557
25.1167,1.5531
25.1177,1.5404
25.1198,1.5265
25.1208,2.1183
25.1228,2.7021
25.1238,2.716
25.1248,2.717
25.1268,2.7175
25.1277,1.5702
25.1298,1.5239
25.1307,2.3031
25.1317,2.7203
25.1338,2.4181
25.1348,1.5644
25.1368,1.5574
25.1377,1.5533
25.1397,1.5269
25.1408,2.0234
25.1418,2.7038
25.1437,2.7158
25.1448,2.7166
25.1468,2.7175
25.1477,1.584
25.1499,1.522
25.1507,2.2143
25.1517,2.7183
25.1537,2.4441
25.1547,1.5715
25.1567,1.5471
25.1577,1.5872
25.1598,1.5269
25.1608,1.927
25.1617,2.7016
25.1637,2.7168
25.1647,2.7168
25.1668,2.717
25.1678,1.6035
25.1698,1.5212
25.1707,2.1514
25.1718,2.7183
25.1747,2.4938
25.1847,1.584
25.1877,1.5396
25.1887,1.5651
25.1887,1.5269
25.1887,1.8782
25.1887,2.7074
25.1887,2.717
25.1897,2.7166
25.1897,2.717
25.1907,1.627
25.1907,1.5252
25.1907,1.6613
25.1917,2.6851
25.1937,2.4826
25.1947,1.6112
25.1967,1.5398
25.1977,1.5825
25.1987,1.528
25.2007,1.8451
25.2017,2.7072
25.2037,2.7173
25.2047,2.7175
25.2067,2.7177
25.2077,1.6615
25.2087,1.5242
25.2107,1.9311
25.2116,2.7175
25.2137,2.4803
25.2146,1.629
25.2167,1.548
25.2176,1.5972
25.2186,1.5276
25.2206,2.7183
25.2216,2.7074
25.2236,2.7166
25.2246,2.717
25.2266,2.7177
25.2276,1.7071
25.2286,1.5285
25.2306,1.8241
25.2316,2.7201
25.2336,2.4561
25.2346,1.6611
25.2366,1.5486
25.2376,1.6022
25.2386,1.5285
25.2406,2.7166
25.2416,2.7128
25.2436,2.7173
25.2446,2.7171
25.2465,2.7173
25.2475,1.7564
25.2485,1.5282
25.2505,1.7594
25.2515,2.714
25.2535,2.4432
25.2545,1.684
25.2565,1.543
25.2575,1.5782
25.2585,1.5284
25.2605,2.7185
25.2615,2.7175
25.2635,2.717
25.2645,2.7171
25.2655,2.7171
25.2675,1.8331
25.2685,1.5297
25.2705,1.6799
25.2715,2.7181
25.2735,2.6639
25.2745,1.7288
25.2755,1.5415
25.2775,1.5799
25.2785,1.5293
25.2805,2.717
25.2815,2.7151
25.2835,2.7068
25.2845,2.7168
25.2884,2.7175
25.2944,1.9156
25.3014,1.5314
25.3034,1.611
25.3034,2.7173
25.3034,2.674
25.3044,1.771
25.3044,1.5512
25.3044,1.5818
25.3044,1.53
25.3054,2.7003
25.3054,2.7185
25.3054,2.7078
25.3054,2.7173
25.3054,2.7179
25.3077,2.0046
25.3087,1.5319
25.3108,1.4817
25.3117,2.6693
25.3137,2.7102
25.3147,1.8481
25.3157,1.5396
25.3177,1.5885
25.3187,1.5261
25.3208,2.5497
25.3218,2.7164
25.3237,2.7063
25.3248,2.717
25.3258,2.7175
25.3278,2.0856
25.3288,1.5332
25.3306,1.5237
25.3316,2.533
25.3336,2.6819
25.3348,1.9546
25.3367,1.5462
25.3377,1.5709
25.3387,1.5255
25.3408,2.4518
25.3418,2.716
25.3437,2.705
25.3447,2.717
25.3468,2.7173
25.3477,2.1672
25.3487,1.5374
25.3507,1.5306
25.3517,2.5968
25.3538,2.6075
25.3548,2.0125
25.3568,1.5407
25.3577,1.5332
25.3587,1.5259
25.3608,2.3056
25.3617,2.7164
25.3638,2.7057
25.3648,2.7171
25.3658,2.7173
25.3677,2.2394
25.3687,1.5426
25.3707,1.5224
25.3717,2.6525
25.3738,2.5478
25.3747,2.065
25.3767,1.5456
25.3778,1.5377
25.3787,1.5263
25.3806,2.2418
25.3816,2.7166
25.3837,2.717
25.3847,2.7175
25.3868,2.7175
25.3877,2.3065
25.3898,1.5494
25.3907,2.4573
25.3918,2.6888
25.3937,2.5036
25.3957,2.1413
25.3967,1.5477
25.4017,1.5458
25.4077,1.5265
25.4087,2.1516
25.4107,2.7171
25.4107,2.717
25.4107,2.7173
25.4107,2.7177
25.4117,2.3641
25.4117,1.5237
25.4117,2.4274
25.4117,2.7186
25.4137,2.443
25.4147,2.2221
25.4168,1.5683
25.4178,1.5467
25.4197,1.5267
25.4208,2.1366
25.4217,2.7153
25.4238,2.7171
25.4248,2.7173
25.4268,2.7177
25.4278,2.4323
25.4297,1.5222
25.4305,2.3101
25.4315,2.7198
25.4338,2.4169
25.4348,2.3104
25.4367,1.567
25.4376,1.5552
25.4397,1.5265
25.4408,2.0736
25.4428,2.7014
25.4438,2.7173
25.4448,2.7171
25.4468,2.7177
25.4478,2.5081
25.4497,1.5224
25.4507,2.245
25.4527,2.7179
25.4538,2.4087
25.4547,1.5702
25.4568,1.5518
25.4578,1.5595
25.4598,1.527
25.4608,1.9371
25.4628,2.6991
25.4636,2.717
25.4646,2.7171
25.4667,2.7175
25.4677,1.6009
25.4698,1.5233
25.4707,2.1904
25.4728,2.7196
25.4738,2.4875
25.4747,1.5816
25.4768,1.5383
25.4777,1.5719
25.4798,1.5278
25.4807,2.7156
25.4827,2.7016
25.4837,2.7171
25.4847,2.7175
25.4868,2.7179
25.4877,1.6242
25.4898,1.5261
25.4907,2.1153
25.4927,2.7175
25.4938,2.4745
25.4957,1.596
25.4967,1.5392
25.4977,1.5848
25.4997,1.5276
25.5007,2.7149
25.5028,2.6997
25.5038,2.7168
25.5058,2.7173
25.5068,2.6796
25.5117,1.6568
25.5137,1.5259
25.5187,2.0481
25.5207,2.7185
25.5217,2.5641
25.5217,1.6281
25.5217,1.5435
25.5217,1.5915
25.5227,1.7524
25.5227,2.7186
25.5227,2.7128
25.5237,2.7168
25.5257,2.7175
25.5268,2.7104
25.5277,1.696
25.5298,1.5255
25.5307,1.9754
25.5328,2.4704
25.5337,2.5711
25.5358,1.6561
25.5368,1.5469
25.5377,1.5872
25.5397,1.5921
25.5407,2.7185
25.5428,2.7048
25.5437,2.7156
25.5457,2.7175
25.5468,2.7179
25.5478,1.7483
25.5497,1.5259
25.5508,1.8606
25.5527,2.4573
25.5537,2.6504
25.5557,1.6819
25.5567,1.5407
25.5587,1.5282
25.5597,1.5272
25.5607,2.717
25.5628,2.7209
25.5638,2.7158
25.5657,2.7171
25.5667,2.7179
25.5687,1.813
25.5698,1.5267
25.5707,2.7185
25.5728,2.4256
25.5738,2.6669
25.5758,1.7119
25.5768,1.5411
25.5788,1.5289
25.5797,1.5265
25.5807,2.6766
25.5827,2.7164
25.5837,2.7168
25.5857,2.717
25.5867,2.7173
25.5887,1.9082
25.5897,1.5278
25.5907,2.7188
25.5927,2.3989
25.5937,2.687
25.5958,1.7693
25.5968,1.5857
25.5988,1.5304
25.5998,1.5259
25.6017,2.5814
25.6027,2.7164
25.6037,2.717
25.6057,2.717
25.6067,2.7173
25.6088,1.9941
25.6097,1.5944
25.6118,2.7147
25.6127,2.4633
25.6137,2.6933
25.6158,1.8385
25.6177,1.5876
25.6187,1.5319
25.6237,1.5263
25.6287,2.4981
25.6327,2.7066
25.6327,2.7175
25.6327,2.717
25.6327,2.717
25.6337,2.0839
25.6337,1.566
25.6337,2.6956
25.6337,2.5501
25.6347,2.6575
25.6358,1.5445
25.6368,1.5704
25.6388,1.531
25.6398,1.5263
25.6417,2.5146
25.6428,2.7053
25.6437,2.7173
25.6457,2.717
25.6467,2.717
25.6488,1.5353
25.6497,1.5398
25.6518,2.5964
25.6528,2.5994
25.6548,2.5919
25.6558,1.5405
25.6568,1.5782
25.6588,1.5334
25.6598,1.5263
25.6617,2.7168
25.6627,2.7065
25.6647,2.7166
25.6657,2.7168
25.6667,2.7175
25.6687,1.5415
25.6697,1.5224
25.6717,2.5838
25.6727,2.6493
25.6747,2.0851
25.6758,1.5437
25.6767,1.5839
25.6788,1.5359
25.6798,1.5259
25.6818,2.716
25.6828,2.707
25.6848,2.717
25.6857,2.7173
25.6867,2.2938
25.6888,1.546
25.6897,1.5167
25.6918,2.4886
25.6928,2.6935
25.6948,2.167
25.6958,1.548
25.6977,1.5874
25.6987,1.5409
25.6997,2.137
25.7017,2.7168
25.7027,2.7136
25.7047,2.7168
25.7057,2.7173
25.7077,2.3536
25.7088,1.5559
25.7098,1.5212
25.7118,2.3271
25.7128,2.4269
25.7147,2.2533
25.7157,1.5542
25.7178,1.5719
25.7188,1.5445
25.7198,2.1214
25.7217,2.7181
25.7247,2.7121
25.7257,2.7175
25.7277,2.4284
25.7297,1.5666
25.7337,1.5231
25.7397,2.7185
25.7407,2.4031
25.7427,2.2917
25.7427,1.5615
25.7427,1.5668
25.7427,1.5269
25.7437,2.1094
25.7437,2.7192
25.7437,2.7057
25.7449,2.7171
25.7457,2.7177
25.7472,2.4985
25.7482,1.5792
25.7502,1.5231
25.7518,2.7183
25.7528,2.4231
25.7548,2.3367
25.7558,1.5679
25.7578,1.5499
25.7588,1.5267
25.7608,1.9709
25.7618,2.7168
25.7628,2.705
25.7647,2.7171
25.7657,2.7175
25.7677,2.5694
25.7687,1.6011
25.7707,1.5231
25.7718,2.7179
25.7727,2.474
25.7748,2.4475
25.7757,1.5803
25.7777,1.5561
25.7787,1.5267
25.7805,1.8567
25.7818,2.7183
25.7828,2.707
25.7847,2.7173
25.7857,2.7177
25.7877,2.6315
25.7887,1.6227
25.7907,1.5242
25.7917,2.7188
25.7927,2.4908
25.7947,2.4923
25.7957,1.5955
25.7977,1.5794
25.7988,1.5274
25.7997,1.7545
25.8017,2.7164
25.8027,2.7078
25.8048,2.7173
25.8057,2.7173
25.8077,2.6763
25.8088,1.6544
25.8098,1.5254
25.8118,2.7183
25.8128,2.4775
25.8148,2.5356
25.8158,1.6095
25.8177,1.5857
25.8188,1.5278
25.8198,1.6924
25.8218,2.716
25.8228,2.7065
25.8247,2.7171
25.8257,2.7179
25.8278,2.7068
25.8288,1.6894
25.8298,1.5267
25.8318,2.7186
25.8328,2.4537
25.8348,2.5986
25.8358,1.6422
25.8378,1.5717
25.8398,1.5274
25.8418,1.5827
25.8457,2.7207
25.8517,2.7046
25.8517,2.7175
25.8527,2.7177
25.8547,2.7181
25.8557,1.7476
25.8557,1.5272
25.8557,2.7185
25.8557,2.4466
25.8557,2.6286
25.8567,1.666
25.8567,1.5932
25.8586,1.5289
25.8596,1.5769
25.8617,2.7153
25.8626,2.7162
25.8646,2.7166
25.8658,2.7179
25.8667,2.7181
25.8688,1.8246
25.8698,1.5287
25.8718,2.7188
25.8728,2.4194
25.8748,2.671
25.8752,1.6969
25.8762,1.582
25.8787,1.5295
25.8797,1.5276
25.8817,2.6849
25.8827,2.7162
25.8848,2.7173
25.8858,2.7179
25.8868,2.7181
25.8887,1.9006
25.8897,1.6546
25.8918,2.719
25.8928,2.4076
25.8948,2.6976
25.8957,1.7672
25.8967,1.5859
25.8987,1.5302
25.8997,1.5265
25.9017,2.5857
25.9027,2.7158
25.9037,2.717
25.9057,2.7177
25.9067,2.7177
25.9088,1.9857
25.9097,1.5912
25.9118,2.716
25.9128,2.4385
25.9138,2.6995
25.9158,1.8246
25.9168,1.5872
25.9188,1.5315
25.9198,1.5269
25.9218,2.504
25.9227,2.7185
25.9237,2.7164
25.9258,2.7171
25.9267,2.7183
25.9288,2.0673
25.9298,1.5518
25.9318,2.683
25.9327,2.5171
25.9337,2.6845
25.9357,1.9234
25.9367,1.5745
25.9389,1.5306
25.9397,1.5265
25.9417,2.434
25.9427,2.7012
25.9437,2.7168
25.9457,2.717
25.9467,2.717
25.9488,2.1454
25.9497,1.5458
25.9517,2.6395
25.9527,2.5887
25.9577,2.6198
25.9627,1.9808
25.9647,1.5874
25.9667,1.5345
25.9667,1.5269
25.9667,2.4216
25.9667,2.7066
25.9677,2.7171
25.9677,2.7171
25.9677,2.7171
25.9687,2.2208
25.9697,1.5248
25.9707,2.5833
25.9728,2.6363
25.9738,2.5465
25.9758,2.0926
25.9767,1.6067
25.9788,1.5409
25.9797,1.5267
25.9807,2.2388
25.9828,2.6988
25.9837,2.7171
25.9857,2.7173
25.9867,2.7171
25.9888,2.2879
25.9898,1.521
25.9908,2.4965
25.9927,2.6789
25.9937,2.489
25.9957,2.1518
25.9967,1.5975
25.9988,1.5469
25.9998,1.5267
26.0008,2.1574
26.0028,2.714
26.0037,2.7173
26.0058,2.7177
26.0068,2.7179
26.0088,2.3457
26.0097,1.5218
26.0107,2.3744
26.0127,2.7111
26.0137,2.4511
26.0158,1.5522
26.0167,1.5773
26.0187,1.5402
26.0198,1.5265
26.0208,2.119
26.0228,2.7083
26.0238,2.7171
26.0258,2.7177
26.0268,2.7177
26.0288,1.5647
26.0297,1.5231
26.0307,2.2848
26.0327,2.7181
26.0337,2.4139
26.0358,1.56
26.0367,1.57
26.0387,1.552
26.0397,1.527
26.0407,2.7164
26.0428,2.7003
26.0437,2.7175
26.0458,2.7175
26.0468,2.7177
26.0488,1.578
26.0498,1.5259
26.0517,2.221
26.0522,2.7183
26.0532,2.3515
26.0558,1.5672
26.0568,1.5552
26.0587,1.5606
26.0593,1.5269
26.0623,2.7156
26.0673,2.7044
26.0702,2.717
26.0722,2.7173
26.0732,2.5596
26.0752,1.5966
26.0752,1.5246
26.0762,2.1559
26.0762,2.7183
26.0762,2.4297
26.0762,1.5885
26.0772,1.5465
26.0787,1.5614
26.0797,1.9819
26.0817,2.7155
26.0828,2.7061
26.0837,2.7166
26.0858,2.7173
26.0868,2.6181
26.0888,1.6172
26.0898,1.5269
26.0908,2.0892
26.0927,2.5068
26.0947,2.4875
26.0957,1.5972
26.0967,1.5449
26.0987,1.581
26.0997,1.7888
26.1017,2.7181
26.1027,2.7068
26.1048,2.7171
26.1058,2.7175
26.1068,2.669
26.1088,1.6467
26.1098,1.5254
26.1117,2.0048
26.1127,2.4961
26.1147,2.533
26.1158,1.6073
26.1167,1.5381
26.1188,1.5282
26.1198,1.6591
26.1218,2.7158
26.1228,2.7025
26.1248,2.7173
26.1257,2.7179
26.1267,2.7046
26.1288,1.687
26.1297,1.5267
26.1317,2.7186
26.1327,2.4953
26.1347,2.584
26.1357,1.6386
26.1367,1.5396
26.1387,1.5282
26.1397,1.5944
26.1418,2.7158
26.1428,2.7048
26.1448,2.7173
26.1458,2.7177
26.1468,2.7181
26.1487,1.7382
26.1497,1.527
26.1518,2.7185
26.1528,2.4691
26.1548,2.6296
26.1558,1.6624
26.1568,1.5449
26.1588,1.5287
26.1597,1.5323
26.1618,2.7158
26.1627,2.7168
26.1648,2.7168
26.1657,2.7177
26.1667,2.7181
26.1688,1.8025
26.1698,1.5282
26.1718,2.7188
26.1787,2.4533
26.1847,2.6723
26.1867,1.6954
26.1867,1.5563
26.1867,1.5312
26.1867,1.5276
26.1877,2.7145
26.1877,2.7166
26.1877,2.7171
26.1877,2.7175
26.1887,2.7175
26.1887,1.8899
26.1897,1.5306
26.1917,2.7192
26.1928,2.4198
26.1938,2.699
26.1958,1.7573
26.1968,1.5396
26.1988,1.5314
26.1998,1.5269
26.2018,2.608
26.2028,2.7181
26.2038,2.717
26.2058,2.7179
26.2068,2.7179
26.2088,1.9784
26.2097,1.5319
26.2118,2.7158
26.2127,2.4513
26.2137,2.7074
26.2157,1.8211
26.2167,1.5404
26.2188,1.5321
26.2197,1.527
26.2218,2.5383
26.2228,2.716
26.2238,2.7171
26.2258,2.7177
26.2268,2.7177
26.2288,2.0592
26.2297,1.5345
26.2307,2.6892
26.2328,2.5043
26.2337,2.6952
26.2358,1.9306
26.2367,1.5413
26.2387,1.5314
26.2398,1.5269
26.2418,2.4228
26.2427,2.7158
26.2437,2.7166
26.2457,2.7177
26.2467,2.7177
26.2488,2.1447
26.2498,1.5372
26.2508,2.6489
26.2528,2.573
26.2537,2.6217
26.2558,1.9544
26.2567,1.5987
26.2588,1.536
26.2598,1.5269
26.2608,2.3348
26.2628,2.7164
26.2638,2.7162
26.2658,2.7173
26.2678,2.7181
26.2688,2.2124
26.2737,1.5409
26.2757,2.5902
26.2807,2.648
26.2807,2.5531
26.2807,2.044
26.2827,1.6
26.2827,1.5398
26.2837,1.5267
26.2837,2.3091
26.2837,2.7183
26.2837,2.7164
26.2857,2.7175
26.2867,2.7179
26.2887,2.2838
26.2898,1.5469
26.2908,2.5358
26.2928,2.6791
26.2938,2.465
26.2958,2.152
26.2968,1.5773
26.2978,1.5385
26.2998,1.527
26.3008,2.1408
26.3028,2.7162
26.3038,2.717
26.3058,2.7179
26.3068,2.7181
26.3078,2.3427
26.3098,1.5548
26.3108,2.3708
26.3128,2.7106
26.3138,2.4286
26.3157,2.2293
26.3168,1.5788
26.3177,1.5434
26.3197,1.5269
26.3207,2.1312
26.3228,2.7151
26.3237,2.717
26.3258,2.7175
26.3267,2.7179
26.3277,2.4147
26.3297,1.5233
26.3307,2.2988
26.3328,2.7183
26.3337,2.3946
26.3358,2.2926
26.3368,1.5788
26.3378,1.5597
26.3398,1.5274
26.3408,2.0487
26.3428,2.7198
26.3438,2.716
26.3448,2.717
26.3468,2.7175
26.3478,2.4875
26.3497,1.5231
26.3507,2.191
26.3528,2.7215
26.3538,2.4132
26.3557,2.3343
26.3567,1.558
26.3577,1.5555
26.3597,1.5269
26.3607,1.9581
26.3627,2.716
26.3638,2.7166
26.3647,2.7168
26.3668,2.7171
26.3678,2.5615
26.3698,1.522
26.3708,2.1589
26.3728,2.7186
26.3737,2.4475
26.3747,2.4061
26.3768,1.546
26.3787,1.5702
26.3847,1.5263
26.3907,1.8407
26.3927,2.7166
26.3927,2.7164
26.3927,2.7168
26.3927,2.7177
26.3927,2.6202
26.3937,1.525
26.3937,2.0933
26.3937,2.7207
26.3937,2.4805
26.3947,2.4826
26.3968,1.5486
26.3978,1.569
26.3997,1.5272
26.4008,1.8274
26.4018,2.7188
26.4038,2.7164
26.4048,2.7175
26.4068,2.7177
26.4078,2.6697
26.4098,1.525
26.4108,1.9804
26.4118,2.7213
26.4137,2.4786
26.4147,2.5536
26.4166,1.5479
26.4176,1.6041
26.4198,1.5284
26.4208,1.7635
26.4218,2.7033
26.4238,2.7162
26.4248,2.7175
26.4277,2.7177
26.4297,1.5269
26.4307,1.8812
26.4327,2.7203
26.4338,2.4745
26.4348,1.6392
26.4368,1.537
26.4378,1.602
26.4397,1.5284
26.4408,1.5972
26.4428,2.7068
26.4437,2.7158
26.4447,2.7164
26.4468,2.7173
26.4478,1.738
26.4497,1.5257
26.4507,1.8346
26.4528,2.72
26.4538,2.4554
26.4548,1.6759
26.4568,1.5377
26.4578,1.5857
26.4597,1.5284
26.4607,2.7156
26.4628,2.7181
26.4638,2.7168
26.4658,2.7168
26.4667,2.717
26.4677,1.8031
26.4697,1.525
26.4707,1.7356
26.4727,2.7186
26.4737,2.6733
26.4747,1.7312
26.4768,1.5469
26.4777,1.5949
26.4797,1.5293
26.4807,2.7164
26.4827,2.7188
26.4837,2.7072
26.4857,2.7166
26.4867,2.7173
26.4877,1.8925
26.4897,1.5272
26.4917,1.6564
26.4967,2.719
26.5017,2.6888
26.5027,1.7768
26.5037,1.5531
26.5057,1.5974
26.5057,1.5276
26.5057,2.696
26.5067,2.7179
26.5067,2.708
26.5067,2.7175
26.5067,2.7181
26.5077,1.9812
26.5097,1.5332
26.5107,1.5569
26.5127,2.4321
26.5137,2.7006
26.5157,1.8338
26.5168,1.5415
26.5178,1.5945
26.5197,1.5267
26.5207,2.5994
26.5228,2.7164
26.5238,2.7027
26.5258,2.7173
26.5268,2.7177
26.5278,2.0641
26.5297,1.533
26.5307,1.5919
26.5327,2.5056
26.5337,2.6926
26.5355,1.9304
26.5365,1.5424
26.5375,1.5334
26.5397,1.5269
26.5407,2.4706
26.5427,2.7168
26.5437,2.7044
26.5457,2.7177
26.5467,2.7175
26.5488,2.1466
26.5497,1.5372
26.5507,2.6438
26.5528,2.5664
26.5537,2.6337
26.5557,2.0297
26.5567,1.5437
26.5587,1.5338
26.5598,1.5272
26.5608,2.3361
26.5628,2.7162
26.5638,2.7175
26.5658,2.7175
26.5668,2.7181
26.5688,2.2169
26.5698,1.5415
26.5708,2.5505
26.5728,2.6234
26.5738,2.5731
26.5758,2.0658
26.5768,1.6185
26.5788,1.5419
26.5797,1.5267
26.5807,2.2311
26.5828,2.7162
26.5837,2.7164
26.5857,2.7173
26.5867,2.7181
26.5888,2.2868
26.5898,1.5216
26.5918,2.4651
26.5927,2.6785
26.5937,2.5103
26.5957,2.1338
26.5967,1.5981
26.5977,1.5419
26.6007,1.527
26.6027,2.1548
26.6027,2.7166
26.6077,2.7164
26.6117,2.7173
26.6147,2.7179
26.6147,2.3421
26.6157,1.5255
26.6157,2.3826
26.6157,2.7128
26.6157,2.4494
26.6167,2.2261
26.6167,1.611
26.6188,1.5544
26.6197,1.527
26.6217,2.1563
26.6228,2.7149
26.6238,2.716
26.6258,2.7168
26.6268,2.7181
26.6288,2.4098
26.6298,1.5235
26.6308,2.2932
26.6326,2.7185
26.6337,2.4226
26.6356,1.5647
26.6367,1.5887
26.6387,1.5587
26.6397,1.527
26.6417,2.1211
26.6427,2.7072
26.6437,2.716
26.6458,2.7166
26.6468,2.7179
26.6488,1.5752
26.6497,1.5233
26.6518,2.2107
26.6528,2.722
26.6548,2.422
26.6557,1.5655
26.6567,1.5773
26.6588,1.5649
26.6598,1.5274
26.6617,2.7168
26.6627,2.7072
26.6647,2.7164
26.6657,2.7166
26.6667,2.7173
26.6688,1.5925
26.6698,1.5229
26.6718,2.1486
26.6728,2.7188
26.6747,2.4359
26.6758,1.5822
26.6768,1.5509
26.6788,1.5632
26.6798,1.5265
26.6818,2.7164
26.6828,2.7098
26.6848,2.717
26.6858,2.7171
26.6868,2.6166
26.6887,1.6152
26.6897,1.5225
26.6917,2.0492
26.6927,2.7188
26.6937,2.4942
26.6957,1.5989
26.6967,1.5404
26.6988,1.5734
26.6997,1.7939
26.7017,2.7183
26.7027,2.7055
26.7047,2.7171
26.7057,2.7173
26.7078,2.6643
26.7087,1.6433
26.7097,1.5244
26.7118,1.9546
26.7137,2.4998
26.7157,2.5711
26.7197,1.633
26.7247,1.5464
26.7257,1.6094
26.7277,1.7479
26.7277,2.7164
26.7287,2.7038
26.7287,2.717
26.7287,2.7177
26.7287,2.7021
26.7297,1.6836
26.7297,1.5252
26.7318,1.8985
26.7328,2.4852
26.7348,2.5593
26.7358,1.6343
26.7368,1.5454
26.7388,1.5855
26.7398,1.635
26.7417,2.7164
26.7427,2.7068
26.7448,2.7166
26.7458,2.717
26.7468,2.7175
26.7488,1.7322
26.7498,1.5248
26.7518,1.7453
26.7528,2.4747
26.7548,2.6442
26.7558,1.6636
26.7568,1.5411
26.7588,1.5908
26.7598,1.5295
26.7618,2.7162
26.7627,2.7166
26.7637,2.717
26.7658,2.7171
26.7668,2.7177
26.7687,1.8006
26.7697,1.5255
26.7718,1.7363
26.7728,2.4486
26.7748,2.6757
26.7758,1.7125
26.7768,1.5439
26.7788,1.5944
26.7798,1.5265
26.7817,2.6918
26.7828,2.7162
26.7837,2.7083
26.7858,2.7171
26.7868,2.7171
26.7888,1.8865
26.7898,1.5285
26.7918,1.6621
26.7927,2.4282
26.7937,2.7074
26.7957,1.7772
26.7967,1.5435
26.7986,1.5715
26.7997,1.5267
26.8018,2.6298
26.8027,2.7166
26.8037,2.705
26.8057,2.7177
26.8067,2.7175
26.8088,1.9731
26.8098,1.531
26.8117,1.5895
26.8128,2.4541
26.8137,2.7115
26.8158,1.846
26.8167,1.548
26.8187,1.5895
26.8198,1.527
26.8208,2.5405
26.8228,2.7162
26.8257,2.7025
26.8297,2.7173
26.8367,2.7181
26.8367,2.0554
26.8377,1.5353
26.8377,1.5867
26.8377,2.5101
26.8377,2.6817
26.8387,1.8887
26.8387,1.5435
26.8387,1.5767
26.8397,1.5265
26.8407,2.5557
26.8428,2.7173
26.8438,2.7048
26.8458,2.7175
26.8468,2.7175
26.8488,2.1363
26.8498,1.536
26.8508,1.5186
26.8528,2.584
26.8538,2.6296
26.8558,1.9926
26.8567,1.5402
26.8588,1.5344
26.8598,1.5265
26.8608,2.3534
26.8627,2.7149
26.8637,2.7033
26.8658,2.7175
26.8667,2.7177
26.8688,2.2229
26.8697,1.5413
26.8707,1.5239
26.8727,2.6333
26.8737,2.5634
26.8757,2.08
26.8768,1.5447
26.8777,1.5379
26.8797,1.527
26.8807,2.2504
26.8827,2.7181
26.8837,2.7063
26.8858,2.7179
26.8868,2.7179
26.8877,2.2812
26.8898,1.5465
26.8907,1.518
26.8927,2.6832
26.8937,2.5122
26.8957,2.1569
26.8968,1.5471
26.8978,1.5477
26.8998,1.5272
26.9007,2.1548
26.9028,2.7179
26.9038,2.7098
26.9058,2.7177
26.9068,2.7181
26.9078,2.3403
26.9097,1.5542
26.9107,1.5224
26.9127,2.7111
26.9137,2.4635
26.9147,2.2051
26.9167,1.552
26.9177,1.5452
26.9197,1.5267
26.9207,2.1239
26.9228,2.7177
26.9237,2.7168
26.9257,2.7177
26.9268,2.7179
26.9278,2.4124
26.9298,1.5659
26.9308,1.5231
26.9338,2.7183
26.9427,2.4228
26.9447,2.2671
26.9457,1.564
26.9457,1.5565
26.9457,1.5272
26.9467,2.1177
26.9467,2.7194
26.9467,2.7089
26.9477,2.7175
26.9477,2.7175
26.9477,2.483
26.9497,1.5767
26.9507,1.5237
26.9527,2.7183
26.9538,2.4079
26.9548,2.3549
26.9568,1.5717
26.9578,1.5522
26.9597,1.5269
26.9607,1.9619
26.9628,2.7171
26.9637,2.7053
26.9647,2.7171
26.9667,2.7181
26.9677,2.5651
26.9698,1.5975
26.9708,2.1998
26.9728,2.7183
26.9738,2.4616
26.9748,2.3967
26.9768,1.5773
26.9778,1.5917
26.9798,1.5274
26.9807,1.8749
26.9817,2.7156
26.9838,2.7096
26.9848,2.7173
26.9867,2.7173
26.9877,2.6163
26.9897,1.6165
26.9907,2.1246
26.9917,2.7179
26.9938,2.5088
26.9948,2.4839
26.9967,1.5966
26.9977,1.5779
26.9998,1.527
27.0008,1.7828
27.0018,2.717
27.0038,2.705
27.0048,2.7171
27.0068,2.7179
27.0078,2.666
27.0098,1.6454
27.0108,2.0243
27.0118,2.7192
27.0138,2.4933
27.0148,2.5323
27.0168,1.6206
27.0177,1.5925
27.0197,1.5278
27.0208,1.7241
27.0218,2.7179
27.0237,2.7055
27.0247,2.7175
27.0267,2.7179
27.0277,2.7006
27.0287,1.6821
27.0308,1.9077
27.0318,2.72
27.0338,2.4884
27.0348,2.5917
27.0368,1.6454
27.0378,1.5784
27.0388,1.5278
27.0408,1.5882
27.0418,2.7175
27.0438,2.7078
27.0458,2.7173
27.0507,2.7175
27.0527,2.7181
27.0567,1.7335
27.0587,1.8779
27.0597,2.7198
27.0607,2.4625
27.0607,2.639
27.0607,1.6733
27.0607,1.5889
27.0607,1.5285
27.0617,1.5522
27.0617,2.7186
27.0637,2.7171
27.0647,2.7173
27.0667,2.7177
27.0678,2.7175
27.0688,1.8091
27.0708,1.7339
27.0718,2.7171
27.0738,2.4458
27.0748,2.6828
27.0769,1.7127
27.0777,1.5786
27.0787,1.5285
27.0803,1.5267
27.0813,2.7096
27.0834,2.7087
27.0843,2.7171
27.0853,2.7175
27.0877,2.7175
27.0887,1.8786
27.0908,1.6579
27.0917,2.7196
27.0937,2.4154
27.0948,2.6905
27.0958,1.7657
27.0977,1.5769
27.0987,1.5304
27.1008,1.527
27.1017,2.6172
27.1037,2.7055
27.1048,2.7171
27.1058,2.7175
27.1078,2.7181
27.1088,1.9658
27.1107,1.6056
27.1117,2.7177
27.1127,2.4363
27.1148,2.7151
27.1158,1.8316
27.1168,1.59
27.1188,1.5317
27.1207,1.5272
27.1217,2.5445
27.1237,2.705
27.1248,2.7173
27.1258,2.7177
27.1278,2.7181
27.1287,2.0511
27.1307,1.5756
27.1338,2.5073
27.1348,2.7053
27.1368,1.5392
27.1378,1.5975
27.1388,1.5344
27.1408,1.5272
27.1417,2.7151
27.1438,2.7076
27.1448,2.7173
27.1468,2.7179
27.1477,2.7179
27.1487,1.5372
27.1508,1.5569
27.1517,2.6645
27.1538,2.5724
27.1548,2.6234
27.1568,1.5402
27.1578,1.5741
27.1627,1.5332
27.1657,1.5272
27.1687,2.717
27.1697,2.7066
27.1717,2.7173
27.1727,2.7175
27.1727,2.7181
27.1727,1.5428
27.1727,1.5334
27.1727,2.602
27.1737,2.6378
27.1747,2.0391
27.1757,1.5557
27.1777,1.578
27.1787,1.5349
27.1802,1.5276
27.1812,2.7156
27.1837,2.7046
27.1847,2.7175
27.1857,2.7173
27.1878,2.7181
27.1887,1.5512
27.1907,1.5325
27.1917,2.4961
27.1938,2.6759
27.1948,2.1672
27.1957,1.5539
27.1977,1.5921
27.1987,1.5381
27.2007,1.5276
27.2017,2.7156
27.2037,2.7053
27.2048,2.717
27.2057,2.7177
27.2077,2.7181
27.2087,1.5567
27.2108,1.524
27.2118,2.4396
27.2136,2.7087
27.2147,2.2323
27.2157,1.5561
27.2177,1.5775
27.2187,1.5419
27.2208,1.5269
27.2217,2.7151
27.2238,2.7155
27.2247,2.7162
27.2257,2.7179
27.2278,2.7177
27.2288,1.5659
27.2308,1.5242
27.2317,2.3211
27.2328,2.7205
27.2347,2.2973
27.2358,1.5645
27.2378,1.5689
27.2388,1.545
27.2408,1.5272
27.2417,2.7205
27.2427,2.7027
27.2448,2.7158
27.2458,2.7168
27.2478,2.7179
27.2488,1.5771
27.2508,1.5235
27.2518,2.2503
27.2528,2.7183
27.2548,2.3344
27.2558,1.5707
27.2578,1.5599
27.2588,1.5546
27.2607,1.5269
27.2618,2.716
27.2628,2.7031
27.2648,2.717
27.2668,2.7173
27.2717,2.5595
27.2737,1.5953
27.2777,1.5233
27.2787,2.1619
27.2807,2.7185
27.2817,2.4102
27.2817,1.5927
27.2817,1.5595
27.2817,1.5702
27.2827,1.5278
27.2827,2.7164
27.2827,2.7066
27.2848,2.7162
27.2857,2.717
27.2878,2.6151
27.2887,1.6144
27.2897,1.5233
27.2918,2.0961
27.2928,2.7185
27.2948,2.4818
27.2958,1.5962
27.2977,1.5495
27.2987,1.5797
27.2997,1.5278
27.3018,2.7166
27.3028,2.7048
27.3048,2.717
27.3058,2.7179
27.3078,2.6691
27.3088,1.6471
27.3098,1.5248
27.3117,2.0048
27.3127,2.7185
27.3147,2.537
27.3157,1.6133
27.3177,1.5469
27.3188,1.5917
27.3198,1.5276
27.3218,2.7179
27.3228,2.7059
27.3247,2.7173
27.3257,2.7175
27.3278,2.7033
27.3287,1.6849
27.3297,1.5255
27.3317,1.9279
27.3327,2.7173
27.3347,2.5574
27.3357,1.6311
27.3377,1.5432
27.3388,1.5857
27.3398,1.6154
27.3418,2.7175
27.3428,2.7063
27.3447,2.7175
27.3458,2.7173
27.3468,2.7181
27.3487,1.7367
27.3497,1.527
27.3517,1.8319
27.3527,2.7196
27.3548,2.6549
27.3558,1.6801
27.3578,1.5482
27.3588,1.5696
27.3598,1.5285
27.3617,2.7166
27.3627,2.72
27.3648,2.7171
27.3657,2.7175
27.3667,2.7183
27.3687,1.7995
27.3697,1.5285
27.3717,1.7693
27.3727,2.719
27.3747,2.687
27.3757,1.7114
27.3777,1.5505
27.3817,1.6292
27.3867,1.5278
27.3887,2.717
27.3887,2.7186
27.3897,2.711
27.3897,2.7173
27.3897,2.7181
27.3897,1.8841
27.3907,1.5304
27.3918,1.6742
27.3927,2.4329
27.3947,2.7065
27.3958,1.7699
27.3968,1.5469
27.3988,1.5921
27.3998,1.5272
27.4017,2.6678
27.4027,2.7166
27.4047,2.7055
27.4058,2.7171
27.4067,2.7179
27.4088,1.9671
27.4097,1.5312
27.4118,1.576
27.4127,2.4314
27.4148,2.7093
27.4158,1.8175
27.4168,1.543
27.4187,1.6101
27.4197,1.5269
27.4217,2.5775
27.4227,2.719
27.4237,2.7042
27.4257,2.7177
27.4267,2.7179
27.4287,2.0549
27.4297,1.5336
27.4318,1.5383
27.4327,2.504
27.4347,2.7164
27.4358,1.9092
27.4368,1.5445
27.4387,1.5321
27.4397,1.5278
27.4418,2.4531
27.4427,2.7166
27.4447,2.7068
27.4458,2.7175
27.4468,2.7179
27.4487,2.1349
27.4497,1.5375
27.4517,2.6225
27.4527,2.5673
27.4548,2.6648
27.4558,1.9622
27.4568,1.5449
27.4588,1.5383
27.4598,1.5276
27.4618,2.3714
27.4628,2.7173
27.4647,2.7173
27.4657,2.7175
27.4677,2.7179
27.4687,2.2099
27.4707,1.542
27.4757,2.57
27.4817,2.6343
27.4827,2.5829
27.4847,2.0498
27.4847,1.606
27.4847,1.5385
27.4847,1.527
27.4857,2.344
27.4857,2.7192
27.4857,2.7173
27.4857,2.7175
27.4878,2.7177
27.4887,2.2818
27.4897,1.525
27.4918,2.492
27.4928,2.677
27.4948,2.533
27.4957,2.1184
27.4968,1.5788
27.4988,1.5375
27.4998,1.5267
27.5018,2.2049
27.5028,2.7111
27.5048,2.7177
27.5058,2.7177
27.5077,2.7177
27.5087,2.3352
27.5097,1.5229
27.5117,2.4085
27.5127,2.707
27.5147,2.4852
27.5157,2.2099
27.5178,1.6185
27.5188,1.5567
27.5207,1.5278
27.5218,2.1271
27.5228,2.717
27.5247,2.7171
27.5257,2.7173
27.5278,2.7177
27.5288,2.4051
27.5307,1.5237
27.5318,2.3183
27.5328,2.7192
27.5348,2.4561
27.5358,1.5597
27.5377,1.6095
27.5387,1.5719
27.5407,1.5278
27.5418,2.0954
27.5428,2.7025
27.5447,2.7168
27.5457,2.7173
27.5478,2.7179
27.5488,1.579
27.5508,1.5242
27.5517,2.2443
27.5527,2.7188
27.5548,2.4321
27.5558,1.5704
27.5578,1.5659
27.5588,1.5604
27.5608,1.5276
27.5618,2.7158
27.5628,2.7027
27.5648,2.717
27.5658,2.7173
27.5678,2.7181
27.5688,1.5947
27.5708,1.5244
27.5717,2.2053
27.5727,2.7173
27.5748,2.4121
27.5758,1.5827
27.5778,1.5531
27.5788,1.5775
27.5808,1.5278
27.5827,2.7153
27.5837,2.7027
27.5887,2.7162
27.5937,2.7171
27.5947,2.6125
27.5967,1.6169
27.5967,1.5269
27.5977,2.1141
27.5977,2.7183
27.5977,2.5071
27.5977,1.6052
27.5987,1.5525
27.5987,1.611
27.6008,1.8811
27.6017,2.7147
27.6038,2.7029
27.6047,2.7166
27.6057,2.7173
27.6078,2.663
27.6088,1.6431
27.6108,1.5255
27.6118,2.0568
27.6128,2.5002
27.6148,2.5508
27.6158,1.6227
27.6178,1.5638
27.6188,1.6319
27.6207,1.7759
27.6217,2.7151
27.6237,2.6984
27.6248,2.7164
27.6267,2.7177
27.6278,2.7001
27.6288,1.6812
27.6302,1.5257
27.6312,1.9607
27.6337,2.4893
27.6347,2.5746
27.6367,1.6367
27.6378,1.5428
27.6382,1.5289
27.6408,1.6352
27.6418,2.7166
27.6438,2.7008
27.6448,2.716
27.6468,2.7177
27.6478,2.7186
27.6488,1.7301
27.6507,1.5272
27.6518,2.7175
27.6538,2.4747
27.6548,2.6343
27.6568,1.6737
27.6577,1.5443
27.6587,1.5297
27.6607,1.5312
27.6617,2.72
27.6636,2.7166
27.6646,2.7164
27.6666,2.7173
27.6676,2.7179
27.6686,1.7935
27.6705,1.5272
27.6715,2.7192
27.6735,2.4451
27.6746,2.678
27.6765,1.7286
27.6776,1.6227
27.6795,1.5314
27.6805,1.5428
27.6815,2.7186
27.6835,2.7185
27.6845,2.7173
27.6865,2.7179
27.6875,2.7171
27.6885,1.8782
27.6905,1.7031
27.6915,2.7181
27.6935,2.4224
27.6965,2.687
27.7015,1.7744
27.7084,1.6452
27.7124,1.534
27.7124,1.5274
27.7124,2.7044
27.7124,2.7083
27.7134,2.7171
27.7134,2.7171
27.7144,2.7173
27.7154,1.9667
27.7154,1.6092
27.7154,2.7128
27.7164,2.4374
27.7164,2.6845
27.7174,1.563
27.7174,1.6062
27.7194,1.5325
27.7204,1.5272
27.7214,2.7164
27.7234,2.7106
27.7244,2.7175
27.7264,2.7171
27.7274,2.7175
27.7284,2.0485
27.7304,1.5437
27.7314,2.6943
27.7334,2.5171
27.7344,2.6645
27.7364,1.5555
27.7374,1.5979
27.7384,1.5338
27.7404,1.5274
27.7414,2.6699
27.7434,2.711
27.7443,2.7168
27.7463,2.7175
27.7473,2.7179
27.7483,2.1329
27.7503,1.5357
27.7513,2.6305
27.7533,2.5866
27.7543,2.6174
27.7553,1.5574
27.7573,1.6311
27.7583,1.5398
27.7603,1.5274
27.7613,2.5786
27.7633,2.7104
27.7643,2.7171
27.7663,2.7175
27.7673,2.7179
27.7683,2.2114
27.7703,1.5083
27.7713,2.5431
27.7733,2.647
27.7743,2.546
27.7753,1.5552
27.7773,1.6347
27.7783,1.5415
27.7803,1.5272
27.7813,2.473
27.7832,2.708
27.7842,2.7173
27.7852,2.7179
27.7872,2.7179
27.7892,2.2791
27.7902,1.4742
27.7912,2.3931
27.7932,2.6911
27.7942,2.4852
27.7952,1.5604
27.7972,1.6298
27.7982,1.5443
27.8002,1.5274
27.8012,2.3221
27.8052,2.7108
27.8092,2.7162
27.8162,2.7168
27.8261,2.7175
27.8281,1.5554
27.8291,1.512
27.8301,2.3022
27.8301,2.7188
27.8311,2.4462
27.8321,1.5685
27.8321,1.6274
27.8321,1.5503
27.8331,1.5282
27.8331,2.3283
27.8341,2.7175
27.8341,2.7171
27.8351,2.7177
27.8351,2.7183
27.8351,1.5653
27.8361,1.5242
27.8361,2.1807
27.8361,2.6871
27.8371,2.3958
27.8371,1.5771
27.8381,1.5535
27.8401,1.5274
27.8411,2.7155
27.8431,2.71
27.8441,2.7173
27.8461,2.717
27.8481,2.717
27.8481,1.578
27.8501,1.5246
27.8511,1.9013
27.8531,2.7185
27.8541,2.3804
27.8561,1.5915
27.8570,1.6082
27.8580,1.5805
27.8600,1.5278
27.8620,2.7198
27.8630,2.7042
27.8650,2.7171
27.8660,2.7175
27.8670,2.5555
27.8690,1.5981
27.8700,1.524
27.8720,2.1014
27.8730,2.7209
27.8750,2.3995
27.8760,1.5974
27.8770,1.5765
27.8780,1.5837
27.8810,2.0444
27.8820,2.7175
27.8830,2.7106
27.8850,2.717
27.8860,2.7173
27.8880,2.6142
27.8890,1.6176
27.8910,1.5254
27.8920,1.9577
27.8930,2.501
27.8949,2.4809
27.8959,1.6225
27.8979,1.5672
27.8989,1.5917
27.9009,2.0434
27.9019,2.7175
27.9039,2.7113
27.9049,2.717
27.9059,2.7179
27.9079,2.6624
27.9089,1.6446
27.9109,1.5272
27.9119,1.8713
27.9149,2.4948
27.9309,2.5126
27.9408,1.6352
27.9428,1.5634
27.9458,1.5284
27.9458,1.9268
27.9468,2.7181
27.9468,2.7081
27.9478,2.7171
27.9478,2.7181
27.9488,2.7014
27.9488,1.6821
27.9498,1.5269
27.9498,2.7175
27.9508,2.4845
27.9508,2.5827
27.9508,1.6591
27.9518,1.5584
27.9518,1.5289
27.9528,1.834
27.9528,2.7175
27.9528,2.7081
27.9538,2.7177
27.9538,2.7179
27.9538,2.7173
27.9548,1.7324
27.9548,1.5272
27.9548,2.7188
27.9558,2.4627
27.9558,2.6335
27.9568,1.6997
27.9578,1.5602
27.9598,1.5293
27.9608,1.7243
27.9618,2.7158
27.9638,2.7207
27.9648,2.7164
27.9668,2.7173
27.9678,2.7181
27.9697,1.7954
27.9707,1.5289
27.9717,2.7207
27.9737,2.4488
27.9747,2.6538
27.9767,1.7382
27.9777,1.6017
27.9797,1.5295
27.9807,1.6319
27.9827,2.7181
27.9837,2.7138
27.9847,2.7175
27.9867,2.7179
27.9877,2.7179
27.9897,1.8826
27.9907,1.545
27.9927,2.7136
27.9937,2.4183
27.9947,2.6791
27.9967,1.5576
27.9977,1.6011
27.9997,1.5314
28.0007,1.5454
28.0027,2.7179
28.0037,2.7098
28.0047,2.7175
28.0066,2.7175
28.0076,2.7181
28.0096,1.5329
28.0106,1.5285
28.0126,2.6903
28.0136,2.4511
28.0146,2.6886
28.0166,1.5649
28.0176,1.6232
28.0196,1.5329
28.0206,1.5295
28.0226,2.7181
28.0266,2.7108
28.0346,2.7171
28.0435,2.7179
28.0455,2.7171
28.0495,1.5345
28.0495,1.4963
28.0495,2.6485
28.0505,2.5075
28.0505,2.6751
28.0505,1.5559
28.0515,1.5992
28.0515,1.5334
28.0525,1.5274
28.0525,2.719
28.0525,2.7106
28.0535,2.7166
28.0535,2.7171
28.0535,2.7179
28.0545,1.5387
28.0545,1.4554
28.0545,2.1417
28.0555,2.5709
28.0555,2.0069
28.0565,1.5559
28.0575,1.6088
28.0595,1.5359
28.0605,1.5274
28.0625,2.7185
28.0635,2.7117
28.0655,2.7173
28.0665,2.7175
28.0675,2.2109
28.0695,1.5441
28.0705,1.4575
28.0725,2.4201
28.0735,2.6234
28.0755,2.086
28.0765,1.5597
28.0775,1.6114
28.0795,1.5387
28.0804,2.4775
28.0824,2.7158
28.0834,2.7173
28.0854,2.7173
28.0864,2.7171
28.0874,2.2741
28.0894,1.5471
28.0904,1.4903
28.0924,2.4229
28.0934,2.5173
28.0954,2.1316
28.0964,1.5591
28.0984,1.6268
28.0994,1.5458
28.1004,2.3961
28.1024,2.7171
28.1034,2.711
28.1054,2.717
28.1064,2.7181
28.1084,2.3326
28.1094,1.5561
28.1104,1.512
28.1124,2.281
28.1134,2.4708
28.1154,2.2193
28.1164,1.5675
28.1183,1.6204
28.1193,1.528
28.1203,2.3097
28.1223,2.7185
28.1233,2.7181
28.1253,2.7168
28.1263,2.7175
28.1283,2.3991
28.1293,1.5649
28.1303,1.5222
28.1323,2.7201
28.1363,2.4331
28.1453,2.299
28.1543,1.5771
28.1582,1.6101
28.1592,1.5278
28.1592,2.1854
28.1592,2.7186
28.1602,2.708
28.1602,2.7173
28.1602,2.7175
28.1602,2.4792
28.1612,1.5775
28.1612,1.5214
28.1612,2.7173
28.1612,2.4074
28.1622,2.3221
28.1622,1.5839
28.1622,1.5938
28.1632,1.5276
28.1632,2.1151
28.1642,2.716
28.1642,2.7095
28.1652,2.7162
28.1662,2.7177
28.1672,2.5482
28.1692,1.5942
28.1702,1.527
28.1722,2.7205
28.1732,2.4381
28.1752,2.3986
28.1762,1.5925
28.1772,1.5698
28.1792,1.5278
28.1812,2.0477
28.1822,2.7177
28.1832,2.7091
28.1852,2.7171
28.1862,2.717
28.1882,2.6065
28.1892,1.6131
28.1902,1.5248
28.1921,2.7185
28.1931,2.4981
28.1941,2.4574
28.1961,1.6112
28.1971,1.5587
28.1991,1.528
28.2001,2.0099
28.2021,2.7156
28.2031,2.707
28.2041,2.717
28.2061,2.7171
28.2071,2.6616
28.2091,1.6429
28.2101,1.5255
28.2121,2.7186
28.2131,2.4935
28.2141,2.5221
28.2161,1.6328
28.2171,1.5567
28.2191,1.528
28.2201,1.9159
28.2221,2.7156
28.2231,2.7089
28.2241,2.7156
28.2261,2.7175
28.2271,2.6991
28.2291,1.6793
28.2300,1.5263
28.2320,2.7201
28.2330,2.4785
28.2340,2.5512
28.2360,1.6566
28.2370,1.5681
28.2390,1.5285
28.2410,1.8235
28.2420,2.7183
28.2430,2.7117
28.2480,2.716
28.2550,2.7175
28.2640,2.7181
28.2660,1.7288
28.2689,1.5282
28.2699,2.7198
28.2699,2.4612
28.2709,2.6105
28.2709,1.6851
28.2709,1.5621
28.2719,1.5299
28.2719,1.7269
28.2729,2.7177
28.2729,2.7213
28.2729,2.7166
28.2739,2.7177
28.2739,2.7181
28.2749,1.7882
28.2749,1.5284
28.2749,2.7213
28.2759,2.434
28.2759,2.6618
28.2759,1.7301
28.2779,1.5585
28.2789,1.531
28.2809,1.6234
28.2819,2.7222
28.2839,2.7171
28.2849,2.7132
28.2859,2.7179
28.2879,2.7175
28.2889,1.8728
28.2909,1.5297
28.2919,2.7171
28.2939,2.4179
28.2949,2.6729
28.2959,1.7669
28.2979,1.5554
28.2989,1.5315
28.3009,1.5434
28.3019,2.717
28.3039,2.7158
28.3048,2.7173
28.3058,2.7181
28.3078,2.7173
28.3088,1.9594
28.3108,1.5312
28.3118,2.7008
28.3138,2.4289
28.3148,2.6761
28.3158,1.8244
28.3178,1.5563
28.3188,1.5312
28.3208,1.5272
28.3218,2.7029
28.3238,2.7158
28.3248,2.7171
28.3258,2.7164
28.3278,2.7175
28.3288,2.0442
28.3308,1.5332
28.3318,2.6511
28.3338,2.5161
28.3348,2.6772
28.3358,1.9011
28.3378,1.552
28.3388,1.5347
28.3408,1.527
28.3418,2.6643
28.3437,2.7188
28.3447,2.7164
28.3457,2.7173
28.3477,2.7175
28.3487,2.1269
28.3507,1.5366
28.3537,2.5745
28.3577,2.5902
28.3647,2.6217
28.3747,1.9808
28.3767,1.5494
28.3777,1.5372
28.3787,1.527
28.3787,2.5745
28.3787,2.7205
28.3796,2.716
28.3796,2.7173
28.3806,2.7179
28.3806,2.2058
28.3816,1.5415
28.3816,2.4509
28.3816,2.6444
28.3826,2.558
28.3826,2.0277
28.3826,1.5527
28.3836,1.5398
28.3836,1.5272
28.3836,2.4623
28.3846,2.72
28.3846,2.7171
28.3856,2.7175
28.3876,2.7183
28.3886,2.2754
28.3906,1.5492
28.3916,2.4132
28.3926,2.6924
28.3946,2.492
28.3956,2.1123
28.3976,1.5576
28.3986,1.5417
28.4006,1.5274
28.4016,2.3569
28.4026,2.72
28.4046,2.717
28.4056,2.7177
28.4076,2.7181
28.4086,2.3339
28.4106,1.554
28.4116,2.2773
28.4126,2.7143
28.4146,2.4409
28.4156,2.2103
28.4175,1.6101
28.4185,1.5495
28.4205,1.5278
28.4215,2.2833
28.4225,2.716
28.4245,2.7171
28.4255,2.7175
28.4275,2.7179
28.4285,2.4055
28.4305,1.5642
28.4315,2.1938
28.4325,2.7186
28.4345,2.4126
28.4355,2.2743
28.4375,1.5994
28.4385,1.5576
28.4395,1.5274
28.4415,2.1953
28.4425,2.7188
28.4445,2.7173
28.4455,2.7175
28.4475,2.7181
28.4485,2.4781
28.4495,1.5764
28.4515,2.1447
28.4525,2.7175
28.4544,2.4138
28.4554,2.3356
28.4574,1.582
28.4584,1.569
28.4594,1.5269
28.4614,2.1254
28.4624,2.716
28.4664,2.717
28.4744,2.7179
28.4844,2.7168
28.4884,2.5512
28.4884,1.5925
28.4894,2.0239
28.4894,2.72
28.4904,2.4651
28.4904,2.4102
28.4904,1.5707
28.4914,1.5734
28.4914,1.5272
28.4914,2.1078
28.4923,2.7166
28.4923,2.7173
28.4923,2.7171
28.4934,2.717
28.4934,2.6106
28.4943,1.614
28.4943,1.9881
28.4943,2.7192
28.4953,2.5
28.4953,2.456
28.4963,1.5527
28.4983,1.581
28.4993,1.5274
28.5013,1.9988
28.5023,2.719
28.5043,2.716
28.5053,2.7171
28.5063,2.7179
28.5083,2.6613
28.5093,1.6426
28.5113,1.9214
28.5123,2.7194
28.5143,2.4871
28.5153,2.5161
28.5163,1.5634
28.5183,1.5968
28.5193,1.528
28.5213,1.9366
28.5223,2.7192
28.5243,2.7164
28.5253,2.7171
28.5263,2.7173
28.5283,2.7006
28.5292,1.6817
28.5312,1.8539
28.5322,2.7215
28.5342,2.4901
28.5352,2.5724
28.5362,1.555
28.5382,1.6077
28.5392,1.5287
28.5422,2.7151
28.5442,2.7166
28.5452,2.7173
28.5472,2.7175
28.5482,2.7179
28.5492,1.5284
28.5512,1.6801
28.5522,2.722
28.5542,2.461
28.5552,1.6772
28.5572,1.5599
28.5582,1.6133
28.5592,1.5295
28.5612,1.7281
28.5622,2.7222
28.5642,2.7171
28.5652,2.7171
28.5671,2.7175
28.5681,1.795
28.5691,1.527
28.5711,1.6313
28.5721,2.7235
28.5761,2.4441
28.5851,1.7243
28.5951,1.5529
28.5981,1.5917
28.5991,1.5295
28.5991,1.6369
28.6001,2.7153
28.6001,2.7117
28.6011,2.7175
28.6011,2.7177
28.6011,1.8775
28.6021,1.5255
28.6021,1.5012
28.6031,2.7102
28.6031,2.4207
28.6031,1.7629
28.6040,1.5531
28.6040,1.6077
28.6050,1.5295
28.6050,2.7173
28.6050,2.717
28.6060,2.7123
28.6060,2.7173
28.6070,2.7183
28.6080,1.9645
28.6100,1.5248
28.6110,1.4781
28.6130,2.6695
28.6140,2.4344
28.6150,1.8364
28.6170,1.5548
28.6180,1.5977
28.6200,1.5287
28.6210,2.7192
28.6230,2.7192
28.6240,2.7083
28.6250,2.7183
28.6270,2.717
28.6280,2.0444
28.6300,1.5265
28.6310,1.4556
28.6330,2.6196
28.6340,2.5122
28.6350,1.9073
28.6370,1.5542
28.6380,1.5897
28.6400,1.5302
28.6410,2.6875
28.6429,2.7173
28.6439,2.7125
28.6459,2.7164
28.6469,2.7171
28.6489,2.1278
28.6499,1.5287
28.6509,1.4474
28.6529,2.5418
28.6539,2.5735
28.6559,1.9817
28.6569,1.5469
28.6579,1.6013
28.6599,1.5338
28.6609,2.56
28.6629,2.7237
28.6639,2.7104
28.6649,2.7164
28.6669,2.7175
28.6689,2.2002
28.6699,1.5304
28.6709,1.468
28.6729,2.4518
28.6739,2.63
28.6759,2.0637
28.6769,1.5501
28.6779,1.6133
28.6798,1.5379
28.6808,2.4728
28.6828,2.7185
28.6858,2.7194
28.6938,2.7168
28.7038,2.7173
28.7058,2.2743
28.7068,1.5351
28.7068,1.4804
28.7068,2.2919
28.7078,2.6819
28.7078,2.1406
28.7078,1.5548
28.7088,1.6086
28.7088,1.5396
28.7098,2.3716
28.7098,2.7235
28.7098,2.7145
28.7108,2.717
28.7108,2.7173
28.7108,2.329
28.7118,1.5398
28.7118,1.4978
28.7128,2.2036
28.7138,2.4636
28.7157,2.1989
28.7167,1.5604
28.7188,1.5987
28.7197,1.5405
28.7207,2.3054
28.7227,2.722
28.7237,2.7218
28.7257,2.7166
28.7267,2.7175
28.7287,2.401
28.7297,1.5477
28.7307,1.4989
28.7327,2.0939
28.7337,2.4117
28.7357,2.2698
28.7367,1.5664
28.7387,1.5885
28.7397,1.5484
28.7407,2.2
28.7427,2.7271
28.7437,2.7162
28.7457,2.7164
28.7467,2.7175
28.7487,2.4783
28.7497,1.5584
28.7507,1.5122
28.7527,2.038
28.7537,2.3988
28.7556,2.3408
28.7566,1.5756
28.7576,1.5762
28.7596,1.5555
28.7606,2.1243
28.7626,2.7299
28.7636,2.7175
28.7656,2.7173
28.7666,2.7179
28.7676,2.5521
28.7696,1.5786
28.7706,1.5109
28.7726,1.9184
28.7736,2.4498
28.7756,2.3926
28.7766,1.5869
28.7776,1.5563
28.7796,1.5662
28.7806,2.0811
28.7826,2.7335
28.7836,2.7119
28.7856,2.7171
28.7866,2.7179
28.7876,2.6148
28.7896,1.6041
28.7905,1.5109
28.7925,1.8617
28.7935,2.5086
28.7975,2.4413
28.8005,1.6065
28.8065,1.5554
28.8175,1.575
28.8205,2.0239
28.8205,2.7203
28.8215,2.7158
28.8215,2.7173
28.8215,2.7179
28.8225,2.6646
28.8225,1.6275
28.8225,1.5098
28.8235,1.7408
28.8235,2.4835
28.8235,2.5113
28.8245,1.6251
28.8245,1.5525
28.8255,1.5769
28.8255,1.9319
28.8265,2.716
28.8265,2.7181
28.8265,2.7162
28.8274,2.7175
28.8274,2.7023
28.8294,1.6639
28.8304,1.5098
28.8324,1.6765
28.8334,2.4741
28.8344,2.5705
28.8364,1.6478
28.8374,1.5499
28.8394,1.5248
28.8404,1.8385
28.8424,2.7305
28.8434,2.7198
28.8454,2.7168
28.8464,2.7175
28.8474,2.7181
28.8494,1.7161
28.8504,1.5094
28.8524,2.7265
28.8534,2.4591
28.8554,2.6189
28.8564,1.684
28.8574,1.5499
28.8594,1.525
28.8604,1.7132
28.8624,2.7295
28.8634,2.7263
28.8654,2.7168
28.8663,2.7179
28.8673,2.7181
28.8693,1.7802
28.8703,1.5087
28.8723,2.72
28.8733,2.4381
28.8753,2.6506
28.8763,1.7159
28.8773,1.5955
28.8793,1.5252
28.8813,1.6116
28.8823,2.7209
28.8833,2.7305
28.8853,2.7171
28.8863,2.7177
28.8883,2.7181
28.8893,1.8649
28.8903,1.4515
28.8923,2.6909
28.8933,2.4085
28.8953,2.6802
28.8963,1.7507
28.8983,1.5844
28.8993,1.5248
28.9003,1.5334
28.9023,2.7312
28.9032,2.7095
28.9072,2.7173
28.9112,2.7177
28.9182,2.7181
28.9272,1.9572
28.9302,1.4224
28.9312,2.6466
28.9312,2.4518
28.9322,2.699
28.9322,1.5475
28.9322,1.5889
28.9332,1.5261
28.9332,1.5233
28.9332,2.723
28.9342,2.711
28.9342,2.7171
28.9342,2.7175
28.9352,2.7181
28.9352,1.5195
28.9362,1.4213
28.9362,2.5756
28.9362,2.5259
28.9372,2.6682
28.9372,1.5473
28.9382,1.5878
28.9392,1.5284
28.9411,1.5222
28.9421,2.7342
28.9431,2.7108
28.9451,2.7173
28.9461,2.7179
28.9481,2.7181
28.9491,1.5165
28.9511,1.4044
28.9531,2.4319
28.9531,2.5848
28.9551,1.9838
28.9571,1.5477
28.9581,1.5818
28.9591,1.5282
28.9611,1.5246
28.9621,2.7231
28.9641,2.7087
28.9651,2.7175
28.9671,2.7179
28.9681,2.2051
28.9691,1.5141
28.9711,1.4367
28.9721,2.3581
28.9741,2.6322
28.9751,2.0427
28.9771,1.5484
28.9780,1.5996
28.9800,1.5342
28.9810,2.47
28.9830,2.7181
28.9840,2.711
28.9850,2.7177
28.9870,2.7179
28.9880,2.2744
28.9900,1.518
28.9910,1.455
28.9930,2.2407
28.9940,2.6832
28.9950,2.1252
28.9970,1.5507
28.9980,1.5927
29.0000,1.5357
29.0010,2.3736
29.0030,2.7175
29.0040,2.7083
29.0050,2.7175
29.0070,2.7179
29.0080,2.3301
29.0100,1.525
29.0110,1.4835
29.0130,2.197
29.0140,2.7102
29.0179,2.1987
29.0269,1.5599
29.0349,1.5874
29.0389,1.5385
29.0399,2.2696
29.0399,2.7175
29.0399,2.7177
29.0409,2.7175
29.0409,2.7179
29.0409,2.4061
29.0419,1.5357
29.0419,1.4894
29.0429,2.0731
29.0429,2.7209
29.0429,2.2748
29.0439,1.5657
29.0439,1.5929
29.0439,1.5464
29.0449,2.1906
29.0449,2.7186
29.0459,2.7125
29.0459,2.7177
29.0469,2.7181
29.0479,2.4775
29.0499,1.5462
29.0509,1.5002
29.0528,1.9482
29.0538,2.3914
29.0558,2.3275
29.0568,1.5732
29.0578,1.5719
29.0598,1.5548
29.0608,2.1254
29.0628,2.7254
29.0638,2.7111
29.0658,2.7181
29.0668,2.7173
29.0678,2.548
29.0698,1.563
29.0708,1.5008
29.0728,1.8859
29.0738,2.4681
29.0758,2.3956
29.0768,1.5854
29.0788,1.5584
29.0798,1.566
29.0808,2.0963
29.0828,2.7222
29.0838,2.7143
29.0858,2.7166
29.0868,2.717
29.0878,2.6138
29.0898,1.5953
29.0907,1.5085
29.0927,1.8124
29.0937,2.1408
29.0957,2.4483
29.0967,1.6064
29.0977,1.5505
29.0997,1.5681
29.1007,2.0772
29.1027,2.7198
29.1037,2.7126
29.1057,2.7166
29.1067,2.7173
29.1077,2.662
29.1097,1.6412
29.1107,1.5244
29.1127,1.7989
29.1137,2.4723
29.1157,2.5169
29.1167,1.6225
29.1177,1.555
29.1197,1.5794
29.1207,1.9062
29.1227,2.7177
29.1237,2.7123
29.1276,2.7166
29.1366,2.7171
29.1446,2.7014
29.1466,1.6827
29.1496,1.5259
29.1496,1.7305
29.1506,2.473
29.1506,2.569
29.1506,1.6514
29.1516,1.5533
29.1516,1.5955
29.1516,1.8325
29.1526,2.7203
29.1526,2.7119
29.1536,2.7164
29.1536,2.7177
29.1536,2.7183
29.1546,1.7311
29.1546,1.5293
29.1546,1.5837
29.1556,2.4618
29.1556,2.6256
29.1566,1.6844
29.1576,1.5546
29.1596,1.6035
29.1606,1.7206
29.1626,2.7179
29.1636,2.7213
29.1645,2.7166
29.1665,2.7175
29.1675,2.7179
29.1695,1.7965
29.1705,1.528
29.1725,1.594
29.1735,2.4387
29.1745,2.6588
29.1765,1.7363
29.1775,1.5546
29.1795,1.6054
29.1805,1.6266
29.1825,2.7218
29.1835,2.7173
29.1845,2.7145
29.1865,2.7175
29.1875,2.7181
29.1895,1.8822
29.1905,1.5297
29.1915,1.5357
29.1935,2.4134
29.1945,2.6729
29.1965,1.7727
29.1975,1.5589
29.1995,1.5855
29.2005,1.5439
29.2015,2.7156
29.2034,2.716
29.2044,2.7089
29.2064,2.7179
29.2074,2.7185
29.2094,1.9658
29.2104,1.5315
29.2114,1.5105
29.2134,2.4333
29.2144,2.6856
29.2164,1.8421
29.2174,1.5527
29.2194,1.5842
29.2234,1.528
29.2314,2.7179
29.2384,2.7164
29.2423,2.711
29.2423,2.7175
29.2433,2.7177
29.2433,2.0549
29.2443,1.5344
29.2443,1.5443
29.2443,2.516
29.2453,2.6871
29.2453,1.9039
29.2453,1.5555
29.2453,1.5353
29.2463,1.5269
29.2463,2.6697
29.2473,2.7162
29.2473,2.7098
29.2483,2.7171
29.2493,2.1304
29.2503,1.5375
29.2513,2.5343
29.2533,2.5797
29.2543,2.6185
29.2563,1.993
29.2573,1.5509
29.2593,1.534
29.2603,1.527
29.2613,2.5771
29.2633,2.7166
29.2643,2.7175
29.2663,2.7168
29.2673,2.7173
29.2693,2.2077
29.2703,1.54
29.2713,2.4479
29.2733,2.6301
29.2743,2.5606
29.2763,2.0573
29.2772,1.617
29.2792,1.5375
29.2802,1.527
29.2822,2.4591
29.2832,2.7179
29.2842,2.7158
29.2862,2.7168
29.2872,2.7177
29.2892,2.2754
29.2902,1.4925
29.2922,2.3554
29.2932,2.6864
29.2942,2.5055
29.2962,2.1533
29.2972,1.6039
29.2992,1.54
29.3002,1.5265
29.3022,2.3776
29.3032,2.7151
29.3042,2.716
29.3062,2.7168
29.3072,2.7173
29.3092,2.3367
29.3102,1.5034
29.3122,2.2671
29.3132,2.7111
29.3141,2.4509
29.3161,2.2287
29.3171,1.6127
29.3191,1.5492
29.3201,1.5269
29.3221,2.2806
29.3231,2.7162
29.3241,2.716
29.3261,2.717
29.3271,2.7179
29.3311,2.4006
29.3351,1.5143
29.3401,2.1865
29.3501,2.7207
29.3540,2.4338
29.3540,1.5717
29.3550,1.5953
29.3550,1.5537
29.3550,1.5265
29.3560,2.1743
29.3560,2.7095
29.3570,2.7162
29.3570,2.7173
29.3570,2.7175
29.3580,1.5762
29.3580,1.5197
29.3580,2.0913
29.3590,2.7245
29.3590,2.4143
29.3590,1.579
29.3600,1.5977
29.3600,1.5572
29.3610,1.527
29.3620,2.7243
29.3640,2.7083
29.3650,2.717
29.3670,2.7171
29.3680,2.7179
29.3690,1.5923
29.3710,1.5216
29.3720,2.0397
29.3740,2.7201
29.3750,2.4083
29.3770,1.5998
29.3780,1.5644
29.3800,1.5722
29.3810,1.5278
29.3820,2.7158
29.3840,2.7108
29.3850,2.7171
29.3870,2.717
29.3880,2.6135
29.3890,1.6139
29.3909,1.522
29.3929,1.9133
29.3939,2.7183
29.3949,2.4629
29.3969,1.6157
29.3979,1.5544
29.3999,1.5794
29.4009,2.0194
29.4029,2.7198
29.4039,2.7083
29.4049,2.7162
29.4069,2.7171
29.4079,2.6663
29.4099,1.6439
29.4109,1.5239
29.4129,1.7909
29.4139,2.4976
29.4159,2.5111
29.4169,1.6311
29.4179,1.5524
29.4199,1.5771
29.4209,1.915
29.4229,2.7194
29.4239,2.714
29.4258,2.7166
29.4268,2.7175
29.4288,2.7027
29.4298,1.6801
29.4308,1.5257
29.4328,1.6525
29.4338,2.4918
29.4358,2.5673
29.4368,1.6529
29.4388,1.5563
29.4418,1.5278
29.4438,1.8402
29.4518,2.7224
29.4618,2.7143
29.4647,2.7171
29.4657,2.7179
29.4657,2.7181
29.4667,1.7305
29.4667,1.5242
29.4677,2.7246
29.4677,2.4561
29.4677,2.6105
29.4687,1.6789
29.4687,1.5524
29.4697,1.5274
29.4697,1.7215
29.4707,2.7233
29.4707,2.719
29.4707,2.7171
29.4717,2.7177
29.4717,2.7173
29.4717,1.7918
29.4727,1.5255
29.4727,2.7179
29.4737,2.4421
29.4757,2.6525
29.4767,1.7273
29.4787,1.591
29.4797,1.5282
29.4817,1.6238
29.4827,2.7168
29.4837,2.7186
29.4857,2.717
29.4867,2.7168
29.4887,2.7173
29.4897,1.8796
29.4917,1.4905
29.4927,2.701
29.4937,2.4201
29.4957,2.6791
29.4967,1.7824
29.4987,1.6
29.4997,1.5287
29.5016,1.555
29.5026,2.7177
29.5046,2.7087
29.5056,2.7166
29.5066,2.717
29.5086,2.7175
29.5096,1.9636
29.5116,1.4725
29.5126,2.6714
29.5146,2.4477
29.5156,2.6851
29.5166,1.5516
29.5186,1.5846
29.5196,1.5293
29.5216,1.527
29.5226,2.7158
29.5246,2.7123
29.5256,2.7164
29.5266,2.7171
29.5286,2.7175
29.5296,1.531
29.5316,1.4714
29.5326,2.6178
29.5346,2.518
29.5356,2.6838
29.5366,1.5471
29.5385,1.5827
29.5395,1.5312
29.5415,1.5265
29.5425,2.7207
29.5445,2.7081
29.5455,2.7164
29.5465,2.7171
29.5485,2.7177
29.5495,1.5344
29.5535,1.5068
29.5615,2.5596
29.5705,2.5748
29.5725,2.6219
29.5745,1.549
29.5745,1.6005
29.5754,1.5344
29.5754,1.5261
29.5754,2.72
29.5764,2.7087
29.5764,2.7164
29.5774,2.7175
29.5774,2.7179
29.5774,1.5387
29.5784,1.4717
29.5784,2.4244
29.5784,2.6369
29.5784,2.5396
29.5794,1.555
29.5794,1.5951
29.5804,1.5349
29.5814,1.5257
29.5824,2.7231
29.5834,2.7168
29.5854,2.7168
29.5864,2.7173
29.5884,2.7177
29.5894,1.5447
29.5914,1.465
29.5924,2.326
29.5934,2.6847
29.5954,2.4875
29.5964,1.5518
29.5984,1.6002
29.5994,1.5364
29.6014,1.5265
29.6024,2.7201
29.6034,2.7113
29.6054,2.7171
29.6064,2.7177
29.6084,2.7179
29.6094,1.5512
29.6114,1.5192
29.6124,2.2351
29.6133,2.7121
29.6153,2.1711
29.6163,1.5561
29.6183,1.5775
29.6193,1.539
29.6203,1.5255
29.6223,2.717
29.6233,2.7173
29.6253,2.7173
29.6263,2.7181
29.6283,2.7171
29.6293,1.5604
29.6303,1.5107
29.6323,2.1286
29.6333,2.72
29.6353,2.2782
29.6363,1.5683
29.6383,1.575
29.6393,1.5488
29.6403,1.5254
29.6423,2.7168
29.6433,2.7076
29.6453,2.7173
29.6463,2.7181
29.6483,2.7173
29.6493,1.5724
29.6502,1.5224
29.6522,2.1091
29.6532,2.7218
29.6552,2.3318
29.6562,1.5777
29.6582,1.5726
29.6592,1.5595
29.6642,1.5252
29.6712,2.7185
29.6802,2.7115
29.6822,2.7173
29.6852,2.7179
29.6852,2.717
29.6862,1.5902
29.6862,1.5212
29.6862,2.0101
29.6872,2.7216
29.6872,2.4033
29.6872,1.5895
29.6881,1.5614
29.6881,1.5587
29.6881,1.5255
29.6891,2.7183
29.6891,2.7096
29.6891,2.7177
29.6901,2.7168
29.6901,2.7171
29.6901,1.612
29.6911,1.5218
29.6921,1.8359
29.6931,2.7196
29.6951,2.4404
29.6971,1.5983
29.6971,1.548
29.6991,1.5705
29.7011,1.5255
29.7021,2.7211
29.7031,2.7095
29.7051,2.7162
29.7061,2.7171
29.7081,2.6637
29.7091,1.6397
29.7111,1.5229
29.7121,1.777
29.7141,2.7198
29.7151,2.4835
29.7161,1.615
29.7171,1.5559
29.7191,1.5779
29.7201,1.5261
29.7221,2.7263
29.7231,2.7087
29.7250,2.7162
29.7260,2.717
29.7270,2.7018
29.7290,1.6806
29.7300,1.5239
29.7320,1.6763
29.7340,2.7226
29.7350,2.5585
29.7370,1.6456
29.7380,1.563
29.7390,1.5942
29.7410,1.5267
29.7420,2.7213
29.7440,2.7089
29.7450,2.7164
29.7460,2.7171
29.7480,2.7181
29.7490,1.7296
29.7510,1.5246
29.7520,1.6005
29.7540,2.719
29.7550,2.596
29.7570,1.6639
29.7580,1.5567
29.7590,1.588
29.7610,1.5263
29.7619,2.7198
29.7639,2.7245
29.7649,2.7166
29.7659,2.7171
29.7679,2.7181
29.7689,1.7957
29.7729,1.5278
29.7819,1.5359
29.7899,2.7241
29.7939,2.6532
29.7949,1.7041
29.7949,1.5554
29.7959,1.5902
29.7959,1.527
29.7959,2.7226
29.7969,2.7245
29.7969,2.7143
29.7979,2.7171
29.7979,2.7181
29.7989,1.8747
29.7989,1.5302
29.7989,1.494
29.7998,2.7018
29.7998,2.6459
29.8008,1.7404
29.8008,1.5525
29.8008,1.5854
29.8018,1.5282
29.8018,2.7218
29.8038,2.7171
29.8048,2.71
29.8068,2.7175
29.8078,2.7188
29.8088,1.9622
29.8108,1.5289
29.8118,1.4408
29.8138,2.6444
29.8148,2.6753
29.8168,1.8077
29.8178,1.5563
29.8188,1.5884
29.8208,1.5291
29.8218,2.7162
29.8238,2.719
29.8248,2.7078
29.8268,2.7177
29.8278,2.7173
29.8298,2.0506
29.8308,1.5291
29.8318,1.4462
29.8338,2.5808
29.8348,2.6721
29.8368,1.8629
29.8377,1.548
29.8387,1.5899
29.8407,1.525
29.8417,2.6508
29.8437,2.7186
29.8447,2.7098
29.8467,2.7181
29.8477,2.7173
29.8487,2.1288
29.8507,1.5334
29.8517,1.441
29.8537,2.5081
29.8547,2.6101
29.8567,1.9491
29.8577,1.5479
29.8587,1.5865
29.8607,1.525
29.8617,2.5581
29.8637,2.7188
29.8647,2.7108
29.8667,2.7177
29.8677,2.717
29.8687,2.2041
29.8707,1.5398
29.8717,1.5285
29.8737,2.1355
29.8746,2.5386
29.8756,2.0616
29.8776,1.5499
29.8786,1.588
29.8806,1.5246
29.8856,2.4723
29.8946,2.7198
29.9036,2.7123
29.9056,2.7166
29.9086,2.7177
29.9086,2.2776
29.9086,1.5434
29.9096,1.4837
29.9096,2.2778
29.9096,2.4993
29.9106,2.1168
29.9106,1.5548
29.9106,1.5953
29.9115,1.5254
29.9115,2.4003
29.9125,2.7239
29.9125,2.7111
29.9135,2.717
29.9145,2.7177
29.9145,2.3358
29.9145,1.555
29.9155,1.4781
29.9155,2.7171
29.9165,2.4477
29.9165,2.1814
29.9175,1.5685
29.9185,1.5959
29.9205,1.5257
29.9215,2.3249
29.9235,2.7215
29.9245,2.717
29.9255,2.7175
29.9275,2.7179
29.9285,2.3999
29.9305,1.5599
29.9315,1.5212
29.9335,2.7153
29.9345,2.3989
29.9355,2.2536
29.9375,1.5649
29.9385,1.5846
29.9405,1.5242
29.9415,2.2167
29.9425,2.7168
29.9445,2.7095
29.9455,2.7173
29.9475,2.7177
29.9485,2.4785
29.9514,1.5165
29.9535,2.7194
29.9544,2.4076
29.9564,2.3022
29.9574,1.573
29.9584,1.5477
29.9604,1.5254
29.9614,2.1243
29.9634,2.7166
29.9644,2.7081
29.9664,2.7183
29.9674,2.7171
29.9684,2.5482
29.9704,1.5899
29.9714,2.0282
29.9734,2.7194
29.9744,2.4631
29.9764,2.4149
29.9774,1.5955
29.9784,1.566
29.9804,1.5248
29.9814,2.0888
29.9834,2.7164
29.9844,2.7171
29.9864,2.7179
29.9873,2.7168
29.9884,2.608
29.9903,1.6095
29.9953,1.8927
30.0023,2.7211
30.0123,2.5017
30.0193,2.4438
30.0223,1.6002
30.0233,1.5756
30.0233,1.5254
30.0233,2.0226
30.0243,2.7186
30.0243,2.7175
30.0252,2.7168
30.0252,2.7171
30.0252,2.6613
30.0262,1.6396
30.0262,1.7479
30.0262,2.7207
30.0272,2.4942
30.0272,2.4923
30.0282,1.6242
30.0282,1.5784
30.0282,1.5263
30.0292,1.9401
30.0292,2.7164
30.0292,2.7158
30.0302,2.7168
30.0312,2.7177
30.0312,2.6988
30.0312,1.6757
30.0322,1.6634
30.0332,2.7228
30.0342,2.4507
30.0352,2.5433
30.0372,1.549
30.0382,1.5945
30.0402,1.5269
30.0412,1.846
30.0432,2.7171
30.0442,2.7164
30.0452,2.7171
30.0472,2.7175
30.0482,2.7183
30.0502,1.7217
30.0512,1.599
30.0532,2.7271
30.0542,2.4715
30.0552,2.6061
30.0572,1.5574
30.0582,1.5882
30.0602,1.5282
30.0612,1.7187
30.0621,2.7209
30.0641,2.717
30.0651,2.7173
30.0671,2.7179
30.0681,2.7181
30.0701,1.7877
30.0711,1.5265
30.0721,2.7164
30.0741,2.4453
30.0751,2.6341
30.0771,1.5537
30.0781,1.606
30.0801,1.53
30.0811,1.6411
30.0821,2.7181
30.0851,2.7164
30.0851,2.7173
30.0871,2.7177
30.0891,2.7186
30.0901,1.8739
30.0911,1.5023
30.0921,2.7025
30.0941,2.4239
30.0961,2.6598
30.0971,1.552
30.0991,1.5957
30.1030,1.5304
30.1110,1.5473
30.1260,2.7198
30.1290,2.7083
30.1300,2.7173
30.1300,2.7175
30.1310,2.7181
30.1310,1.5312
30.1320,1.4595
30.1320,2.6568
30.1330,2.4402
30.1330,2.6768
30.1330,1.5567
30.1340,1.5906
30.1340,1.5321
30.1350,1.5287
30.1350,2.7162
30.1350,2.708
30.1359,2.7175
30.1359,2.7177
30.1359,2.7179
30.1370,1.534
30.1370,1.4858
30.1379,2.5784
30.1379,2.4833
30.1389,2.6703
30.1389,1.5494
30.1389,1.5893
30.1399,1.5323
30.1419,1.5272
30.1429,2.6825
30.1439,2.7104
30.1459,2.7175
30.1469,2.7168
30.1489,2.7175
30.1499,1.5374
30.1519,1.4751
30.1529,2.5171
30.1539,2.5769
30.1559,2.6307
30.1569,1.5524
30.1589,1.6073
30.1599,1.5349
30.1619,1.5274
30.1629,2.7158
30.1649,2.7096
30.1659,2.7162
30.1669,2.7171
30.1689,2.7175
30.1699,1.5405
30.1719,1.4633
30.1729,2.4263
30.1749,2.6361
30.1758,2.5568
30.1768,1.5518
30.1788,1.5925
30.1798,1.5357
30.1818,1.5274
30.1828,2.7186
30.1848,2.7108
30.1858,2.7162
30.1868,2.717
30.1888,2.7177
30.1898,1.5462
30.1918,1.488
30.1928,2.3221
30.1948,2.6802
30.1958,2.4908
30.1968,1.5555
30.1988,1.5908
30.1998,1.5387
30.2018,1.5276
30.2028,2.7185
30.2048,2.7074
30.2058,2.716
30.2068,2.7171
30.2088,2.7177
30.2098,1.5542
30.2137,1.4982
30.2227,2.2161
30.2307,2.7098
30.2327,2.4642
30.2357,1.5644
30.2357,1.603
30.2357,1.545
30.2367,1.528
30.2367,2.7175
30.2367,2.7166
30.2377,2.7166
30.2377,2.7171
30.2387,2.7179
30.2387,1.5645
30.2387,1.5098
30.2397,2.1501
30.2397,2.7136
30.2397,2.2776
30.2407,1.5734
30.2407,1.6064
30.2407,1.554
30.2417,1.5278
30.2427,2.7168
30.2447,2.7134
30.2457,2.7166
30.2467,2.7177
30.2487,2.4695
30.2496,1.5795
30.2516,1.5269
30.2526,2.1293
30.2546,2.7211
30.2556,2.3425
30.2566,1.5803
30.2586,1.5809
30.2596,1.5587
30.2616,2.1379
30.2626,2.72
30.2646,2.7096
30.2656,2.7171
30.2676,2.7173
30.2686,2.5383
30.2696,1.5917
30.2716,1.5246
30.2726,2.0196
30.2746,2.4625
30.2756,2.3845
30.2766,1.5908
30.2786,1.5711
30.2796,1.572
30.2816,2.1083
30.2826,2.7171
30.2846,2.6984
30.2856,2.7179
30.2875,2.7171
30.2885,2.605
30.2895,1.6122
30.2915,1.5248
30.2925,1.8812
30.2945,2.4813
30.2955,2.4766
30.2975,1.6144
30.2985,1.5617
30.2995,1.5915
30.3015,2.0564
30.3025,2.7153
30.3045,2.7102
30.3055,2.7162
30.3075,2.7173
30.3085,2.656
30.3095,1.6392
30.3115,1.5257
30.3125,1.9238
30.3145,2.4747
30.3155,2.5103
30.3175,1.6234
30.3185,1.566
30.3195,1.5289
30.3234,1.9242
30.3324,2.7155
30.3414,2.7104
30.3434,2.7162
30.3464,2.7173
30.3464,2.6982
30.3474,1.6774
30.3474,1.5269
30.3484,2.7188
30.3484,2.468
30.3484,2.5559
30.3494,1.6521
30.3494,1.5569
30.3504,1.5287
30.3504,1.8359
30.3504,2.7155
30.3514,2.7066
30.3514,2.7162
30.3524,2.7173
30.3524,2.7185
30.3524,1.726
30.3534,1.5289
30.3534,2.7203
30.3544,2.4533
30.3554,2.6277
30.3574,1.6853
30.3584,1.5914
30.3594,1.5289
30.3613,1.7417
30.3623,2.7188
30.3643,2.7179
30.3653,2.7171
30.3673,2.7177
30.3683,2.7179
30.3703,1.7856
30.3713,1.6148
30.3723,2.7192
30.3743,2.4436
30.3753,2.6481
30.3773,1.7292
30.3783,1.5977
30.3803,1.53
30.3813,1.6427
30.3823,2.7185
30.3843,2.7149
30.3853,2.717
30.3873,2.7175
30.3883,2.7181
30.3903,1.8687
30.3913,1.5722
30.3933,2.7177
30.3943,2.4243
30.3953,2.6755
30.3973,1.5685
30.3982,1.6163
30.4002,1.5319
30.4012,1.5539
30.4032,2.717
30.4042,2.7117
30.4052,2.7173
30.4072,2.7175
30.4082,2.7179
30.4102,1.5332
30.4112,1.5347
30.4132,2.6933
30.4142,2.4263
30.4152,2.6776
30.4172,1.5561
30.4182,1.5887
30.4202,1.5319
30.4212,1.5289
30.4232,2.7194
30.4242,2.7102
30.4252,2.7171
30.4272,2.7177
30.4282,2.7181
30.4322,1.5368
30.4342,1.4997
30.4421,2.6676
30.4531,2.4965
30.4561,1.9111
30.4561,1.5563
30.4571,1.6022
30.4571,1.5347
30.4581,1.528
30.4581,2.7185
30.4581,2.7111
30.4591,2.717
30.4591,2.7175
30.4591,2.1194
30.4601,1.54
30.4601,1.4774
30.4601,2.608
30.4611,2.5606
30.4611,1.9589
30.4611,1.5563
30.4621,1.6283
30.4621,1.5374
30.4621,2.6041
30.4631,2.7149
30.4641,2.7113
30.4661,2.7171
30.4671,2.717
30.4691,2.1916
30.4701,1.5409
30.4711,1.5104
30.4730,2.5559
30.4750,2.5855
30.4760,2.0457
30.4770,1.5542
30.4790,1.6253
30.4810,1.5385
30.4820,2.4891
30.4830,2.7166
30.4850,2.7117
30.4860,2.7166
30.4880,2.7175
30.4890,2.2651
30.4910,1.5464
30.4920,1.4873
30.4930,2.395
30.4950,2.5263
30.4960,2.1188
30.4980,1.5572
30.4990,1.6154
30.5010,1.5276
30.5020,2.3843
30.5030,2.717
30.5050,2.713
30.5060,2.716
30.5080,2.7175
30.5090,2.3236
30.5109,1.5535
30.5119,1.5115
30.5139,2.707
30.5149,2.4678
30.5169,2.188
30.5179,1.5657
30.5189,1.5981
30.5209,1.5278
30.5219,2.2887
30.5239,2.716
30.5249,2.7186
30.5269,2.7168
30.5279,2.7173
30.5289,2.3913
30.5309,1.5636
30.5319,1.5242
30.5339,2.7203
30.5349,2.4312
30.5369,2.2647
30.5379,1.5809
30.5389,1.5555
30.5409,1.5278
30.5439,2.1921
30.5459,2.7179
30.5538,2.7096
30.5618,2.7171
30.5638,2.7179
30.5668,2.4687
30.5668,1.5767
30.5668,2.1676
30.5678,2.7201
30.5678,2.4164
30.5688,2.3238
30.5688,1.5797
30.5688,1.5634
30.5698,1.5282
30.5698,2.1299
30.5698,2.7198
30.5708,2.716
30.5708,2.7173
30.5708,2.7179
30.5718,2.5403
30.5718,1.593
30.5728,2.0749
30.5738,2.7185
30.5748,2.4533
30.5768,2.3678
30.5778,1.6238
30.5798,1.5803
30.5808,1.5291
30.5828,2.1374
30.5838,2.7194
30.5847,2.7177
30.5867,2.7179
30.5877,2.7183
30.5897,2.5971
30.5907,1.5252
30.5927,1.8775
30.5937,2.7181
30.5957,2.4972
30.5967,2.4068
30.5977,1.566
30.5997,1.5829
30.6007,1.5282
30.6027,2.0594
30.6037,2.7068
30.6057,2.7173
30.6067,2.717
30.6077,2.717
30.6097,2.6523
30.6107,1.5255
30.6127,1.888
30.6137,2.7186
30.6157,2.492
30.6167,1.6277
30.6177,1.5563
30.6197,1.5998
30.6207,1.5289
30.6226,1.918
30.6236,2.7096
30.6256,2.716
30.6266,2.7171
30.6276,2.7175
30.6296,1.6746
30.6306,1.527
30.6326,1.7849
30.6336,2.7203
30.6356,2.4828
30.6366,1.6446
30.6376,1.5681
30.6396,1.615
30.6406,1.5293
30.6426,2.7192
30.6436,2.711
30.6456,2.7158
30.6466,2.717
30.6486,2.7177
30.6496,1.7174
30.6506,1.5285
30.6546,1.7269
30.6625,2.7198
30.6715,2.608
30.6735,1.5563
30.6765,1.5842
30.6765,1.7249
30.6765,2.7192
30.6775,2.7171
30.6775,2.7166
30.6785,2.7173
30.6785,2.7179
30.6795,1.7813
30.6795,1.5299
30.6805,1.6073
30.6805,2.7192
30.6815,2.6076
30.6815,1.7007
30.6825,1.5602
30.6825,1.5906
30.6835,1.6799
30.6835,2.7181
30.6835,2.711
30.6855,2.7171
30.6865,2.7177
30.6885,2.7183
30.6895,1.8602
30.6915,1.5304
30.6925,1.4997
30.6935,2.4239
30.6955,2.6517
30.6965,1.7577
30.6984,1.555
30.6994,1.5998
30.7014,1.5473
30.7024,2.7162
30.7034,2.7173
30.7054,2.7089
30.7064,2.7173
30.7084,2.7181
30.7094,1.9495
30.7114,1.5325
30.7124,1.5104
30.7134,2.4312
30.7154,2.6755
30.7164,1.7959
30.7184,1.5537
30.7194,1.5987
30.7214,1.5284
30.7224,2.7147
30.7234,2.7188
30.7254,2.707
30.7264,2.7175
30.7284,2.7179
30.7294,2.0335
30.7304,1.5357
30.7324,1.455
30.7334,2.482
30.7353,2.6881
30.7363,1.873
30.7383,1.5503
30.7393,1.5338
30.7403,1.5272
30.7423,2.645
30.7433,2.7155
30.7453,2.7076
30.7463,2.7171
30.7483,2.7175
30.7493,2.11
30.7503,1.5366
30.7523,1.4505
30.7533,2.5416
30.7553,2.6343
30.7563,1.9043
30.7583,1.5471
30.7593,1.5347
30.7603,1.5284
30.7643,2.5353
30.7762,2.7185
30.7782,2.7093
30.7812,2.7175
30.7812,2.7175
30.7822,2.1876
30.7822,1.5405
30.7822,1.4935
30.7832,2.6144
30.7832,2.5797
30.7832,2.0277
30.7832,1.5529
30.7842,1.5467
30.7842,1.5284
30.7842,2.4355
30.7852,2.7186
30.7852,2.7098
30.7862,2.7175
30.7872,2.7185
30.7892,2.2606
30.7902,1.5469
30.7922,1.4811
30.7932,2.6624
30.7952,2.5126
30.7962,2.0974
30.7972,1.5537
30.7992,1.5441
30.8002,1.5278
30.8022,2.4016
30.8032,2.7235
30.8052,2.7095
30.8062,2.7177
30.8072,2.7181
30.8091,2.3194
30.8111,1.5544
30.8121,1.4884
30.8131,2.6986
30.8151,2.4681
30.8161,2.1409
30.8171,1.5625
30.8191,1.5411
30.8201,1.5278
30.8221,2.2366
30.8231,2.717
30.8251,2.7171
30.8261,2.7173
30.8271,2.7177
30.8291,2.3815
30.8301,1.5619
30.8321,1.5209
30.8331,2.7198
30.8341,2.4297
30.8361,2.2124
30.8381,1.567
30.8391,1.549
30.8401,1.528
30.8421,2.1601
30.8431,2.7173
30.8441,2.7098
30.8461,2.7173
30.8470,2.7175
30.8490,2.4636
30.8510,1.5743
30.8520,2.0787
30.8530,2.72
30.8540,2.4066
30.8560,2.2999
30.8570,1.5734
30.8590,1.5645
30.8600,1.5284
30.8620,2.1226
30.8630,2.7181
30.8640,2.7066
30.8660,2.7175
30.8670,2.7177
30.8690,2.5323
30.8700,1.5884
30.8720,2.0155
30.8760,2.7198
30.8849,2.4321
30.8939,2.3776
30.8969,1.5867
30.8979,1.5689
30.8979,1.5284
30.8979,2.0909
30.8979,2.7192
30.8989,2.7173
30.8989,2.7175
30.8989,2.7181
30.8989,2.5971
30.8989,1.6118
30.8999,1.9249
30.8999,2.7196
30.8999,2.4925
30.8999,2.4115
30.9009,1.603
30.9009,1.5792
30.9009,1.5282
30.9019,2.0541
30.9029,2.7166
30.9049,2.717
30.9069,2.7173
30.9079,2.7177
30.9089,2.6489
30.9109,1.6347
30.9119,1.8398
30.9139,2.7192
30.9149,2.4831
30.9159,2.4884
30.9179,1.6365
30.9189,1.5792
30.9209,1.5282
30.9218,1.9071
30.9238,2.7156
30.9248,2.717
30.9258,2.7171
30.9278,2.7171
30.9288,2.6924
30.9308,1.6711
30.9318,1.8632
30.9338,2.7209
30.9348,2.4903
30.9368,2.5778
30.9378,1.6484
30.9388,1.6199
30.9408,1.5295
30.9418,1.7697
30.9438,2.7166
30.9448,2.7171
30.9468,2.7177
30.9478,2.7179
30.9498,2.7164
30.9508,1.7162
30.9518,1.6602
30.9538,2.7188
30.9548,2.4569
30.9568,2.5906
30.9578,1.5569
30.9597,1.6202
30.9607,1.5295
30.9617,1.6945
30.9637,2.716
30.9647,2.7168
30.9667,2.7173
30.9677,2.7177
30.9697,2.7183
30.9707,1.53
30.9727,1.5578
30.9737,2.7209
30.9747,2.4411
30.9767,2.6256
30.9777,1.5516
30.9797,1.6009
30.9807,1.5302
30.9827,1.6056
30.9847,2.7149
30.9887,2.7164
30.9986,2.7168
30.9996,2.7177
31.0026,2.7181
31.0036,1.5317
31.0036,1.5066
31.0036,2.707
31.0046,2.4153
31.0046,1.756
31.0046,1.5544
31.0056,1.6094
31.0056,1.5315
31.0066,1.5473
31.0066,2.7166
31.0066,2.7055
31.0076,2.7171
31.0076,2.7179
31.0096,1.9399
31.0106,1.5315
31.0126,1.479
31.0136,2.6735
31.0146,2.4108
31.0166,1.8304
31.0176,1.5559
31.0196,1.576
31.0206,1.5308
31.0226,2.6922
31.0236,2.7188
31.0256,2.7102
31.0266,2.7175
31.0276,2.7177
31.0296,2.0213
31.0306,1.5338
31.0326,1.4322
31.0335,2.5971
31.0355,2.6744
31.0365,1.8589
31.0375,1.5462
31.0395,1.5861
31.0405,1.5327
31.0425,2.615
31.0435,2.717
31.0455,2.7113
31.0465,2.7173
31.0475,2.7181
31.0495,2.1053
31.0505,1.5362
31.0525,1.4682
31.0535,2.534
31.0555,2.6457
31.0565,1.9666
31.0575,1.5539
31.0595,1.5992
31.0605,1.5267
31.0625,2.5426
31.0635,2.7164
31.0655,2.7065
31.0665,2.7173
31.0675,2.7175
31.0695,2.1826
31.0705,1.5396
31.0724,1.4903
31.0734,2.6084
31.0754,2.5913
31.0764,2.0526
31.0804,1.5514
31.0814,1.5897
31.0884,1.5278
31.0974,2.41
31.1004,2.7175
31.1004,2.7096
31.1004,2.7175
31.1014,2.7177
31.1014,2.2523
31.1014,1.5437
31.1024,1.4997
31.1024,2.6624
31.1024,2.5328
31.1034,2.1049
31.1034,1.5574
31.1034,1.539
31.1044,1.5278
31.1044,2.3629
31.1054,2.7175
31.1054,2.7098
31.1064,2.7175
31.1083,2.7179
31.1093,2.3133
31.1103,1.5516
31.1123,2.3161
31.1133,2.7023
31.1153,2.4798
31.1163,2.1946
31.1183,1.5728
31.1193,1.5475
31.1203,1.5284
31.1223,2.2431
31.1233,2.7173
31.1253,2.7173
31.1263,2.7175
31.1283,2.7175
31.1293,2.3704
31.1303,1.5606
31.1323,2.1736
31.1333,2.7188
31.1353,2.4186
31.1363,2.2486
31.1383,1.5889
31.1393,1.549
31.1413,1.5278
31.1423,2.188
31.1433,2.7224
31.1453,2.717
31.1462,2.7179
31.1482,2.7179
31.1492,2.4498
31.1512,1.525
31.1522,2.0417
31.1532,2.7203
31.1552,2.4008
31.1562,2.2836
31.1582,1.5782
31.1592,1.5597
31.1612,1.5284
31.1622,2.131
31.1632,2.7113
31.1652,2.7173
31.1662,2.7179
31.1682,2.7181
31.1692,2.5203
31.1712,1.525
31.1722,1.9816
31.1732,2.719
31.1752,2.4258
31.1762,1.5893
31.1782,1.569
31.1792,1.5702
31.1812,1.5282
31.1822,2.1188
31.1841,2.7081
31.1851,2.7173
31.1861,2.7181
31.1881,2.7175
31.1891,1.6047
31.1911,1.5252
31.1921,1.9512
31.1941,2.719
31.1951,2.4816
31.1961,1.6009
31.1981,1.5595
31.1991,1.5874
31.2011,1.5282
31.2061,2.7211
31.2151,2.7132
31.2200,2.7173
31.2230,2.7177
31.2230,2.7181
31.2230,1.6335
31.2240,1.5259
31.2240,1.8042
31.2240,2.72
31.2250,2.468
31.2250,1.6244
31.2250,1.5529
31.2260,1.5799
31.2260,1.5282
31.2260,2.7181
31.2270,2.7072
31.2270,2.7175
31.2270,2.7179
31.2280,2.6849
31.2300,1.6619
31.2310,1.5263
31.2320,1.7397
31.2340,2.6618
31.2350,2.4996
31.2370,1.6244
31.2380,1.5525
31.2400,1.5882
31.2410,1.8074
31.2430,2.7194
31.2440,2.7111
31.2460,2.7171
31.2470,2.7179
31.2480,2.7147
31.2490,1.7076
31.2510,1.5276
31.2530,1.6285
31.2540,2.4511
31.2560,2.5853
31.2569,1.6566
31.2589,1.5494
31.2599,1.5779
31.2619,1.7213
31.2629,2.719
31.2639,2.716
31.2659,2.7168
31.2669,2.7179
31.2689,2.7183
31.2699,1.7642
31.2719,1.5297
31.2729,1.5585
31.2739,2.434
31.2759,2.6365
31.2769,1.6932
31.2789,1.5529
31.2799,1.5299
31.2819,1.6274
31.2829,2.7168
31.2839,2.716
31.2859,2.7173
31.2869,2.7175
31.2889,2.7177
31.2899,1.8368
31.2919,1.5282
31.2929,2.7111
31.2939,2.4096
31.2958,2.6453
31.2968,1.7222
31.2988,1.5494
31.2998,1.5302
31.3018,1.5336
31.3028,2.7192
31.3048,2.7186
31.3058,2.7081
31.3068,2.7179
31.3088,2.7183
31.3098,1.9324
31.3118,1.5317
31.3158,2.6624
31.3288,2.4049
31.3317,2.66
31.3337,1.7686
31.3347,1.5525
31.3347,1.5308
31.3347,1.5282
31.3347,2.7149
31.3347,2.7177
31.3357,2.7177
31.3357,2.7181
31.3357,2.7185
31.3357,2.0174
31.3367,1.5338
31.3367,2.5823
31.3367,2.4781
31.3367,2.6826
31.3377,1.8214
31.3387,1.5801
31.3407,1.5308
31.3417,1.5274
31.3427,2.6571
31.3447,2.7164
31.3457,2.7168
31.3477,2.7177
31.3487,2.7185
31.3507,2.0971
31.3517,1.4222
31.3537,2.5707
31.3547,2.5411
31.3557,2.6376
31.3577,1.8949
31.3587,1.5848
31.3607,1.5336
31.3637,2.5289
31.3647,2.7085
31.3667,2.7173
31.3677,2.7171
31.3687,2.7181
31.3706,1.5387
31.3716,1.4661
31.3736,2.5028
31.3746,2.6007
31.3766,1.99
31.3776,1.5458
31.3786,1.594
31.3806,1.5362
31.3816,1.528
31.3836,2.7181
31.3846,2.7074
31.3866,2.7175
31.3876,2.7177
31.3886,2.7181
31.3906,1.5441
31.3916,1.4781
31.3936,2.3622
31.3946,2.6547
31.3966,2.0935
31.3976,1.5527
31.3986,1.5987
31.4006,1.5387
31.4016,1.5276
31.4036,2.7185
31.4046,2.7091
31.4066,2.717
31.4075,2.7175
31.4085,2.3112
31.4105,1.5531
31.4115,1.4897
31.4135,2.2506
31.4145,2.6986
31.4165,2.1848
31.4175,1.5591
31.4185,1.5987
31.4215,1.5424
31.4285,1.5276
31.4355,2.7156
31.4365,2.7147
31.4385,2.7168
31.4395,2.717
31.4395,2.3701
31.4405,1.5614
31.4405,1.5231
31.4405,2.2456
31.4415,2.7164
31.4415,2.2369
31.4415,1.5604
31.4425,1.5998
31.4425,1.5546
31.4425,1.5278
31.4435,2.7171
31.4445,2.7121
31.4464,2.7175
31.4474,2.7177
31.4484,2.446
31.4504,1.5745
31.4514,1.5242
31.4534,2.1426
31.4544,2.7196
31.4554,2.3007
31.4574,1.5677
31.4584,1.575
31.4604,1.5518
31.4614,1.528
31.4634,2.7185
31.4644,2.7066
31.4654,2.7175
31.4674,2.7173
31.4684,2.5143
31.4704,1.5839
31.4714,1.5257
31.4724,2.0901
31.4744,2.7203
31.4754,2.3277
31.4774,1.5728
31.4784,1.569
31.4804,1.5651
31.4813,1.5282
31.4833,2.7164
31.4844,2.7078
31.4853,2.7171
31.4874,2.7173
31.4884,2.5814
31.4903,1.6045
31.4914,1.5246
31.4933,1.9666
31.4943,2.7186
31.4953,2.3948
31.4973,1.5957
31.4983,1.5584
31.5003,1.5696
31.5013,1.984
31.5023,2.7168
31.5043,2.7081
31.5053,2.717
31.5073,2.717
31.5083,2.6403
31.5103,1.63
31.5113,1.5272
31.5123,1.8887
31.5143,2.7186
31.5153,2.5013
31.5173,1.6079
31.5183,1.5479
31.5203,1.6077
31.5212,1.873
31.5222,2.7192
31.5242,2.7098
31.5252,2.7171
31.5272,2.7177
31.5282,2.6838
31.5322,1.6621
31.5412,1.5267
31.5522,1.8353
31.5552,2.7185
31.5562,2.5345
31.5562,1.6347
31.5571,1.5561
31.5571,1.6028
31.5581,1.8747
31.5581,2.7158
31.5581,2.7074
31.5591,2.7171
31.5591,2.7171
31.5601,2.7102
31.5601,1.7024
31.5611,1.5267
31.5611,1.6853
31.5611,2.4681
31.5621,2.588
31.5621,1.6707
31.5631,1.5529
31.5631,1.6133
31.5641,1.7843
31.5641,2.7207
31.5651,2.7123
31.5651,2.7162
31.5671,2.7175
31.5681,2.7181
31.5691,1.7588
31.5711,1.5302
31.5721,1.7395
31.5741,2.4638
31.5751,2.62
31.5771,1.6906
31.5781,1.5614
31.5801,1.5882
31.5811,1.6118
31.5831,2.717
31.5841,2.7115
31.5861,2.7171
31.5871,2.7173
31.5881,2.7177
31.5891,1.8267
31.5911,1.5297
31.5931,1.5672
31.5940,2.4252
31.5960,2.653
31.5970,1.732
31.5980,1.5529
31.5990,1.5899
31.6010,1.545
31.6030,2.7198
31.6040,2.7194
31.6060,2.7083
31.6070,2.7177
31.6090,2.7181
31.6100,1.9139
31.6110,1.5325
31.6130,1.504
31.6140,2.4074
31.6160,2.6821
31.6170,1.7641
31.6180,1.5503
31.6190,1.5848
31.6220,1.5282
31.6220,2.7196
31.6240,2.7175
31.6260,2.704
31.6270,2.7183
31.6290,2.7173
31.6300,1.9956
31.6319,1.5329
31.6329,1.4877
31.6339,2.4736
31.6359,2.6813
31.6369,1.8651
31.6389,1.5509
31.6429,1.5852
31.6589,1.5282
31.6609,2.6911
31.6629,2.7207
31.6639,2.7096
31.6639,2.7175
31.6639,2.7185
31.6649,2.0794
31.6649,1.5374
31.6649,1.4475
31.6659,2.5274
31.6659,2.6566
31.6659,1.9334
31.6669,1.5582
31.6669,1.5345
31.6669,1.5278
31.6678,2.5943
31.6678,2.7168
31.6678,2.7123
31.6688,2.7179
31.6688,2.7175
31.6698,2.1595
31.6718,1.5387
31.6728,2.5465
31.6738,2.5988
31.6758,2.6084
31.6778,1.9902
31.6788,1.5477
31.6798,1.5364
31.6818,1.5276
31.6828,2.4544
31.6848,2.702
31.6858,2.7177
31.6868,2.7181
31.6888,2.7185
31.6898,2.2257
31.6918,1.5443
31.6928,2.3731
31.6948,2.644
31.6958,2.537
31.6978,2.0476
31.6988,1.5854
31.6998,1.5359
31.7018,1.5274
31.7028,2.4025
31.7048,2.7168
31.7057,2.7164
31.7077,2.7175
31.7087,2.7179
31.7107,2.2958
31.7117,1.5072
31.7127,2.3371
31.7147,2.6909
31.7157,2.4828
31.7177,2.1269
31.7187,1.5968
31.7207,1.5437
31.7217,1.5278
31.7227,2.2943
31.7247,2.7145
31.7257,2.7177
31.7277,2.7179
31.7287,2.7183
31.7307,2.3519
31.7317,1.5087
31.7337,2.1979
31.7347,2.7151
31.7357,2.4338
31.7377,1.5657
31.7387,1.5822
31.7407,1.5409
31.7417,1.5278
31.7436,2.7186
31.7446,2.7145
31.7456,2.717
31.7496,2.7177
31.7566,2.7181
31.7646,1.5698
31.7686,1.5162
31.7696,2.077
31.7696,2.7203
31.7706,2.2848
31.7706,1.5689
31.7706,1.5679
31.7716,1.5462
31.7716,1.5278
31.7716,2.7188
31.7726,2.7111
31.7726,2.7175
31.7726,2.7177
31.7736,2.7183
31.7736,1.5842
31.7736,1.5227
31.7746,1.9754
31.7746,2.7185
31.7756,2.3204
31.7776,1.5739
31.7786,1.5636
31.7806,1.5539
31.7815,1.5276
31.7835,2.6988
31.7845,2.7104
31.7865,2.7173
31.7875,2.7177
31.7885,2.5636
31.7905,1.5987
31.7915,1.5267
31.7935,1.8655
31.7945,2.7205
31.7965,2.3828
31.7975,1.5895
31.7985,1.5524
31.8005,1.5548
31.8015,2.0348
31.8035,2.7181
31.8045,2.71
31.8065,2.7173
31.8075,2.7173
31.8085,2.6243
31.8105,1.6204
31.8115,1.5265
31.8135,1.8256
31.8145,2.4715
31.8165,2.4543
31.8175,1.6064
31.8184,1.5585
31.8204,1.5705
31.8214,1.9281
31.8234,2.7194
31.8244,2.7108
31.8264,2.7175
31.8274,2.7177
31.8284,2.6748
31.8304,1.6538
31.8314,1.5269
31.8334,1.8679
31.8344,2.4511
31.8364,2.5064
31.8374,1.6219
31.8394,1.5475
31.8404,1.528
31.8414,1.8175
31.8434,2.7185
31.8444,2.7108
31.8464,2.7175
31.8474,2.7181
31.8494,2.7065
31.8504,1.6911
31.8514,1.5291
31.8534,2.7198
31.8544,2.4396
31.8563,2.5621
31.8573,1.6429
31.8613,1.5662
31.8673,1.5284
31.8753,1.7455
31.8793,2.7173
31.8803,2.7095
31.8803,2.7179
31.8803,2.7173
31.8813,2.7177
31.8813,1.7432
31.8813,1.528
31.8823,2.719
31.8823,2.4533
31.8823,2.6226
31.8833,1.6919
31.8833,1.5876
31.8843,1.5289
31.8843,1.6907
31.8843,2.7126
31.8853,2.7194
31.8863,2.7175
31.8873,2.7181
31.8893,2.7185
31.8903,1.807
31.8923,1.5445
31.8932,2.7177
31.8942,2.4261
31.8962,2.6573
31.8972,1.735
31.8992,1.5801
31.9002,1.5284
31.9022,1.6049
31.9032,2.7166
31.9042,2.7102
31.9062,2.7179
31.9072,2.7175
31.9092,2.7175
31.9102,1.8957
31.9122,1.5494
31.9132,2.7108
31.9142,2.4089
31.9162,2.6716
31.9172,1.551
31.9192,1.5749
31.9202,1.53
31.9222,1.5344
31.9232,2.7192
31.9242,2.7117
31.9262,2.7173
31.9272,2.7177
31.9292,2.7181
31.9301,1.5344
31.9321,1.4905
31.9331,2.6806
31.9351,2.4462
31.9361,2.6849
31.9371,1.5486
31.9391,1.5833
31.9401,1.5319
31.9421,1.527
31.9431,2.7158
31.9451,2.711
31.9461,2.7179
31.9471,2.7173
31.9491,2.7177
31.9501,1.5351
31.9521,1.459
31.9531,2.6181
31.9551,2.5253
31.9561,1.8964
31.9571,1.5509
31.9591,1.5797
31.9611,1.5321
31.9621,1.5278
31.9631,2.7198
31.9651,2.7081
31.9671,2.7175
31.9671,2.7179
31.9720,2.1451
31.9850,1.539
31.9870,1.4895
31.9890,2.539
31.9900,2.5868
31.9900,1.9624
31.9900,1.549
31.9910,1.6007
31.9910,1.5347
31.9910,2.5304
31.9920,2.7164
31.9920,2.7089
31.9930,2.7177
31.9930,2.7173
31.9930,2.2146
31.9940,1.5424
31.9940,1.4755
31.9940,2.4361
31.9950,2.5259
31.9970,2.1053
31.9980,1.5509
32.0000,1.5945
32.0010,1.5375
32.0020,2.4164
32.0040,2.7215
32.0049,2.7063
32.0069,2.7175
32.0079,2.7179
32.0099,2.2814
32.0109,1.548
32.0129,1.5064
32.0139,2.3489
32.0149,2.4725
32.0169,2.1518
32.0179,1.5615
32.0199,1.5919
32.0209,1.528
32.0229,2.3245
32.0239,2.72
32.0259,2.7147
32.0269,2.7175
32.0279,2.7179
32.0299,2.3388
32.0309,1.5565
32.0329,1.5197
32.0339,2.7115
32.0359,2.4316
32.0369,2.2066
32.0379,1.5672
32.0399,1.5745
32.0409,1.5274
32.0428,2.2041
32.0438,2.7164
32.0458,2.7158
32.0468,2.7171
32.0488,2.7181
32.0498,2.4115
32.0508,1.5679
32.0528,1.5246
32.0538,2.7201
32.0558,2.4068
32.0568,2.2653
32.0588,1.57
32.0598,1.549
32.0608,1.5282
32.0628,2.1381
32.0638,2.7196
32.0658,2.7108
32.0688,2.7179
32.0698,2.4873
32.0718,1.5794
32.0728,2.1134
32.0748,2.7177
32.0758,2.4113
32.0768,2.3573
32.0797,1.5653
32.0877,1.5499
32.0957,1.5278
32.0987,2.1169
32.0997,2.7205
32.0997,2.7162
32.0997,2.7173
32.1007,2.7179
32.1007,2.554
32.1017,1.5265
32.1017,2.0442
32.1017,2.7194
32.1027,2.4586
32.1027,2.4353
32.1027,1.5589
32.1037,1.5645
32.1037,1.5284
32.1037,2.0817
32.1047,2.7186
32.1057,2.7173
32.1067,2.7179
32.1087,2.7175
32.1097,2.6159
32.1117,1.5257
32.1127,1.9579
32.1147,2.7186
32.1157,2.4944
32.1166,2.4631
32.1186,1.5501
32.1196,1.5634
32.1216,1.5282
32.1226,1.9774
32.1246,2.7113
32.1256,2.7173
32.1266,2.7173
32.1286,2.7181
32.1296,2.6652
32.1316,1.5263
32.1326,1.8374
32.1346,2.704
32.1356,2.4852
32.1366,2.5115
32.1386,1.5621
32.1396,1.5734
32.1416,1.528
32.1426,1.8621
32.1436,2.7098
32.1456,2.7166
32.1466,2.7173
32.1486,2.7179
32.1496,2.6988
32.1516,1.5289
32.1526,1.8055
32.1536,2.7198
32.1555,2.4771
32.1565,2.5244
32.1585,1.5539
32.1595,1.6056
32.1615,1.5289
32.1625,1.7408
32.1635,2.7093
32.1655,2.7173
32.1665,2.717
32.1685,2.7179
32.1695,2.7188
32.1715,1.5295
32.1745,1.7254
32.1785,2.7183
32.2104,2.4411
32.2104,2.6061
32.2114,1.5499
32.2114,1.6004
32.2114,1.5302
32.2124,1.6791
32.2124,2.719
32.2124,2.7177
32.2134,2.7177
32.2134,2.7177
32.2134,2.7185
32.2144,1.5295
32.2144,1.6133
32.2144,2.7177
32.2154,2.4267
32.2154,2.6316
32.2154,1.5585
32.2164,1.5929
32.2164,1.5293
32.2164,1.6838
32.2164,2.7158
32.2174,2.7134
32.2174,2.7179
32.2174,2.7173
32.2184,2.7175
32.2184,1.5297
32.2184,1.5728
32.2194,2.7128
32.2194,2.4104
32.2194,2.6551
32.2194,1.56
32.2204,1.5957
32.2204,1.5302
32.2224,1.5495
32.2234,2.7151
32.2254,2.7117
32.2264,2.7175
32.2284,2.7171
32.2293,2.7173
32.2303,1.5321
32.2323,1.5471
32.2333,2.693
32.2353,2.4432
32.2363,1.8574
32.2373,1.5512
32.2393,1.5942
32.2403,1.5317
32.2423,1.5289
32.2433,2.7158
32.2453,2.7108
32.2463,2.717
32.2483,2.7171
32.2493,2.7179
32.2503,1.5344
32.2523,1.5055
32.2533,2.6421
32.2553,2.5178
32.2563,1.891
32.2573,1.5499
32.2593,1.599
32.2603,1.5345
32.2623,1.5276
32.2633,2.7166
32.2653,2.7125
32.2662,2.7166
32.2672,2.717
32.2692,2.7175
32.2702,1.5381
32.2722,1.5435
32.2732,2.6493
32.2752,2.5773
32.2762,1.9956
32.2772,1.558
32.2792,1.5998
32.2802,1.5355
32.2822,1.5282
32.2862,2.7203
32.2952,2.7104
32.3041,2.7162
32.3091,2.7171
32.3091,2.2053
32.3101,1.5445
32.3101,1.5156
32.3101,2.5184
32.3111,2.6358
32.3111,2.0746
32.3111,1.5578
32.3121,1.6133
32.3121,1.5381
32.3121,1.528
32.3131,2.7192
32.3141,2.7123
32.3141,2.7173
32.3141,2.7179
32.3151,2.2722
32.3151,1.548
32.3151,1.4927
32.3161,2.4063
32.3161,2.6832
32.3161,2.113
32.3171,1.5621
32.3191,1.6041
32.3201,1.5394
32.3221,1.5278
32.3231,2.7164
32.3241,2.7113
32.3261,2.716
32.3271,2.7175
32.3291,2.3294
32.3311,1.555
32.3321,1.5171
32.3331,2.2356
32.3341,2.7048
32.3361,2.1959
32.3371,1.5653
32.3391,1.5917
32.3410,1.5432
32.3420,2.2999
32.3430,2.7179
32.3440,2.7168
32.3460,2.7175
32.3480,2.7181
32.3490,2.3913
32.3510,1.564
32.3520,1.5107
32.3540,2.1351
32.3550,2.7188
32.3560,2.2461
32.3580,1.5749
32.3600,1.6004
32.3610,1.5518
32.3620,2.2107
32.3640,2.7162
32.3650,2.7132
32.3670,2.716
32.3680,2.717
32.3690,2.4717
32.3710,1.5767
32.3720,1.5203
32.3740,2.11
32.3750,2.4057
32.3770,2.3159
32.3780,1.5799
32.3799,1.6187
32.3809,1.5685
32.3819,2.1355
32.3839,2.7181
32.3849,2.7113
32.3869,2.7179
32.3879,2.7175
32.3899,2.539
32.3909,1.5917
32.3919,1.5248
32.3989,1.9467
32.4109,2.465
32.4139,2.3658
32.4168,1.5882
32.4168,1.5767
32.4168,1.5284
32.4178,2.1102
32.4178,2.717
32.4178,2.7096
32.4188,2.7162
32.4188,2.7179
32.4188,2.6058
32.4198,1.6152
32.4198,1.5269
32.4208,2.7205
32.4208,2.4935
32.4208,2.4179
32.4218,1.6103
32.4218,1.5623
32.4218,1.5285
32.4228,2.077
32.4238,2.7173
32.4258,2.7115
32.4268,2.7177
32.4278,2.7181
32.4298,2.6571
32.4308,1.6409
32.4328,1.5259
32.4338,2.6399
32.4348,2.4828
32.4368,2.4736
32.4378,1.6339
32.4398,1.5977
32.4408,1.5284
32.4428,1.9334
32.4438,2.716
32.4458,2.7096
32.4468,2.7171
32.4488,2.7171
32.4498,2.6937
32.4508,1.6767
32.4528,1.7397
32.4537,2.7188
32.4557,2.4717
32.4567,2.5218
32.4587,1.6369
32.4597,1.623
32.4607,1.5295
32.4627,1.8212
32.4637,2.7156
32.4657,2.7166
32.4667,2.7168
32.4677,2.7179
32.4697,2.7186
32.4717,1.7202
32.4727,1.6827
32.4737,2.719
32.4757,2.4556
32.4767,2.5956
32.4787,1.5501
32.4797,1.584
32.4817,1.5291
32.4827,1.7436
32.4837,2.7158
32.4857,2.7164
32.4867,2.7164
32.4887,2.7175
32.4897,2.7179
32.4916,1.5289
32.4926,1.6317
32.4936,2.719
32.4956,2.4481
32.4966,2.6401
32.4986,1.5507
32.4996,1.5824
32.5006,1.5297
32.5056,1.6319
32.5126,2.7168
32.5226,2.7162
32.5266,2.717
32.5266,2.7173
32.5266,2.7179
32.5276,1.5299
32.5276,1.5394
32.5276,2.7147
32.5285,2.4288
32.5285,1.7644
32.5285,1.567
32.5295,1.6
32.5295,1.5312
32.5305,1.5527
32.5305,2.716
32.5305,2.71
32.5315,2.717
32.5315,2.7175
32.5325,1.9486
32.5325,1.5319
32.5325,1.4487
32.5345,2.4507
32.5355,2.44
32.5365,1.8036
32.5385,1.5587
32.5395,1.596
32.5415,1.5317
32.5425,2.7188
32.5445,2.7177
32.5455,2.7102
32.5465,2.717
32.5485,2.7173
32.5495,2.0361
32.5515,1.537
32.5525,1.4982
32.5545,2.665
32.5555,2.687
32.5565,1.8767
32.5585,1.5497
32.5595,1.5865
32.5615,1.5325
32.5625,2.6682
32.5645,2.72
32.5655,2.7117
32.5664,2.7173
32.5684,2.7181
32.5694,2.1173
32.5714,1.5398
32.5724,1.528
32.5744,2.6228
32.5754,2.6373
32.5774,1.9574
32.5784,1.5486
32.5794,1.5825
32.5814,1.5278
32.5824,2.5733
32.5844,2.72
32.5854,2.7104
32.5874,2.7177
32.5884,2.7179
32.5894,2.1901
32.5914,1.542
32.5924,1.5158
32.5944,2.6221
32.5954,2.5623
32.5974,2.0372
32.5984,1.5548
32.5994,1.6013
32.6014,1.5278
32.6023,2.4901
32.6043,2.7177
32.6053,2.7087
32.6073,2.7179
32.6083,2.7183
32.6093,2.2581
32.6113,1.5469
32.6123,1.5203
32.6163,2.6693
32.6213,2.4963
32.6343,2.1145
32.6363,1.5544
32.6393,1.543
32.6393,1.528
32.6393,2.3913
32.6402,2.717
32.6402,2.7053
32.6412,2.7179
