42.4261,1.2148
42.4261,1.2145
42.4281,1.2148
42.4281,1.215
42.4501,1.2177
42.4690,1.3763
42.4700,1.9547
42.4711,2.4685
42.4760,2.1085
42.4810,2.698
42.4879,2.7203
42.5239,2.641
42.5273,1.9328
42.5329,1.2272
42.5338,1.2152
42.5413,1.2147
42.5639,1.2147
42.5650,1.2147
42.5658,1.2169
42.5668,1.3624
42.5668,1.9298
42.5677,2.5366
42.5688,2.0314
42.5688,2.68
42.5698,2.72
42.5708,2.6581
42.5708,2.0125
42.5718,1.2374
42.5718,1.2154
42.5728,1.2145
42.5738,1.2143
42.5738,1.2143
42.5748,1.2171
42.5748,1.2192
42.5758,1.8841
42.5768,2.5306
42.5768,2.029
42.5778,2.6703
42.5778,2.7205
42.5788,2.6686
42.5798,1.2527
42.5807,1.2148
42.5817,1.215
42.5817,1.2148
42.5827,1.2148
42.5837,1.218
42.5837,1.3234
42.5847,1.8299
42.5847,2.5611
42.5897,1.9411
42.6076,2.6755
42.6257,2.7203
42.6286,2.6736
42.6356,2.1181
42.6356,1.2677
42.6366,1.2148
42.6375,1.2147
42.6375,1.2145
42.6385,1.2147
42.6385,1.2162
42.6395,1.3028
42.6395,1.8076
42.6405,2.4921
42.6415,1.9454
42.6425,2.7198
42.6425,2.7198
42.6435,2.675
42.6445,2.1529
42.6445,1.2824
42.6455,1.2145
42.6455,1.2145
42.6465,1.2147
42.6485,1.2148
42.6496,1.2158
42.6496,1.2784
42.6506,1.7416
42.6506,2.5392
42.6516,1.9202
42.6526,2.7205
42.6526,2.7203
42.6535,2.6864
42.6535,2.2244
42.6546,1.3195
42.6555,1.2147
42.6555,1.2147
42.6565,1.2148
42.6565,1.2145
42.6575,1.2178
42.6585,1.2704
42.6585,1.7114
42.6595,2.5295
42.6605,1.9272
42.6605,2.7196
42.6615,2.7198
42.6625,2.6928
42.6625,2.2546
42.6636,1.3425
42.6646,1.2148
42.6655,1.2148
42.6665,1.2147
42.6665,1.2147
42.6675,1.2177
42.6675,1.2597
42.6685,1.6531
42.6685,2.4886
42.6695,1.9534
42.6705,2.7201
42.6705,2.7205
42.6715,2.6982
42.6715,2.3037
42.6725,1.2163
42.6725,1.2147
42.6735,1.2148
42.6745,1.2148
42.6754,1.2147
42.6764,1.2186
42.6764,1.2537
42.6774,1.6559
42.6774,2.4286
42.6784,2.0301
42.6784,2.7194
42.6802,2.7196
42.6804,2.7031
42.6815,2.3412
42.6815,1.2167
42.6825,1.2148
42.6835,1.2143
42.6835,1.2143
42.6845,1.2145
42.6845,1.2178
42.6855,1.2411
42.6865,1.5882
42.6865,2.4027
42.6875,2.5731
42.6875,2.7044
42.6885,2.7207
42.6895,2.7068
42.6895,2.3609
42.6905,1.2169
42.6905,1.215
42.6914,1.2148
42.6914,1.2148
42.6925,1.2147
42.6934,1.2178
42.6934,1.2389
42.6945,1.5794
42.6945,2.3524
42.7024,2.5345
42.7164,2.6885
42.7323,2.72
42.7373,2.7128
42.7383,2.4109
42.7383,1.2173
42.7393,1.2147
42.7393,1.2143
42.7393,1.2145
42.7403,1.2145
42.7403,1.2178
42.7413,1.2355
42.7413,1.5503
42.7413,2.2722
42.7423,2.5073
42.7423,2.6751
42.7433,2.7203
42.7433,2.7207
42.7433,2.4775
42.7443,1.2182
42.7443,1.215
42.7453,1.2147
42.7453,1.2148
42.7453,1.2148
42.7463,1.2182
42.7473,1.2329
42.7473,1.5546
42.7483,2.2626
42.7483,2.41
42.7492,2.6675
42.7492,2.7201
42.7502,2.72
42.7502,1.5794
42.7502,1.2184
42.7512,1.2148
42.7512,1.2143
42.7512,1.2141
42.7522,1.2145
42.7522,1.2173
42.7532,1.23
42.7532,1.5242
42.7542,2.2124
42.7542,2.3354
42.7552,2.6553
42.7552,2.7205
42.7552,2.7207
42.7562,1.6617
42.7562,1.2197
42.7572,1.215
42.7572,1.2148
42.7572,1.215
42.7583,1.215
42.7583,1.2173
42.7593,1.228
42.7593,1.495
42.7603,2.1329
42.7603,2.2979
42.7603,2.6772
42.7613,2.7201
42.7613,2.7201
42.7613,1.6819
42.7623,1.2195
42.7623,1.215
42.7632,1.2145
42.7642,1.2145
42.7642,1.2143
42.7652,1.2163
42.7652,1.2253
42.7652,1.4599
42.7662,2.0613
42.7662,2.2446
42.7672,2.6727
42.7672,2.7198
42.7672,2.7203
42.7682,1.7376
42.7682,1.2205
42.7682,1.2152
42.7692,1.2147
42.7702,1.215
42.7702,1.215
42.7702,1.2167
42.7712,1.2222
42.7712,1.4029
42.7712,2.3853
42.7722,2.1916
42.7722,2.6639
42.7733,2.7201
42.7742,2.7209
42.7742,1.4873
42.7742,1.2175
42.7752,1.2148
42.7752,1.2145
42.7762,1.2147
42.7762,1.2143
42.7762,1.2182
42.7772,1.2248
42.7772,1.4781
42.7782,2.4811
42.7782,2.1784
42.7782,2.6875
42.7792,2.7196
42.7792,2.72
42.7802,2.3706
42.7807,1.3735
42.7812,1.2167
42.7812,1.2152
42.7822,1.2147
42.7822,1.2148
42.7822,1.2195
42.7832,1.2317
42.7832,1.5747
42.7842,2.5353
42.7842,2.1648
42.7842,2.7016
42.7852,2.7203
42.7852,2.7207
42.7862,2.0883
42.7862,1.2464
42.7862,1.2156
42.7872,1.2148
42.7872,1.2147
42.7872,1.2145
42.7882,1.2171
42.7882,1.2201
42.7892,1.369
42.7892,2.518
42.7902,2.0838
42.7902,2.6965
42.7902,2.7198
42.7912,2.6586
42.7912,2.0067
42.7922,1.2353
42.7922,1.2152
42.7922,1.2145
42.7932,1.2147
42.7932,1.2147
42.7932,1.2173
42.7942,1.2197
42.7942,1.3474
42.7952,2.531
42.7952,2.0474
42.7952,2.6793
42.7962,2.7203
42.7971,2.6577
42.7971,2.0089
42.7971,1.236
42.7982,1.2156
42.7982,1.2148
42.7992,1.2148
42.8001,1.2147
42.8011,1.218
42.8048,1.219
42.8108,1.3227
42.8181,2.5574
42.8297,1.9769
42.8331,2.6611
42.8337,2.7196
42.8337,2.6746
42.8337,2.0937
42.8347,1.2569
42.8347,1.2154
42.8359,1.2143
42.8359,1.2143
42.8367,1.2143
42.8367,1.2163
42.8367,1.2186
42.8377,1.8293
42.8377,2.5608
42.8387,1.9759
42.8387,2.6712
42.8387,2.72
42.8397,2.6665
42.8397,2.1183
42.8407,1.2722
42.8407,1.2156
42.8407,1.2147
42.8417,1.2145
42.8417,1.2148
42.8417,1.2162
42.8439,1.2184
42.8445,1.7451
42.8455,2.4972
42.8475,1.9343
42.8485,2.672
42.8506,2.72
42.8515,2.6838
42.8547,2.1946
42.8547,1.3054
42.8557,1.216
42.8587,1.2148
42.8587,1.2147
42.8610,1.2147
42.8610,1.2154
42.8631,1.218
42.8641,1.7357
42.8652,2.5295
42.8676,1.942
42.8686,2.6727
42.8706,2.7198
42.8716,2.6875
42.8746,2.2353
42.8746,1.3193
42.8757,1.216
42.8787,1.2141
42.8787,1.2143
42.8807,1.2147
42.8817,1.2152
42.8838,1.2182
42.8838,1.6919
42.8857,2.5259
42.8880,1.9313
42.8880,2.659
42.8912,2.7205
42.8920,2.6945
42.8920,2.2551
42.8956,1.3412
42.8967,1.2162
42.8977,1.2148
42.8987,1.2147
42.9008,1.2148
42.9015,1.215
42.9025,1.2184
42.9047,1.6574
42.9055,2.4788
42.9086,1.9868
42.9086,2.6157
42.9108,2.7201
42.9116,2.6958
42.9128,2.263
42.9177,1.3566
42.9256,1.2162
42.9366,1.2143
42.9395,1.2143
42.9406,1.2143
42.9406,1.2143
42.9406,1.2428
42.9416,1.5824
42.9416,2.3401
42.9426,2.0455
42.9426,2.599
42.9426,2.7207
42.9436,2.6948
42.9436,2.2364
42.9446,1.3551
42.9446,1.2162
42.9456,1.2148
42.9457,1.2148
42.9457,1.2148
42.9468,1.2148
42.9475,1.2334
42.9475,1.5135
42.9486,2.3149
42.9486,2.0929
42.9496,2.5398
42.9506,2.7203
42.9517,2.6969
42.9525,2.2126
42.9547,1.3395
42.9555,1.2147
42.9584,1.2145
42.9584,1.2145
42.9607,1.2145
42.9614,1.2143
42.9624,1.2274
42.9644,1.4639
42.9654,2.2156
42.9683,2.1441
42.9683,2.4854
42.9716,2.7203
42.9716,2.7027
42.9726,2.2289
42.9755,1.363
42.9755,1.2148
42.9778,1.2145
42.9785,1.2147
42.9799,1.2148
42.9816,1.2147
42.9825,1.2297
42.9848,1.4757
42.9854,2.1916
42.9885,2.2165
42.9885,2.4439
42.9918,2.7203
42.9926,2.711
42.9926,2.3061
42.9938,1.4215
42.9957,1.2147
42.9966,1.2143
42.9990,1.2145
43.0016,1.2143
43.0016,1.2145
43.0026,1.2265
43.0050,1.4635
43.0050,2.089
43.0075,2.2662
43.0087,2.6665
43.0108,2.7205
43.0116,2.7211
43.0126,2.4439
43.0148,1.5359
43.0157,1.215
43.0180,1.2147
43.0180,1.2148
43.0210,1.2147
43.0218,1.2175
43.0258,1.2285
43.0350,1.5094
43.0461,2.2011
43.0494,2.3183
43.0494,2.6789
43.0494,2.7201
43.0504,2.7203
43.0504,2.5386
43.0516,1.6697
43.0516,1.215
43.0516,1.2145
43.0526,1.2147
43.0526,1.2143
43.0536,1.2171
43.0536,1.2276
43.0545,1.501
43.0545,2.1706
43.0545,2.3656
43.0555,2.6624
43.0555,2.7198
43.0555,2.7201
43.0565,2.5979
43.0565,1.2208
43.0575,1.2152
43.0577,1.215
43.0585,1.2145
43.0595,1.2147
43.0629,1.2165
43.0637,1.2272
43.0647,1.4989
43.0658,2.1426
43.0682,2.4126
43.0683,2.6723
43.0693,2.7203
43.0726,2.7205
43.0736,2.6185
43.0757,1.2225
43.0757,1.2152
43.0779,1.2147
43.0788,1.2147
43.0799,1.2148
43.0809,1.2163
43.0819,1.2253
43.0842,1.4811
43.0855,2.0577
43.0874,2.4259
43.0884,2.669
43.0895,2.7198
43.0916,2.7198
43.0925,2.6401
43.0948,1.2248
43.0948,1.2154
43.0987,1.2145
43.0987,1.2141
43.0998,1.2141
43.1020,1.2177
43.1020,1.224
43.1059,1.4528
43.1061,2.071
43.1088,2.1614
43.1088,2.6898
43.1098,2.7201
43.1121,2.7207
43.1121,2.6645
43.1156,1.2317
43.1161,1.2154
43.1171,1.2148
43.1187,1.2147
43.1197,1.2148
43.1227,1.2188
43.1227,1.2225
43.1257,1.4219
43.1257,2.0311
43.1268,2.1359
43.1291,2.695
43.1299,2.72
43.1349,2.7201
43.1450,2.6751
43.1594,1.2437
43.1634,1.2154
43.1646,1.2145
43.1646,1.2143
43.1656,1.2169
43.1656,1.2222
43.1666,1.4093
43.1666,2.0072
43.1678,2.0779
43.1678,2.6883
43.1688,2.7203
43.1688,2.7201
43.1698,2.1123
43.1698,1.2632
43.1708,1.216
43.1708,1.215
43.1718,1.2148
43.1718,1.2148
43.1728,1.2177
43.1738,1.2212
43.1740,1.3787
43.1750,1.9047
43.1750,2.0436
43.1760,2.6766
43.1760,2.72
43.1770,2.7203
43.1770,2.1739
43.1780,1.2936
43.1780,1.2162
43.1790,1.2148
43.1790,1.2143
43.1799,1.2143
43.1814,1.2173
43.1820,1.2205
43.1848,1.356
43.1857,1.8959
43.1869,1.9857
43.1897,2.6648
43.1897,2.7201
43.1918,2.7203
43.1929,2.2159
43.1953,1.3114
43.1960,1.216
43.1970,1.215
43.1985,1.2148
43.1995,1.215
43.2019,1.2188
43.2029,1.2203
43.2053,1.3341
43.2061,2.579
43.2061,1.9581
43.2082,2.6536
43.2090,2.7201
43.2114,2.7203
43.2122,2.3043
43.2157,1.362
43.2157,1.2163
43.2167,1.2147
43.2188,1.2145
43.2198,1.2141
43.2227,1.2178
43.2227,1.2199
43.2238,1.3165
43.2265,2.572
43.2265,1.9362
43.2296,2.6663
43.2306,2.7201
43.2316,2.7205
43.2330,2.329
43.2338,1.3859
43.2360,1.2169
43.2370,1.215
43.2398,1.2148
43.2408,1.2148
43.2408,1.2165
43.2477,1.2192
43.2529,1.2985
43.2611,2.4882
43.2758,1.9621
43.2795,2.666
43.2807,2.72
43.2815,2.7198
43.2815,2.3734
43.2827,1.4129
43.2827,1.2169
43.2837,1.2147
43.2837,1.2145
43.2847,1.2143
43.2847,1.2147
43.2857,1.2199
43.2857,1.284
43.2867,2.5439
43.2867,1.9808
43.2879,2.6315
43.2879,2.7203
43.2889,2.7205
43.2889,2.4004
43.2899,1.4534
43.2909,1.2175
43.2909,1.2152
43.2919,1.2148
43.2919,1.2147
43.2930,1.215
43.2930,1.2212
43.2930,1.2698
43.2941,2.519
43.2951,1.9881
43.2951,2.6493
43.2961,2.7198
43.2961,2.7081
43.2970,2.443
43.2980,1.489
43.2982,1.2178
43.2991,1.215
43.2991,1.2143
43.3001,1.2143
43.3010,1.2145
43.3032,1.2214
43.3044,1.2649
43.3054,2.4771
43.3064,2.0492
43.3098,2.6288
43.3098,2.7181
43.3115,2.7126
43.3133,2.482
43.3142,1.5392
43.3154,1.2186
43.3164,1.2152
43.3187,1.2148
43.3194,1.2148
43.3227,1.2152
43.3227,1.2205
43.3238,1.6478
43.3262,2.3716
43.3262,2.0963
43.3295,2.6189
43.3305,2.7051
43.3315,2.7205
43.3327,2.5201
43.3337,1.59
43.3370,1.2192
43.3370,1.215
43.3385,1.2147
43.3397,1.2143
43.3405,1.2143
43.3430,1.2195
43.3435,1.6191
43.3457,2.3826
43.3465,2.1743
43.3489,2.521
43.3502,2.6847
43.3579,2.7203
43.3688,2.5266
43.3837,1.633
43.3882,1.2192
43.3882,1.2148
43.3894,1.2147
43.3894,1.2147
43.3904,1.2148
43.3904,1.2205
43.3914,1.5936
43.3914,2.3089
43.3924,2.2257
43.3924,2.4524
43.3934,2.6676
43.3934,2.7207
43.3944,2.5679
43.3944,1.7099
43.3955,1.2212
43.3955,1.2148
43.3975,1.2147
43.3985,1.2147
43.3995,1.2148
43.4007,1.2195
43.4017,1.5645
43.4017,2.2681
43.4027,2.2716
43.4037,2.3691
43.4037,2.7198
43.4047,2.7203
43.4047,2.5943
43.4057,1.7562
43.4057,1.2214
43.4068,1.2148
43.4079,1.2143
43.4088,1.2145
43.4088,1.2147
43.4098,1.218
43.4108,1.549
43.4119,2.1456
43.4138,2.3013
43.4148,2.3277
43.4158,2.7203
43.4158,2.7205
43.4168,2.6114
43.4178,1.8182
43.4188,1.2231
43.4188,1.2148
43.4198,1.2147
43.4198,1.2148
43.4208,1.2147
43.4218,1.2173
43.4238,1.5306
43.4249,2.1614
43.4269,2.3834
43.4279,2.2639
43.4299,2.7196
43.4309,2.72
43.4319,2.6305
43.4339,1.8734
43.4349,1.2242
43.4369,1.2147
43.4379,1.2141
43.4406,1.2145
43.4414,1.215
43.4424,1.2175
43.4436,1.4959
43.4444,2.1128
43.4469,2.4415
43.4479,2.2238
43.4508,2.6804
43.4508,2.7205
43.4518,2.6513
43.4539,1.9525
43.4539,1.2285
43.4571,1.2148
43.4579,1.2148
43.4622,1.2147
43.4756,1.2148
43.4932,1.2171
43.5008,1.4689
43.5200,2.0689
43.5249,2.4543
43.5252,2.1953
43.5259,2.6808
43.5259,2.72
43.5269,2.6667
43.5269,1.9947
43.5282,1.2344
43.5282,1.2147
43.5292,1.2143
43.5302,1.2145
43.5302,1.2145
43.5312,1.2175
43.5312,1.4558
43.5322,2.0517
43.5322,2.4546
43.5334,2.1678
43.5334,2.6945
43.5344,2.7205
43.5344,2.6763
43.5354,2.0523
43.5354,1.2499
43.5368,1.216
43.5374,1.2148
43.5374,1.2148
43.5384,1.2147
43.5386,1.218
43.5386,1.419
43.5396,2.0114
43.5396,2.516
43.5406,2.0997
43.5406,2.7016
43.5416,2.7201
43.5416,2.6836
43.5426,2.0881
43.5426,1.2587
43.5435,1.216
43.5435,1.2143
43.5447,1.2143
43.5447,1.2141
43.5457,1.2175
43.5457,1.2222
43.5467,1.9741
43.5479,2.5469
43.5487,2.098
43.5497,2.6886
43.5497,2.7205
43.5509,2.6931
43.5509,2.1543
43.5520,1.2824
43.5520,1.2162
43.5529,1.215
43.5529,1.2148
43.5539,1.2148
43.5539,1.2173
43.5549,1.2216
43.5549,1.9045
43.5561,2.5611
43.5561,2.0568
43.5571,2.6736
43.5571,2.72
43.5581,2.6856
43.5581,2.173
43.5591,1.2921
43.5591,1.216
43.5601,1.2143
43.5601,1.2143
43.5612,1.2143
43.5612,1.2165
43.5623,1.2205
43.5656,1.8827
43.5665,2.5124
43.5675,1.978
43.5685,2.6735
43.5695,2.7201
43.5720,2.6943
43.5720,2.2439
43.5758,1.3268
43.5768,1.2165
43.5768,1.215
43.5783,1.2148
43.5790,1.2148
43.5821,1.2165
43.5835,1.2207
43.5889,1.8649
43.6012,2.575
43.6153,1.9375
43.6205,2.6586
43.6207,2.7198
43.6215,2.7001
43.6215,2.3219
43.6227,1.3667
43.6227,1.2165
43.6237,1.2147
43.6237,1.2143
43.6247,1.2143
43.6247,1.2158
43.6257,1.2201
43.6257,1.3187
43.6267,2.5685
43.6267,1.9231
43.6279,2.6682
43.6279,2.7203
43.6279,2.7023
43.6289,2.3704
43.6298,1.4114
43.6308,1.2171
43.6319,1.215
43.6319,1.2148
43.6328,1.215
43.6328,1.2154
43.6341,1.2197
43.6341,1.299
43.6351,2.539
43.6351,1.9157
43.6361,2.6628
43.6361,2.7198
43.6371,2.7201
43.6380,2.3871
43.6380,1.4444
43.6390,1.2175
43.6390,1.2148
43.6402,1.2145
43.6402,1.2143
43.6412,1.2145
43.6426,1.2199
43.6436,1.2863
43.6462,2.5092
43.6467,1.9831
43.6476,2.6541
43.6498,2.7201
43.6506,2.7207
43.6538,2.4569
43.6538,1.4905
43.6554,1.2182
43.6564,1.2152
43.6586,1.2148
43.6598,1.2148
43.6606,1.2152
43.6626,1.2201
43.6636,1.2775
43.6667,2.5201
43.6667,2.0074
43.6678,2.621
43.6699,2.7198
43.6709,2.7117
43.6741,2.4655
43.6741,1.5042
43.6755,1.2178
43.6765,1.2148
43.6775,1.2145
43.6799,1.2141
43.6805,1.2145
43.6837,1.2199
43.6837,1.2529
43.6859,2.3828
43.6869,2.0294
43.6898,2.5782
43.6898,2.7151
43.6908,2.6967
43.6969,2.2199
43.7101,1.3504
43.7254,1.2163
43.7300,1.2148
43.7306,1.2147
43.7316,1.2148
43.7316,1.2148
43.7326,1.2199
43.7326,1.2734
43.7338,2.4646
43.7338,2.1456
43.7348,2.5557
43.7348,2.6963
43.7358,2.7205
43.7358,2.6956
43.7368,2.1633
43.7368,1.2807
43.7378,1.2169
43.7378,1.2147
43.7388,1.2145
43.7388,1.2148
43.7400,1.2269
43.7400,1.8726
43.7410,2.5349
43.7410,2.1874
43.7420,2.533
43.7420,2.6877
43.7430,2.72
43.7440,2.6095
43.7440,1.8085
43.7450,1.2216
43.7450,1.215
43.7460,1.2147
43.7462,1.2147
43.7476,1.2148
43.7482,1.2203
43.7482,1.6015
43.7492,2.3082
43.7492,2.2349
43.7502,2.4068
43.7502,2.66
43.7512,2.7207
43.7524,2.5737
43.7534,1.7236
43.7557,1.221
43.7564,1.2148
43.7574,1.2147
43.7607,1.2145
43.7607,1.2145
43.7626,1.2188
43.7636,1.5857
43.7660,2.2529
43.7668,2.2836
43.7678,2.3796
43.7702,2.72
43.7702,2.7203
43.7737,2.5836
43.7737,1.7687
43.7748,1.2218
43.7770,1.2145
43.7770,1.2145
43.7797,1.2145
43.7807,1.2145
43.7837,1.2186
43.7837,1.5413
43.7854,2.1342
43.7865,2.3382
43.7876,2.2855
43.7907,2.7205
43.7907,2.7207
43.7929,2.6114
43.7929,1.8355
43.7964,1.2233
43.7964,1.215
43.7974,1.2148
43.8004,1.2147
43.8014,1.2148
43.8024,1.2297
43.8084,1.5199
43.8197,2.1349
43.8333,2.3629
43.8373,2.2473
43.8379,2.72
43.8379,2.72
43.8391,2.6168
43.8391,1.8505
43.8401,1.2154
43.8401,1.2145
43.8411,1.2143
43.8411,1.2141
43.8421,1.2143
43.8421,1.2269
43.8431,1.4946
43.8431,2.0988
43.8441,2.419
43.8441,2.2008
43.8453,2.7203
43.8453,2.7209
43.8463,2.6403
43.8473,1.9227
43.8483,1.2154
43.8493,1.2148
43.8493,1.2148
43.8505,1.2182
43.8505,1.2252
43.8515,1.4663
43.8515,2.0626
43.8525,2.4563
43.8525,2.6778
43.8535,2.72
43.8535,2.7201
43.8550,2.6481
43.8564,1.2327
43.8564,1.2156
43.8575,1.2145
43.8575,1.2143
43.8611,1.2143
43.8611,1.2177
43.8624,1.2233
43.8644,1.4254
43.8654,1.9639
43.8664,2.4905
43.8674,2.6918
43.8706,2.7203
43.8715,2.7207
43.8726,2.6727
43.8736,1.246
43.8768,1.2156
43.8768,1.2148
43.8779,1.2147
43.8798,1.2148
43.8809,1.218
43.8837,1.2222
43.8837,1.3945
43.8855,1.9688
43.8867,2.4841
43.8877,2.6941
43.8907,2.72
43.8917,2.7201
43.8927,2.6639
43.8938,1.242
43.8965,1.2158
43.8965,1.2145
43.8974,1.2143
43.8998,1.2141
43.9008,1.2184
43.9031,1.2205
43.9041,1.3487
43.9041,1.8931
43.9077,2.5075
43.9087,2.6806
43.9097,2.7203
43.9111,2.7205
43.9187,2.6423
43.9378,1.239
43.9525,1.2154
43.9535,1.215
43.9535,1.2148
43.9545,1.2147
43.9545,1.2169
43.9557,1.219
43.9567,1.3101
43.9577,1.8169
43.9580,2.4972
43.9587,2.6654
43.9587,2.72
43.9597,2.7205
43.9597,2.6395
43.9607,1.242
43.9619,1.2154
43.9626,1.2145
43.9637,1.2145
43.9646,1.2145
43.9646,1.216
43.9656,1.218
43.9656,1.2803
43.9666,1.7207
43.9666,1.9199
43.9678,2.6622
43.9688,2.7207
43.9688,2.7215
43.9698,2.6356
43.9698,1.242
43.9708,1.2156
43.9708,1.2148
43.9718,1.2147
43.9718,1.2148
43.9728,1.2165
43.9740,1.2178
43.9740,1.2715
43.9750,1.7048
43.9750,1.8981
43.9760,2.6675
43.9760,2.72
43.9770,2.7205
43.9770,2.6583
43.9779,1.2709
43.9779,1.216
43.9789,1.2148
43.9799,1.2143
43.9799,1.2147
43.9810,1.2156
43.9819,1.2178
43.9829,1.2749
43.9849,1.714
43.9861,1.9154
43.9871,2.6635
43.9891,2.7196
43.9901,2.72
43.9923,2.6894
43.9933,1.3529
43.9942,1.2167
43.9963,1.2148
43.9972,1.2148
43.9995,1.2148
44.0004,1.215
44.0014,1.219
44.0034,1.2872
44.0046,1.7489
44.0067,1.9103
44.0120,2.6568
44.0264,2.7201
44.0456,2.7205
44.0519,2.3802
44.0526,1.4305
44.0536,1.2173
44.0536,1.2152
44.0554,1.2147
44.0556,1.2147
44.0566,1.2148
44.0575,1.2199
44.0585,1.2869
44.0585,1.7305
44.0595,1.9874
44.0595,2.6489
44.0605,2.7198
44.0605,2.7198
44.0616,2.4496
44.0625,1.5008
44.0625,1.218
44.0645,1.2148
44.0655,1.2145
44.0655,1.2143
44.0665,1.2145
44.0675,1.2199
44.0675,1.2745
44.0685,2.5115
44.0685,2.0406
44.0695,2.6015
44.0695,2.7203
44.0705,2.7205
44.0715,2.5043
44.0715,1.5535
44.0725,1.2186
44.0735,1.2152
44.0735,1.215
44.0745,1.2148
44.0745,1.2152
44.0755,1.2201
44.0765,1.2672
44.0765,2.4691
44.0775,2.0796
44.0775,2.5945
44.0785,2.7108
44.0796,2.72
44.0805,2.5268
44.0820,1.5979
44.0825,1.2192
44.0835,1.215
44.0845,1.2143
44.0855,1.2145
44.0855,1.2143
44.0865,1.2195
44.0865,1.2567
44.0875,2.4278
44.0885,2.1378
44.0885,2.555
44.0895,2.695
44.0905,2.7213
44.0915,2.5576
44.0934,1.6707
44.0944,1.2205
44.0966,1.2152
44.0974,1.215
44.0994,1.2148
44.1004,1.215
44.1014,1.2195
44.1034,1.2486
44.1044,2.2878
44.1064,2.2105
44.1074,2.4606
44.1094,2.6836
44.1104,2.7201
44.1114,2.5512
44.1134,1.7166
44.1144,1.221
44.1164,1.2154
44.1174,1.2145
44.1184,1.2141
44.1204,1.2145
44.1214,1.2188
44.1234,1.2428
44.1244,2.3084
44.1264,2.2639
44.1314,2.4183
44.1333,2.6776
44.1465,2.7203
44.1615,2.5891
44.1655,1.7656
44.1655,1.2214
44.1665,1.2156
44.1665,1.2148
44.1674,1.2148
44.1685,1.215
44.1685,1.2192
44.1694,1.239
44.1694,2.2632
44.1704,2.299
44.1714,2.3883
44.1714,2.6688
44.1724,2.72
44.1724,2.6163
44.1734,1.8402
44.1744,1.2235
44.1744,1.2152
44.1754,1.2145
44.1754,1.2143
44.1764,1.2143
44.1764,1.2178
44.1774,1.237
44.1774,2.2188
44.1784,2.3425
44.1794,2.335
44.1797,2.6791
44.1804,2.72
44.1814,2.6315
44.1814,1.8786
44.1824,1.2246
44.1824,1.2158
44.1834,1.215
44.1834,1.2147
44.1834,1.2148
44.1844,1.2173
44.1844,1.2319
44.1854,1.5539
44.1854,2.386
44.1874,2.2489
44.1884,2.6768
44.1895,2.7203
44.1914,2.6371
44.1924,1.9442
44.1944,1.2304
44.1954,1.2158
44.1974,1.2148
44.1985,1.2147
44.1994,1.2145
44.2019,1.2171
44.2019,1.2293
44.2051,1.53
44.2051,2.4501
44.2059,2.2026
44.2090,2.6665
44.2090,2.7196
44.2125,2.7198
44.2135,2.0162
44.2145,1.2364
44.2156,1.2156
44.2165,1.2148
44.2186,1.2147
44.2195,1.2147
44.2215,1.2175
44.2226,1.2269
44.2235,1.4882
44.2256,2.4713
44.2265,2.1843
44.2295,2.6843
44.2295,2.7207
44.2305,2.7209
44.2335,2.0479
44.2335,1.248
44.2394,1.2158
44.2434,1.2148
44.2635,1.2147
44.2694,1.2147
44.2704,1.2173
44.2704,1.2253
44.2714,1.4648
44.2714,2.5103
44.2724,2.1304
44.2724,2.6978
44.2734,2.7198
44.2734,2.7198
44.2734,2.1224
44.2744,1.2698
44.2744,1.216
44.2754,1.2145
44.2754,1.2145
44.2764,1.2147
44.2764,1.218
44.2774,1.225
44.2774,1.4487
44.2774,1.9735
44.2784,2.1033
44.2784,2.6982
44.2794,2.72
44.2803,2.7205
44.2813,2.1904
44.2813,1.3007
44.2825,1.2165
44.2825,1.215
44.2834,1.215
44.2834,1.2148
44.2844,1.2165
44.2844,1.2233
44.2844,1.4138
44.2854,1.9941
44.2876,1.987
44.2884,2.6703
44.2906,2.72
44.2918,2.72
44.2926,2.6778
44.2937,1.3157
44.2946,1.216
44.2962,1.2147
44.2982,1.2143
44.2994,1.2141
44.3003,1.2208
44.3024,1.2223
44.3042,1.3797
44.3042,1.9298
44.3064,1.9881
44.3076,2.6577
44.3104,2.7123
44.3104,2.7205
44.3115,2.6984
44.3135,1.341
44.3145,1.2167
44.3166,1.215
44.3175,1.2148
44.3206,1.2148
44.3216,1.218
44.3216,1.2214
44.3244,1.3825
44.3254,1.8402
44.3264,2.6003
44.3284,2.6708
44.3294,2.7198
44.3304,2.7203
44.3314,2.6931
44.3348,1.3778
44.3358,1.2169
44.3368,1.2148
44.3378,1.2145
44.3388,1.2145
44.3410,1.2165
44.3418,1.221
44.3438,1.3444
44.3642,1.8212
44.3831,2.2403
44.3911,2.6733
44.3921,2.72
44.3934,2.7201
44.3942,2.6978
44.3952,2.3371
44.3952,1.2171
44.3972,1.2152
44.3972,1.2148
44.3982,1.2148
44.3994,1.2163
44.3994,1.2205
44.4004,1.3281
44.4014,1.8346
44.4024,2.5473
44.4024,2.5816
44.4034,2.7196
44.4049,2.7203
44.4059,2.7072
44.4059,2.3944
44.4069,1.2173
44.4079,1.2148
44.4085,1.2145
44.4089,1.2145
44.4128,1.2143
44.4158,1.2237
44.4172,1.3067
44.4178,1.7716
44.4200,2.5705
44.4218,2.6577
44.4228,2.7044
44.4238,2.72
44.4248,2.7068
44.4278,2.4316
44.4278,1.2177
44.4288,1.2148
44.4308,1.2145
44.4328,1.2147
44.4338,1.2148
44.4348,1.2203
44.4359,1.3086
44.4368,1.6808
44.4378,2.57
44.4388,1.9761
44.4420,2.72
44.4429,2.7205
44.4429,2.7091
44.4443,2.4514
44.4449,1.2184
44.4459,1.215
44.4520,1.2148
44.4588,1.2147
44.4922,1.2145
44.5014,1.2208
44.5064,1.2803
44.5074,1.7213
44.5085,2.2084
44.5085,1.9184
44.5095,2.7194
44.5108,2.7198
44.5134,2.7201
44.5164,2.5266
44.5171,1.5801
44.5184,1.2154
44.5204,1.2147
44.5214,1.2147
44.5224,1.2145
44.5224,1.2207
44.5234,1.2659
44.5244,1.6885
44.5255,2.4254
44.5274,2.1177
44.5306,2.7119
44.5314,2.7201
44.5323,2.7205
44.5343,2.5255
44.5354,1.6167
44.5367,1.215
44.5377,1.2147
44.5377,1.2147
44.5387,1.2147
44.5397,1.2145
44.5407,1.257
44.5437,1.66
44.5448,2.4273
44.5457,2.1709
44.5467,2.6851
44.5487,2.72
44.5497,2.7201
44.5507,2.552
44.5517,1.6892
44.5517,1.2154
44.5527,1.2147
44.5538,1.2145
44.5550,1.2147
44.5559,1.2148
44.5620,1.2597
44.5970,1.6088
44.6020,2.4053
44.6099,2.1843
44.6109,2.6746
44.6120,2.7203
44.6129,2.7205
44.6148,2.5653
44.6153,1.7183
44.6163,1.2152
44.6173,1.2148
44.6173,1.2147
44.6183,1.2147
44.6194,1.2147
44.6195,1.239
44.6205,1.5957
44.6205,2.0922
44.6215,2.1299
44.6225,2.4124
44.6225,2.7196
44.6235,2.7203
44.6247,2.5677
44.6257,1.7076
44.6257,1.2156
44.6267,1.2148
44.6277,1.2147
44.6280,1.2147
44.6296,1.2148
44.6297,1.2372
44.6310,1.5887
44.6319,2.2474
44.6329,2.3108
44.6329,2.2452
44.6339,2.7205
44.6349,2.7205
44.6349,2.6294
44.6359,1.8702
44.6370,1.2156
44.6371,1.2147
44.6381,1.2145
44.6381,1.2145
44.6391,1.2355
44.6401,1.5953
44.6411,2.2176
44.6411,2.3646
44.6423,2.6763
44.6423,2.7201
44.6435,2.72
44.6443,2.6395
44.6453,1.9103
44.6453,1.2158
44.6463,1.2145
44.6473,1.2145
44.6486,1.2147
44.6486,1.2175
44.6496,1.2325
44.6506,1.5252
44.6506,2.1162
44.6516,2.4132
44.6526,2.6789
44.6526,2.7203
44.6536,2.7205
44.6548,2.6564
44.6548,1.9636
44.6558,1.2154
44.6568,1.215
44.6568,1.2147
44.6578,1.2147
44.6588,1.2184
44.6588,1.2297
44.6598,1.5372
44.6610,2.1209
44.6610,2.4004
44.6620,2.6727
44.6630,2.7196
44.6640,2.7198
44.6640,2.6796
44.6650,2.0303
44.6660,1.216
44.6660,1.2145
44.6672,1.2143
44.6672,1.2147
44.6682,1.2188
44.6692,1.228
44.6692,1.5115
44.6702,2.1113
44.6712,2.4873
44.6712,2.6836
44.6722,2.7205
44.6722,2.7207
44.6734,2.6845
44.6734,2.0853
44.6793,1.2156
44.6926,1.2148
44.7078,1.2148
44.7131,1.2148
44.7148,1.2148
44.7158,1.2257
44.7158,1.4759
44.7168,2.0641
44.7178,2.5368
44.7178,2.7008
44.7190,2.7198
44.7200,2.7198
44.7200,2.6851
44.7210,2.092
44.7220,1.216
44.7220,1.2145
44.7230,1.2143
44.7230,1.2148
44.7242,1.2145
44.7242,1.221
44.7252,1.3544
44.7252,1.8769
44.7262,2.4863
44.7272,2.0395
44.7272,2.7203
44.7282,2.7207
44.7282,2.5803
44.7294,1.8629
44.7304,1.2152
44.7314,1.2148
44.7314,1.2147
44.7324,1.2147
44.7324,1.2145
44.7334,1.2274
44.7344,1.4807
44.7344,2.1023
44.7357,2.5953
44.7357,2.0697
44.7367,2.7196
44.7367,2.7198
44.7377,2.7203
44.7377,2.5746
44.7387,1.6317
44.7397,1.2156
44.7397,1.2147
44.7407,1.2148
44.7407,1.215
44.7419,1.2321
44.7419,1.5224
44.7429,2.0845
44.7429,2.6363
44.7439,1.99
44.7449,2.72
44.7449,2.7203
44.7459,2.6956
44.7469,2.3155
44.7481,1.372
44.7489,1.2148
44.7489,1.2145
44.7501,1.2141
44.7510,1.2143
44.7510,1.2167
44.7519,1.3765
44.7519,1.9122
44.7529,2.59
44.7539,1.954
44.7541,2.7203
44.7551,2.7207
44.7551,2.6997
44.7561,2.2894
44.7561,1.3609
44.7571,1.2154
44.7580,1.2148
44.7581,1.2147
44.7591,1.2148
44.7591,1.2165
44.7603,1.3296
44.7603,1.7601
44.7613,2.5523
44.7613,1.9094
44.7623,2.6761
44.7633,2.72
44.7643,2.7001
44.7643,2.3487
44.7654,1.3971
44.7664,1.2147
44.7664,1.2145
44.7673,1.2145
44.7683,1.2145
44.7683,1.2154
44.7693,1.318
44.7693,1.8049
44.7703,2.4214
44.7703,1.8814
44.7712,2.669
44.7722,2.7209
44.7725,2.7057
44.7735,2.3933
44.7745,1.4136
44.7745,1.2152
44.7755,1.2148
44.7755,1.2147
44.7764,1.2148
44.7774,1.2182
44.7774,1.2938
44.7786,1.7663
44.7786,2.5154
44.7800,1.9442
44.7807,2.4678
44.7856,2.7201
44.7948,2.7031
44.8061,2.3976
44.8093,1.4481
44.8102,1.2173
44.8102,1.2143
44.8112,1.2147
44.8112,1.2145
44.8122,1.2145
44.8122,1.3142
44.8132,1.7541
44.8144,2.4989
44.8144,2.0089
44.8154,2.6397
44.8154,2.7203
44.8154,2.707
44.8164,2.4085
44.8164,1.4729
44.8174,1.2178
44.8174,1.2147
44.8174,1.2147
44.8183,1.2148
44.8189,1.2147
44.8195,1.2201
44.8195,1.6941
44.8204,1.9932
44.8204,2.0853
44.8204,2.624
44.8214,2.72
44.8214,2.7089
44.8224,2.4383
44.8224,1.4839
44.8224,1.218
44.8234,1.2143
44.8234,1.2145
44.8244,1.2147
44.8244,1.2147
44.8244,1.219
44.8255,1.6305
44.8261,2.3701
44.8266,2.1535
44.8278,2.3734
44.8296,2.7205
44.8305,2.7119
44.8317,2.4554
44.8342,1.5317
44.8342,1.2182
44.8371,1.2148
44.8371,1.2147
44.8403,1.2147
44.8403,1.2148
44.8413,1.2569
44.8435,1.6223
44.8443,2.3239
44.8463,2.1424
44.8473,2.5248
44.8496,2.72
44.8506,2.7168
44.8514,2.4569
44.8537,1.5572
44.8537,1.2188
44.8559,1.2145
44.8568,1.2143
44.8607,1.2145
44.8607,1.2145
44.8607,1.2351
44.8640,1.5272
44.8640,1.8841
44.8676,2.2744
44.8676,2.4314
44.8698,2.7203
44.8713,2.7147
44.8718,2.3898
44.8740,1.4955
44.8740,1.2152
44.8772,1.2148
44.8772,1.2147
44.8788,1.2147
44.8810,1.2147
44.8810,1.2283
44.8846,1.4714
44.8856,2.1134
44.8866,2.3091
44.8876,2.6712
44.8916,2.7201
44.8948,2.716
44.9052,2.3588
44.9193,1.4916
44.9243,1.215
44.9243,1.2143
44.9284,1.2145
44.9460,1.2143
44.9497,1.2145
44.9497,1.2269
44.9507,1.4331
44.9517,2.0577
44.9526,2.3103
44.9526,2.636
44.9536,2.7201
44.9536,2.7207
44.9546,2.3781
44.9546,1.5014
44.9546,1.2152
44.9556,1.2147
44.9556,1.2148
44.9566,1.2148
44.9566,1.2177
44.9576,1.2237
44.9585,1.4507
44.9586,1.9628
44.9586,2.3284
44.9596,2.6675
44.9596,2.72
44.9606,2.7203
44.9606,2.4833
44.9616,1.6176
44.9616,1.215
44.9626,1.2143
44.9634,1.2145
44.9636,1.2143
44.9647,1.2165
44.9656,1.2246
44.9666,1.4384
44.9666,2.0106
44.9676,2.0378
44.9676,2.641
44.9686,2.7207
44.9686,2.7209
44.9696,2.5773
44.9696,1.2235
44.9707,1.2154
44.9708,1.2148
44.9718,1.2148
44.9718,1.2148
44.9728,1.2175
44.9732,1.2263
44.9738,1.4747
44.9738,2.0706
44.9748,2.4198
44.9748,2.6309
44.9758,2.72
44.9758,2.7203
44.9769,2.6281
44.9769,1.228
44.9779,1.2156
44.9779,1.2148
44.9789,1.2145
44.9789,1.2143
44.9805,1.2171
44.9820,1.2355
44.9841,1.5021
44.9849,2.0416
44.9876,2.1683
44.9884,2.6892
44.9891,2.7201
44.9906,2.7209
44.9916,2.6581
44.9940,1.2387
44.9940,1.216
44.9960,1.2148
44.9982,1.2147
44.9990,1.2148
45.0010,1.2182
45.0010,1.2248
45.0042,1.432
45.0100,1.84
45.0131,2.0836
45.0261,2.6984
45.0371,2.72
45.0415,2.7203
45.0415,2.6669
45.0425,1.2578
45.0425,1.2158
45.0435,1.2147
45.0435,1.2145
45.0445,1.2141
45.0445,1.2195
45.0455,1.2233
45.0455,1.4145
45.0476,1.9604
45.0514,2.0237
45.0514,2.6975
45.0527,2.7201
45.0533,2.7209
45.0537,2.6736
45.0547,1.2518
45.0549,1.2162
45.0549,1.215
45.0557,1.2148
45.0557,1.2148
45.0567,1.2265
45.0567,1.2229
45.0577,1.3885
45.0577,1.9484
45.0587,1.9911
45.0587,2.587
45.0597,2.7098
45.0597,2.7201
45.0606,2.1509
45.0613,1.2854
45.0617,1.216
45.0617,1.2148
45.0627,1.2145
45.0647,1.2143
45.0647,1.2178
45.0657,1.2231
45.0657,1.4001
45.0657,1.9525
45.0668,1.9887
45.0677,2.6656
45.0686,2.7196
45.0707,2.7207
45.0716,2.2009
45.0735,1.3114
45.0745,1.2163
45.0765,1.215
45.0775,1.215
45.0785,1.215
45.0805,1.2188
45.0815,1.221
45.0835,1.3439
45.0845,2.5253
45.0865,1.9324
45.0875,2.6673
45.0885,2.7201
45.0905,2.7203
45.0917,2.2229
45.0938,1.3266
45.0947,1.2162
45.0966,1.2148
45.0985,1.2147
45.0985,1.2143
45.1005,1.2165
45.1015,1.2197
45.1035,1.3159
45.1045,2.473
45.1065,1.8968
45.1075,2.6676
45.1085,2.7198
45.1104,2.7205
45.1114,2.284
45.1137,1.3643
45.1194,1.2165
45.1334,1.2148
45.1473,1.2147
45.1520,1.2148
45.1523,1.2162
45.1523,1.2199
45.1534,1.3062
45.1534,2.4726
45.1544,1.9296
45.1544,2.6613
45.1554,2.72
45.1554,2.7203
45.1554,2.3183
45.1563,1.3977
45.1563,1.2167
45.1573,1.2148
45.1573,1.2145
45.1583,1.2145
45.1583,1.215
45.1593,1.2199
45.1593,1.2878
45.1593,2.531
45.1604,1.9519
45.1613,2.6283
45.1613,2.7203
45.1613,2.7205
45.1623,2.3605
45.1633,1.4198
45.1643,1.2175
45.1643,1.215
45.1653,1.2147
45.1653,1.2148
45.1663,1.215
45.1663,1.2197
45.1663,1.2765
45.1673,2.5229
45.1673,1.975
45.1683,2.6451
45.1683,2.7198
45.1706,2.7055
45.1716,2.4162
45.1737,1.4753
45.1746,1.2178
45.1757,1.215
45.1776,1.2143
45.1786,1.2143
45.1807,1.2143
45.1816,1.2201
45.1837,1.2642
45.1846,2.4777
45.1856,2.0322
45.1876,2.6238
45.1886,2.7168
45.1910,2.7083
45.1918,2.4235
45.1937,1.4955
45.1947,1.218
45.1959,1.2152
45.1979,1.2148
45.1989,1.2148
45.2009,1.2148
45.2019,1.2205
45.2037,1.2574
45.2047,2.3281
45.2057,2.1068
45.2070,2.5585
45.2079,2.702
45.2106,2.7115
45.2116,2.4685
45.2129,1.5548
45.2145,1.2188
45.2153,1.215
45.2179,1.2143
45.2322,1.2143
45.2433,1.2143
45.2493,1.2197
45.2493,1.6317
45.2502,2.3725
45.2502,2.182
45.2514,2.4878
45.2514,2.6845
45.2525,2.7192
45.2525,2.4891
45.2535,1.5769
45.2535,1.219
45.2545,1.2148
45.2545,1.2148
45.2554,1.2148
45.2554,1.2148
45.2564,1.2208
45.2564,1.59
45.2574,2.2159
45.2584,2.4438
45.2594,2.7201
45.2594,2.7205
45.2604,2.5071
45.2604,1.635
45.2614,1.2197
45.2624,1.2145
45.2634,1.2143
45.2644,1.2141
45.2654,1.2143
45.2654,1.2192
45.2664,1.5782
45.2664,2.2688
45.2674,2.2765
45.2684,2.38
45.2684,2.7207
45.2704,2.7207
45.2714,2.5396
45.2724,1.6857
45.2747,1.2207
45.2758,1.2148
45.2777,1.2147
45.2787,1.2147
45.2798,1.2148
45.2817,1.2182
45.2827,1.5509
45.2847,2.1046
45.2857,2.3065
45.2876,2.3238
45.2886,2.7203
45.2906,2.7203
45.2916,2.5615
45.2928,1.7472
45.2949,1.2214
45.2958,1.2147
45.2975,1.2147
45.2988,1.2143
45.2990,1.2143
45.3016,1.2169
45.3026,1.5209
45.3049,2.1393
45.3057,2.3916
45.3076,2.2469
45.3086,2.7205
45.3096,2.7205
45.3116,2.5964
45.3126,1.8106
45.3145,1.2225
45.3154,1.215
45.3176,1.2148
45.3186,1.2147
45.3196,1.215
45.3216,1.2171
45.3228,1.5044
45.3246,2.1168
45.3256,2.4184
45.3276,2.2227
45.3412,2.6675
45.3562,2.7203
45.3573,2.6082
45.3584,1.8469
45.3584,1.2238
45.3595,1.2143
45.3595,1.2145
45.3605,1.2143
45.3605,1.2143
45.3615,1.2167
45.3615,1.4547
45.3615,2.0583
45.3625,2.4368
45.3636,2.1936
45.3645,2.6673
45.3645,2.7207
45.3655,2.6238
45.3655,1.8964
45.3665,1.2265
45.3665,1.215
45.3675,1.215
45.3675,1.2147
45.3675,1.2148
45.3684,1.2171
45.3684,1.4487
45.3694,1.9621
45.3694,2.41
45.3704,2.1878
45.3704,2.6901
45.3714,2.72
45.3714,2.6586
45.3724,1.9679
45.3734,1.2359
45.3755,1.2156
45.3764,1.2145
45.3785,1.2143
45.3802,1.2143
45.3812,1.2167
45.3825,1.4044
45.3836,1.9636
45.3856,2.4957
45.3866,2.0056
45.3886,2.7001
45.3896,2.7203
45.3906,2.6425
45.3927,1.9861
45.3936,1.2372
45.3956,1.2154
45.3969,1.2148
45.3982,1.215
45.3995,1.2145
45.4005,1.2214
45.4026,1.2216
45.4035,1.9296
45.4056,2.4918
45.4064,2.0524
45.4074,2.681
45.4097,2.7201
45.4107,2.6646
45.4127,2.0579
45.4138,1.257
45.4157,1.2158
45.4167,1.2145
45.4177,1.2143
45.4198,1.2143
45.4209,1.2171
45.4226,1.222
45.4236,1.8743
45.4246,2.542
45.4267,2.0125
45.4277,2.6592
45.4297,2.7203
45.4307,2.6733
45.4317,2.0967
45.4337,1.2705
45.4347,1.216
45.4388,1.2148
45.4447,1.2147
45.4634,1.2148
45.4666,1.2171
45.4696,1.2208
45.4706,1.8192
45.4710,2.1906
45.4716,2.0207
45.4716,2.6727
45.4726,2.7198
45.4726,2.6776
45.4726,2.1623
45.4736,1.2972
45.4736,1.2163
45.4746,1.2143
45.4746,1.2143
45.4756,1.2143
45.4756,1.2171
45.4766,1.2207
45.4766,1.8353
45.4776,2.5656
45.4776,1.9118
45.4795,2.6288
45.4827,2.7201
45.4827,2.6868
45.4835,2.2326
45.4835,1.336
45.4845,1.2163
45.4845,1.215
45.4855,1.2148
45.4862,1.2147
45.4866,1.2193
45.4885,1.2205
45.4885,1.3159
45.4895,2.5518
45.4895,1.8955
45.4895,2.6703
45.4905,2.7106
45.4905,2.6913
45.4915,2.2758
45.4937,1.3613
45.4945,1.2169
45.4975,1.2147
45.4985,1.2143
45.4985,1.2141
45.5002,1.2152
45.5021,1.2192
45.5031,1.3163
45.5042,2.5576
45.5051,1.9165
45.5074,2.657
45.5094,2.7201
45.5114,2.7008
45.5114,2.3339
45.5134,1.4016
45.5147,1.2171
45.5164,1.2152
45.5175,1.2148
45.5184,1.2147
45.5205,1.215
45.5214,1.2199
45.5225,1.2835
45.5256,2.2103
45.5264,1.8642
45.5275,2.6682
45.5287,2.7198
45.5304,2.693
45.5323,2.2623
45.5323,1.3375
45.5345,1.2165
45.5354,1.2147
45.5376,1.2143
45.5392,1.2143
45.5552,1.2145
45.5662,1.218
45.5711,1.2389
45.5741,2.3193
45.5761,1.9928
45.5772,2.4136
45.5772,2.72
45.5782,2.7173
45.5782,2.4839
45.5782,1.5546
45.5792,1.218
45.5811,1.215
45.5822,1.2147
45.5822,1.2148
45.5832,1.2154
45.5832,1.2342
45.5842,1.4129
45.5842,2.6135
45.5852,2.0517
45.5852,2.6365
45.5862,2.7179
45.5862,2.7203
45.5871,2.6444
45.5871,1.843
45.5881,1.2227
45.5881,1.2154
45.5891,1.2145
45.5891,1.2145
45.5902,1.2145
45.5902,1.2205
45.5911,1.6095
45.5911,2.4132
45.5921,2.0821
45.5921,2.5581
45.5931,2.6991
45.5931,2.7085
45.5941,2.4451
45.5941,1.5231
45.5951,1.2186
45.5961,1.2148
45.5991,1.2147
45.5991,1.2148
45.6001,1.215
45.6011,1.2188
45.6026,1.5859
45.6042,2.221
45.6050,2.1409
45.6070,2.504
45.6085,2.6873
45.6102,2.7168
45.6121,2.4706
45.6131,1.5584
45.6145,1.219
45.6155,1.2143
45.6175,1.2143
45.6187,1.2145
45.6205,1.2143
45.6212,1.2188
45.6222,1.5777
45.6243,2.2688
45.6251,2.2135
45.6275,2.3866
45.6282,2.7207
45.6292,2.7205
45.6312,2.4856
45.6322,1.6154
45.6343,1.2195
45.6352,1.215
45.6361,1.2148
45.6383,1.2148
45.6391,1.215
45.6413,1.2184
45.6421,1.5422
45.6445,2.2073
45.6451,2.2692
45.6475,2.3794
45.6486,2.6735
45.6495,2.7203
45.6515,2.516
45.6522,1.6666
45.6547,1.2205
45.6632,1.2147
45.6724,1.2143
45.6842,1.2143
45.6871,1.2143
45.6881,1.2186
45.6881,1.5154
45.6891,2.1359
45.6891,2.3213
45.6901,2.3039
45.6901,2.6746
45.6911,2.7211
45.6911,2.5503
45.6921,1.7292
45.6921,1.2214
45.6921,1.2147
45.6931,1.2147
45.6931,1.2148
45.6941,1.2148
45.6941,1.2173
45.6951,1.4899
45.6951,2.0793
45.6961,2.3277
45.6971,2.2763
45.6981,2.6637
45.6981,2.7205
45.6981,2.57
45.6991,1.7691
45.6991,1.2225
45.7000,1.2152
45.7000,1.2147
45.7010,1.2143
45.7010,1.2143
45.7022,1.2167
45.7022,1.2269
45.7032,2.0699
45.7066,2.4108
45.7076,2.1899
45.7085,2.6628
45.7097,2.7207
45.7105,2.5906
45.7129,1.8327
45.7139,1.2235
45.7161,1.2154
45.7170,1.2147
45.7192,1.2147
45.7193,1.215
45.7203,1.2169
45.7225,1.2248
45.7233,2.0102
45.7255,2.434
45.7265,2.1786
45.7275,2.6733
45.7293,2.7201
45.7303,2.5973
45.7327,1.8529
45.7336,1.2248
45.7357,1.2154
45.7366,1.2143
45.7377,1.2145
45.7407,1.2143
45.7407,1.2169
45.7431,1.2225
45.7431,1.9062
45.7442,2.4524
45.7481,2.1211
45.7481,2.6888
45.7495,2.7205
45.7505,2.5846
45.7532,1.8511
45.7532,1.2248
45.7545,1.2154
45.7577,1.2148
45.7577,1.2148
45.7601,1.2147
45.7611,1.2169
45.7622,1.2205
45.7673,1.9004
45.7806,2.257
45.7910,2.0718
45.7947,2.6907
45.7947,2.7198
45.7955,2.57
45.7965,1.7912
45.7975,1.2227
45.7975,1.2152
45.7985,1.2143
45.7993,1.2141
45.7995,1.2148
45.8005,1.2169
45.8007,1.219
45.8007,1.311
45.8017,2.4205
45.8017,1.8955
45.8027,2.5945
45.8027,2.7203
45.8037,2.5737
45.8037,1.8398
45.8047,1.2255
45.8047,1.215
45.8057,1.2148
45.8057,1.2148
45.8068,1.2147
45.8074,1.2163
45.8078,1.222
45.8088,1.3165
45.8088,2.4554
45.8088,2.0033
45.8099,2.6703
45.8108,2.72
45.8108,2.7203
45.8118,1.8831
45.8129,1.2287
45.8148,1.2154
45.8158,1.2145
45.8182,1.2145
45.8182,1.2145
45.8216,1.2162
45.8226,1.2182
45.8228,1.2867
45.8250,2.2244
45.8257,1.9937
45.8279,2.6699
45.8289,2.72
45.8301,2.7207
45.8319,1.9866
45.8319,1.2559
45.8342,1.216
45.8352,1.2148
45.8388,1.215
45.8388,1.2147
45.8401,1.2167
45.8416,1.219
45.8426,1.3022
45.8455,1.7768
45.8464,1.9439
45.8474,2.5347
45.8496,2.7196
45.8504,2.72
45.8514,2.1972
45.8524,1.3275
45.8546,1.2162
45.8555,1.2147
45.8576,1.2143
45.8584,1.215
45.8594,1.2165
45.8614,1.2231
45.8627,1.33
45.8645,1.8166
45.8654,1.9399
45.8664,2.6541
45.8685,2.72
45.8697,2.7207
45.8716,2.2669
45.8773,1.3669
45.8873,1.2169
45.8963,1.215
45.8983,1.2145
45.8993,1.215
45.8993,1.2154
45.8993,1.2197
45.8993,1.3022
45.9003,1.7226
45.9003,2.014
45.9003,2.6646
45.9003,2.7196
45.9003,2.7198
45.9013,2.7005
45.9013,1.4048
45.9013,1.2169
45.9013,1.2148
45.9023,1.2143
45.9023,1.2145
45.9023,1.215
45.9023,1.2205
45.9033,1.2929
45.9033,1.7417
45.9057,1.9984
45.9063,2.4124
45.9095,2.7203
45.9095,2.7205
45.9105,2.704
45.9130,1.4618
45.9135,1.2173
45.9146,1.215
45.9168,1.2147
45.9187,1.2147
45.9196,1.2148
45.9205,1.2246
45.9235,1.2726
45.9235,1.6677
45.9257,2.4818
45.9267,2.6238
45.9278,2.7119
45.9325,2.7196
45.9435,2.7048
45.9456,1.4798
45.9465,1.2178
45.9472,1.215
45.9475,1.2147
45.9475,1.2147
45.9485,1.2148
45.9485,1.2201
45.9485,1.2619
45.9494,1.5989
45.9501,2.6108
45.9504,2.716
45.9506,2.7205
45.9506,2.7076
45.9526,1.5443
45.9534,1.219
45.9566,1.2154
45.9566,1.2147
45.9576,1.2147
45.9599,1.2147
45.9599,1.2201
45.9626,1.2524
45.9646,1.6255
45.9646,2.0682
45.9668,2.4389
45.9676,2.7021
45.9698,2.7198
45.9706,2.7125
45.9726,1.5291
45.9736,1.2186
45.9757,1.215
45.9766,1.2147
45.9776,1.2148
45.9806,1.2148
45.9835,1.2297
45.9915,1.2439
46.0010,1.5805
46.0045,2.1852
46.0055,2.494
46.0065,2.6093
46.0065,2.7205
46.0065,2.7171
46.0075,1.5713
46.0075,1.2192
46.0075,1.2152
46.0085,1.2147
46.0089,1.2147
46.0089,1.215
46.0098,1.2201
46.0098,1.2617
46.0105,1.5694
46.0105,2.2212
46.0115,2.4132
46.0115,2.675
46.0115,2.7196
46.0125,2.7151
46.0128,1.6426
46.0135,1.2199
46.0145,1.2152
46.0167,1.2143
46.0175,1.2145
46.0198,1.215
46.0208,1.2186
46.0231,1.2353
46.0238,1.5407
46.0247,1.9979
46.0270,2.3566
46.0278,2.6751
46.0295,2.7205
46.0313,2.4914
46.0323,1.5914
46.0455,1.2205
46.0473,1.2152
46.0483,1.2148
46.0483,1.215
46.0493,1.2147
46.0493,1.2178
46.0493,1.2308
46.0503,1.5104
46.0503,2.3082
46.0513,2.1241
46.0513,2.5971
46.0513,2.7196
46.0522,2.5418
46.0528,1.7294
46.0534,1.2216
46.0542,1.2152
46.0564,1.2147
46.0573,1.2147
46.0607,1.2147
46.0615,1.2171
46.0615,1.2332
46.0635,2.0958
46.0645,2.3659
46.0668,2.2733
46.0668,2.6682
46.0691,2.72
46.0699,2.5557
46.0731,1.7682
46.0732,1.2227
46.0742,1.2156
46.0768,1.2148
46.0772,1.2148
46.0796,1.2148
46.0802,1.2171
46.0823,1.2269
46.0833,1.9497
46.0842,2.4121
46.0894,2.1964
46.0915,2.665
46.1077,2.72
46.1101,2.5797
46.1133,1.8119
46.1136,1.2233
46.1146,1.2152
46.1147,1.2143
46.1147,1.2143
46.1156,1.2143
46.1156,1.2171
46.1166,1.2255
46.1166,1.9482
46.1166,2.3946
46.1177,2.1621
46.1177,2.6731
46.1177,2.7201
46.1186,2.594
46.1186,1.8533
46.1196,1.2252
46.1196,1.2156
46.1196,1.2148
46.1207,1.2147
46.1207,1.2148
46.1207,1.2173
46.1236,1.2237
46.1242,1.9328
46.1242,2.4089
46.1264,2.1141
46.1272,2.6911
46.1293,2.7201
46.1303,2.6165
46.1314,1.9137
46.1336,1.2295
46.1344,1.2152
46.1366,1.2143
46.1376,1.2143
46.1404,1.2143
46.1404,1.2167
46.1414,1.2227
46.1438,1.9009
46.1444,2.4419
46.1464,2.0989
46.1474,2.6984
46.1499,2.7207
46.1505,2.6384
46.1514,1.9881
46.1550,1.2443
46.1550,1.2158
46.1578,1.2147
46.1578,1.2147
46.1602,1.2148
46.1602,1.2171
46.1612,1.2222
46.1646,1.9268
46.1652,2.4923
46.1662,2.0159
46.1672,2.7018
46.1698,2.7201
46.1705,2.632
46.1714,1.9825
46.1745,1.2394
46.1755,1.2156
46.1768,1.2143
46.1768,1.2143
46.1794,1.2143
46.1804,1.2171
46.1812,1.344
46.1836,1.8655
46.1845,2.5066
46.1868,1.9906
46.1877,2.6603
46.1907,2.7209
46.1907,2.6541
46.1918,2.0581
46.1936,1.2625
46.1946,1.2147
46.2018,1.2148
46.2176,1.2148
46.2378,1.2148
46.2421,1.2169
46.2433,1.3349
46.2444,1.8516
46.2444,2.5165
46.2454,1.9339
46.2470,2.6676
46.2473,2.7205
46.2483,2.6635
46.2496,2.0943
46.2496,1.276
46.2506,1.2147
46.2516,1.2147
46.2516,1.2145
46.2526,1.2141
46.2536,1.2158
46.2536,1.2996
46.2546,1.7466
46.2556,2.4334
46.2559,1.9324
46.2569,2.666
46.2579,2.7209
46.2579,2.6626
46.2589,2.1124
46.2599,1.2889
46.2599,1.215
46.2609,1.2148
46.2621,1.2148
46.2631,1.2148
46.2643,1.216
46.2651,1.2876
46.2661,1.7399
46.2661,2.5115
46.2673,1.9289
46.2673,2.6562
46.2684,2.7205
46.2694,2.6802
46.2694,2.2069
46.2704,1.3369
46.2714,1.2167
46.2714,1.2145
46.2725,1.2147
46.2736,1.2143
46.2745,1.2154
46.2745,1.279
46.2755,1.7033
46.2765,2.4786
46.2765,1.9257
46.2775,2.647
46.2775,2.7211
46.2787,2.684
46.2798,2.2158
46.2807,1.3431
46.2807,1.2167
46.2817,1.215
46.2827,1.2148
46.2827,1.215
46.2837,1.2148
46.2849,1.219
46.2849,1.6688
46.2859,2.4738
46.2869,1.9637
46.2869,2.6316
46.2899,2.7203
46.2899,2.692
46.2912,2.2735
46.2922,1.3885
46.2964,1.2171
46.2972,1.2147
46.2972,1.2143
46.2985,1.2143
46.2995,1.2143
46.3019,1.219
46.3030,1.6583
46.3054,2.3577
46.3121,2.0026
46.3274,2.6105
46.3516,2.7201
46.3575,2.6978
46.3585,2.3322
46.3585,1.4464
46.3598,1.2175
46.3608,1.2147
46.3608,1.2147
46.3618,1.2147
46.3628,1.2152
46.3638,1.219
46.3650,1.6045
46.3660,2.3884
46.3660,2.0725
46.3670,2.5506
46.3682,2.7149
46.3690,2.7023
46.3690,2.3378
46.3702,1.4483
46.3702,1.2177
46.3712,1.2147
46.3722,1.2143
46.3722,1.2143
46.3732,1.2143
46.3742,1.2193
46.3752,1.5544
46.3754,2.3091
46.3764,2.1049
46.3764,2.5355
46.3774,2.6843
46.3784,2.7023
46.3794,2.3194
46.3794,1.4271
46.3814,1.2173
46.3824,1.215
46.3824,1.2147
46.3835,1.2148
46.3844,1.215
46.3854,1.2171
46.3854,1.2272
46.3866,2.0549
46.3866,2.1563
46.3876,2.431
46.3886,2.6693
46.3886,2.7141
46.3896,2.4831
46.3906,1.6305
46.3906,1.2197
46.3918,1.2152
46.3928,1.2145
46.3928,1.2145
46.3938,1.2147
46.3948,1.2225
46.3948,1.3045
46.3958,2.3639
46.3970,2.2313
46.3970,2.4702
46.3980,2.6691
46.3990,2.7198
46.3992,2.6367
46.4000,1.9122
46.4000,1.2263
46.4010,1.2158
46.4010,1.2148
46.4021,1.2147
46.4021,1.215
46.4021,1.2188
46.4032,1.2375
46.4032,2.1989
46.4042,2.3028
46.4074,2.314
46.4074,2.6648
46.4106,2.7205
46.4106,2.4353
46.4127,1.5724
46.4139,1.2192
46.4139,1.215
46.4187,1.2145
46.4329,1.2145
46.4369,1.2143
46.4369,1.219
46.4379,1.2287
46.4379,2.0871
46.4379,2.3185
46.4389,2.2741
46.4389,2.6626
46.4389,2.7201
46.4399,2.4786
46.4399,1.6463
46.4399,1.2203
46.4409,1.2152
46.4409,1.2147
46.4409,1.215
46.4419,1.2148
46.4421,1.2175
46.4421,1.227
46.4445,1.4541
46.4451,2.3616
46.4461,2.2452
46.4473,2.6665
46.4482,2.7203
46.4515,2.5064
46.4515,1.6885
46.4547,1.2214
46.4547,1.2154
46.4578,1.2148
46.4579,1.2145
46.4579,1.2145
46.4612,1.2167
46.4619,1.2246
46.4630,1.4324
46.4657,2.3693
46.4657,2.2242
46.4685,2.6641
46.4685,2.7198
46.4717,2.7201
46.4717,1.7114
46.4727,1.2218
46.4751,1.2152
46.4751,1.2147
46.4774,1.2145
46.4782,1.2147
46.4805,1.2175
46.4815,1.2235
46.4823,1.4117
46.4846,2.4293
46.4857,2.1308
46.4886,2.6761
46.4886,2.7203
46.4906,2.7207
46.4916,1.7766
46.4926,1.2231
46.4961,1.2152
46.4969,1.2148
46.4979,1.215
46.4985,1.2148
46.4995,1.2186
46.5025,1.2223
46.5025,1.3849
46.5058,1.9317
46.5068,2.0933
46.5068,2.6958
46.5086,2.7198
46.5096,2.72
46.5134,1.8533
46.5144,1.2257
46.5144,1.2154
46.5155,1.2145
46.5186,1.2143
46.5196,1.2147
46.5196,1.2188
46.5232,1.221
46.5322,1.3664
46.5612,1.8777
46.5687,2.0588
46.5698,2.6909
46.5707,2.7203
46.5707,2.7209
46.5716,2.5758
46.5726,1.2274
46.5726,1.2156
46.5736,1.215
46.5746,1.2148
46.5749,1.2148
46.5759,1.2182
46.5759,1.2207
46.5769,1.339
46.5779,1.8413
46.5779,2.0305
46.5789,2.6744
46.5808,2.7198
46.5818,2.7203
46.5829,2.6084
46.5829,1.2349
46.5839,1.2156
46.5848,1.2147
46.5858,1.2143
46.5858,1.2143
46.5868,1.2175
46.5878,1.2193
46.5888,1.305
46.5888,1.7873
46.5898,1.9277
46.5908,2.6592
46.5908,2.7203
46.5918,2.7207
46.5929,2.6022
46.5940,1.233
46.5940,1.2156
46.5949,1.2148
46.5959,1.2145
46.5972,1.2148
46.5982,1.2186
46.5982,1.2184
46.5992,1.2833
46.6002,1.7299
46.6002,2.4398
46.6012,2.6748
46.6022,2.7201
46.6022,2.7205
46.6034,2.5925
46.6044,1.2302
46.6044,1.2152
46.6054,1.2147
46.6064,1.2145
46.6064,1.2143
46.6074,1.2163
46.6086,1.2173
46.6098,1.2634
46.6098,1.6388
46.6108,2.3937
46.6118,2.6648
46.6127,2.7201
46.6127,2.7207
46.6140,2.5917
46.6140,1.8724
46.6150,1.2156
46.6160,1.2147
46.6160,1.2148
46.6170,1.2148
46.6192,1.2148
46.6205,1.2169
46.6215,1.2501
46.6237,1.6094
46.6248,2.2904
46.6279,2.6637
46.6289,2.72
46.6289,2.7203
46.6306,2.6166
46.6316,1.9041
46.6353,1.2154
46.6361,1.2147
46.6361,1.2143
46.6377,1.2143
46.6387,1.2143
46.6449,1.2171
46.6611,1.2475
46.6790,1.5885
46.6853,2.3691
46.6853,2.7203
46.6864,2.7207
46.6873,2.6485
46.6883,1.2732
46.6883,1.2158
46.6893,1.2148
46.6906,1.2148
46.6906,1.2147
46.6916,1.215
46.6926,1.2186
46.6926,1.2512
46.6936,1.6047
46.6946,2.3905
46.6946,2.6266
46.6955,2.72
46.6967,2.7203
46.6986,2.6772
46.6996,2.1685
46.6996,1.2165
46.7006,1.2147
46.7016,1.2143
46.7016,1.2143
46.7026,1.2145
46.7038,1.2192
46.7038,1.2529
46.7048,1.5966
46.7058,2.4033
46.7058,2.6063
46.7068,2.7201
46.7078,2.7213
46.7089,2.6952
46.7090,2.2784
46.7100,1.2173
46.7100,1.2148
46.7110,1.2147
46.7120,1.2147
46.7131,1.2148
46.7140,1.219
46.7152,1.2471
46.7152,1.5929
46.7163,2.2977
46.7172,2.5598
46.7172,2.7119
46.7182,2.7205
46.7192,2.705
46.7192,2.3618
46.7204,1.218
46.7204,1.215
46.7215,1.2145
46.7224,1.2147
46.7224,1.2143
46.7234,1.2192
46.7244,1.2437
46.7244,1.5777
46.7256,2.3215
46.7267,2.1194
46.7276,2.684
46.7296,2.7198
46.7298,2.7098
46.7326,2.4012
46.7326,1.2184
46.7346,1.2148
46.7356,1.2147
46.7382,1.2147
46.7386,1.2145
46.7406,1.2188
46.7416,1.2409
46.7426,1.5655
46.7489,2.2649
46.7651,2.1826
46.7827,2.6763
46.7858,2.7205
46.7867,2.7138
46.7867,2.4246
46.7867,1.2188
46.7877,1.2152
46.7877,1.2147
46.7889,1.2147
46.7889,1.2147
46.7899,1.2186
46.7899,1.2355
46.7909,1.525
46.7909,2.179
46.7909,2.2315
46.7919,2.6735
46.7919,2.7198
46.7929,2.7186
46.7929,2.4597
46.7939,1.5951
46.7939,1.2152
46.7939,1.2148
46.7950,1.2147
46.7950,1.2145
46.7966,1.2178
46.7970,1.2319
46.7970,1.5145
46.7980,2.1357
46.7980,2.2604
46.7990,2.6609
46.7990,2.7203
46.8000,2.7205
46.8000,2.4905
46.8000,1.6367
46.8012,1.2154
46.8012,1.2147
46.8022,1.2145
46.8022,1.2147
46.8032,1.2147
46.8032,1.23
46.8032,1.504
46.8042,2.0999
46.8053,2.3358
46.8062,2.6626
46.8097,2.7201
46.8097,2.7201
46.8126,2.503
46.8126,1.6842
46.8137,1.2152
46.8166,1.2148
46.8166,1.2143
46.8196,1.2148
46.8196,1.2147
46.8206,1.2287
46.8231,1.4905
46.8231,2.0778
46.8267,2.3899
46.8267,2.2255
46.8290,2.7203
46.8292,2.7205
46.8302,2.5497
46.8336,1.7646
46.8342,1.2154
46.8352,1.2147
46.8362,1.2147
46.8372,1.2147
46.8393,1.2143
46.8402,1.2263
46.8439,1.4556
46.8439,1.9727
46.8459,2.4254
46.8459,2.1835
46.8469,2.7196
46.8502,2.7201
46.8512,2.5775
46.8525,1.8267
46.8652,1.2158
46.8785,1.2148
46.8795,1.2147
46.8795,1.2145
46.8805,1.2147
46.8805,1.2246
46.8815,1.4331
46.8815,1.9977
46.8825,2.4271
46.8825,2.1426
46.8825,2.7201
46.8835,2.7207
46.8845,2.5975
46.8847,1.8655
46.8847,1.2158
46.8857,1.215
46.8857,1.2148
46.8867,1.2145
46.8867,1.2147
46.8867,1.2235
46.8877,1.4151
46.8877,1.9697
46.8887,2.47
46.8887,2.0789
46.8887,2.7196
46.8899,2.72
46.8904,2.627
46.8915,1.9502
46.8949,1.2347
46.8950,1.2147
46.8961,1.2143
46.8977,1.2147
46.8993,1.2148
46.9015,1.2227
46.9015,1.3945
46.9047,1.948
46.9047,2.4946
46.9071,2.0721
46.9071,2.7203
46.9107,2.7207
46.9107,2.6511
46.9118,2.0416
46.9148,1.2563
46.9148,1.2148
46.9176,1.2145
46.9182,1.2145
46.9182,1.2141
46.9217,1.2169
46.9217,1.3574
46.9241,1.8424
46.9241,2.5053
46.9277,2.0001
46.9277,2.7198
46.9288,2.7215
46.9309,2.6551
46.9309,2.0673
46.9342,1.2659
46.9342,1.215
46.9363,1.2147
46.9387,1.2148
46.9387,1.2148
46.9408,1.2173
46.9409,1.3502
46.9446,1.8734
46.9451,2.5066
46.9463,1.9885
46.9487,2.7201
46.9487,2.7201
46.9518,2.6686
46.9518,2.1319
46.9547,1.2839
46.9547,1.2147
46.9571,1.2141
46.9571,1.2143
46.9581,1.2143
46.9614,1.2208
46.9662,1.3339
46.9761,1.8364
46.9868,2.5345
46.9898,1.9414
46.9907,2.7203
46.9907,2.7205
46.9919,2.6781
46.9919,2.1961
46.9927,1.3236
46.9927,1.215
46.9937,1.2147
46.9937,1.2148
46.9937,1.215
46.9947,1.2201
46.9947,1.3195
46.9957,1.8001
46.9957,2.5274
46.9967,1.9191
46.9977,2.7201
46.9977,2.7205
46.9977,2.6847
46.9987,2.2253
46.9987,1.2165
46.9997,1.2147
46.9997,1.2147
47.0007,1.2145
47.0007,1.2141
47.0007,1.2197
47.0019,1.2992
47.0047,1.7251
47.0047,2.4636
47.0058,1.9191
47.0087,2.7203
47.0087,2.7203
47.0109,2.686
47.0117,2.2489
47.0135,1.2169
47.0149,1.2152
47.0157,1.2148
47.0188,1.2148
47.0196,1.215
47.0206,1.2195
47.0216,1.2814
47.0238,1.6981
47.0248,2.4807
47.0256,1.9469
47.0286,2.72
47.0296,2.7201
47.0306,2.6939
47.0318,2.3043
47.0347,1.2171
47.0347,1.2148
47.0358,1.2141
47.0389,1.2143
47.0389,1.2141
47.0400,1.2207
47.0411,1.2769
47.0447,1.6979
47.0447,2.4766
47.0457,2.6243
47.0487,2.7201
47.0487,2.7203
47.0520,2.7021
47.0524,2.3753
47.0532,1.2177
47.0541,1.2152
47.0552,1.2147
47.0575,1.2147
47.0585,1.215
47.0616,1.2207
47.0616,1.2722
47.0626,1.6896
47.0656,2.4618
47.0656,2.6088
47.0680,2.7196
47.0680,2.7201
47.0733,2.7085
47.0832,2.425
47.0935,1.2184
47.0975,1.215
47.0985,1.2145
47.0985,1.2143
47.0995,1.2147
47.0995,1.2207
47.1005,1.2627
47.1005,1.6529
47.1014,2.3391
47.1014,2.5878
47.1014,2.707
47.1026,2.7203
47.1026,2.7134
47.1026,2.4738
47.1036,1.2195
47.1036,1.2152
47.1046,1.215
47.1046,1.2147
47.1046,1.215
47.1056,1.2203
47.1056,1.255
47.1066,1.6358
47.1066,2.3646
47.1076,2.4923
47.1076,2.6873
47.1087,2.7205
47.1117,2.7207
47.1127,1.6236
47.1139,1.2201
47.1147,1.215
47.1158,1.2148
47.1179,1.2145
47.1188,1.2147
47.1217,1.2212
47.1217,1.249
47.1228,1.6225
47.1253,2.323
47.1253,2.4468
47.1287,2.6658
47.1298,2.72
47.1307,2.7201
47.1319,1.7026
47.1327,1.2212
47.1349,1.2152
47.1359,1.2147
47.1387,1.2145
47.1387,1.2148
47.1410,1.2197
47.1411,1.2445
47.1421,1.5957
47.1462,2.2553
47.1463,2.3952
47.1473,2.662
47.1483,2.7205
47.1516,2.7207
47.1516,1.6889
47.1526,1.221
47.1556,1.2152
47.1556,1.2148
47.1587,1.2147
47.1587,1.2147
47.1598,1.2173
47.1622,1.2257
47.1634,1.4284
47.1645,2.2913
47.1655,2.3009
47.1679,2.665
47.1689,2.72
47.1718,2.7198
47.1728,1.642
47.1728,1.225
47.1745,1.216
47.1755,1.215
47.1792,1.2145
47.1856,1.215
47.2019,1.2208
47.2183,1.2702
47.2183,1.8237
47.2197,2.3768
47.2197,2.302
47.2207,2.6933
47.2217,2.7203
47.2217,2.7205
47.2227,2.2988
47.2227,1.3414
47.2236,1.2175
47.2236,1.215
47.2246,1.2143
47.2258,1.2148
47.2259,1.2193
47.2266,1.2419
47.2276,1.6251
47.2276,2.4123
47.2286,2.2383
47.2296,2.6714
47.2307,2.72
47.2319,2.7201
47.2319,1.9071
47.2329,1.2276
47.2329,1.2156
47.2339,1.2145
47.2339,1.2147
47.2349,1.2148
47.2359,1.2177
47.2359,1.2298
47.2371,1.5132
47.2371,2.4438
47.2381,2.1807
47.2381,2.6691
47.2391,2.7203
47.2401,2.6573
47.2401,1.9936
47.2412,1.239
47.2422,1.216
47.2422,1.215
47.2433,1.2147
47.2433,1.2143
47.2443,1.2177
47.2453,1.2269
47.2453,1.4751
47.2462,2.4453
47.2472,2.1522
47.2484,2.6916
47.2485,2.7196
47.2496,2.6598
47.2526,2.0241
47.2537,1.2473
47.2537,1.216
47.2557,1.2145
47.2575,1.2145
47.2586,1.2148
47.2597,1.2177
47.2627,1.2259
47.2635,2.0194
47.2645,2.5373
47.2657,2.0875
47.2676,2.6993
47.2687,2.7203
47.2696,2.6761
47.2726,2.0866
47.2726,1.2642
47.2748,1.2162
47.2757,1.215
47.2780,1.2143
47.2780,1.2147
47.2791,1.2188
47.2832,1.2252
47.2832,1.9808
47.2842,2.5304
47.2862,2.056
47.2922,2.6871
47.3067,2.7196
47.3251,2.6804
47.3251,2.1231
47.3261,1.2825
47.3271,1.2162
47.3271,1.2143
47.3281,1.2141
47.3281,1.2148
47.3301,1.2178
47.3311,1.2235
47.3311,1.9403
47.3321,2.5446
47.3321,1.9829
47.3341,2.6744
47.3353,2.7203
47.3353,2.689
47.3363,2.1751
47.3363,1.3054
47.3373,1.2163
47.3373,1.2145
47.3383,1.2148
47.3393,1.2148
47.3393,1.2177
47.3405,1.2225
47.3405,1.8657
47.3415,2.4959
47.3415,1.9765
47.3425,2.6785
47.3435,2.7198
47.3435,2.6858
47.3445,2.2225
47.3445,1.3343
47.3457,1.2165
47.3467,1.2147
47.3469,1.2147
47.3477,1.2147
47.3488,1.2173
47.3488,1.2218
47.3497,1.8529
47.3508,2.5525
47.3509,1.9315
47.3519,2.6607
47.3519,2.7203
47.3529,2.2829
47.3529,1.3654
47.3545,1.2152
47.3555,1.215
47.3576,1.2148
47.3586,1.2145
47.3596,1.2171
47.3620,1.3169
47.3630,1.7918
47.3645,2.549
47.3657,1.9172
47.3666,2.6645
47.3697,2.72
47.3707,2.6915
47.3715,2.2654
47.3725,1.3628
47.3757,1.215
47.3768,1.2147
47.3768,1.2147
47.3793,1.2145
47.3799,1.2158
47.3827,1.2878
47.3837,1.7065
47.3837,2.5163
47.3859,1.9009
47.3867,2.6618
47.3902,2.7205
47.3912,2.6873
47.3912,2.2396
47.3922,1.3572
47.3943,1.215
47.3965,1.2147
47.3972,1.2145
47.3983,1.2145
47.3994,1.2148
47.4017,1.2638
47.4025,1.6497
47.4035,2.3554
47.4070,1.9761
47.4078,2.6395
47.4078,2.72
47.4101,2.6858
47.4202,2.224
47.4418,1.3609
47.4488,1.2171
47.4498,1.2147
47.4508,1.2147
47.4508,1.2145
47.4520,1.2147
47.4520,1.2522
47.4530,1.6092
47.4530,2.4081
47.4540,2.0132
47.4550,2.5731
47.4550,2.7203
47.4560,2.6945
47.4560,2.2662
47.4570,1.3877
47.4580,1.2169
47.4582,1.2147
47.4592,1.2145
47.4592,1.2145
47.4602,1.2145
47.4602,1.2195
47.4612,1.5966
47.4622,2.3811
47.4622,2.0316
47.4632,2.591
47.4642,2.7198
47.4652,2.707
47.4652,2.4004
47.4662,1.4974
47.4662,1.2182
47.4672,1.2148
47.4682,1.2147
47.4682,1.2147
47.4692,1.215
47.4692,1.2197
47.4703,1.6199
47.4703,2.3914
47.4713,2.1113
47.4723,2.5514
47.4723,2.7008
47.4733,2.7198
47.4733,2.5343
47.4743,1.6422
47.4753,1.2203
47.4753,1.2145
47.4763,1.2145
47.4773,1.2143
47.4793,1.2143
47.4803,1.2205
47.4825,1.6827
47.4836,2.3217
47.4845,2.1603
47.4870,2.519
47.4886,2.6864
47.4890,2.7209
47.4924,2.5842
47.4931,1.789
47.4931,1.2229
47.4941,1.2148
47.4965,1.2148
47.4977,1.2148
47.5008,1.2152
47.5008,1.2199
47.5018,1.6611
47.5043,2.3429
47.5053,2.2501
47.5120,2.4087
47.5263,2.6673
47.5422,2.7203
47.5483,2.6144
47.5493,1.8402
47.5493,1.2237
47.5506,1.2156
47.5506,1.2143
47.5516,1.2141
47.5516,1.2145
47.5526,1.2208
47.5526,1.6551
47.5536,2.3018
47.5546,2.2951
47.5546,2.3599
47.5556,2.6755
47.5556,2.7209
47.5568,2.6435
47.5578,1.9142
47.5578,1.2278
47.5588,1.2162
47.5588,1.2152
47.5598,1.2147
47.5608,1.215
47.5608,1.2195
47.5618,1.2467
47.5618,2.2662
47.5638,2.338
47.5648,2.3033
47.5648,2.6663
47.5658,2.72
47.5668,2.6519
47.5668,2.0048
47.5678,1.2389
47.5688,1.216
47.5688,1.2145
47.5700,1.2143
47.5700,1.2145
47.5710,1.2184
47.5710,1.2413
47.5720,2.1571
47.5720,2.3515
47.5730,2.2741
47.5740,2.6723
47.5740,2.7209
47.5752,2.6545
47.5752,2.0337
47.5762,1.2479
47.5762,1.2162
47.5772,1.2148
47.5772,1.2148
47.5782,1.2148
47.5802,1.2182
47.5814,1.2357
47.5824,2.158
47.5847,2.4363
47.5857,2.2079
47.5876,2.6714
47.5892,2.72
47.5896,2.6862
47.5916,2.0828
47.5927,1.2572
47.5946,1.2162
47.5957,1.2147
47.5967,1.2143
47.5986,1.2145
47.5996,1.2188
47.6017,1.2336
47.6027,2.1454
47.6046,2.4861
47.6056,2.1901
47.6076,2.6755
47.6086,2.7201
47.6098,2.6742
47.6115,2.1694
47.6128,1.2874
47.6148,1.2165
47.6160,1.2152
47.6170,1.2147
47.6190,1.2147
47.6190,1.2184
47.6210,1.2308
47.6222,2.0821
47.6246,2.516
47.6256,2.1383
47.6310,2.6939
47.6462,2.7196
47.6616,2.6798
47.6664,2.2141
47.6674,1.3185
47.6684,1.2169
47.6684,1.2147
47.6694,1.2145
47.6704,1.2148
47.6704,1.2182
47.6714,1.2291
47.6714,2.0494
47.6727,2.4965
47.6736,2.1199
47.6736,2.704
47.6746,2.7203
47.6746,2.6978
47.6756,2.2465
47.6766,1.3335
47.6766,1.2167
47.6776,1.2152
47.6776,1.2148
47.6786,1.2148
47.6799,1.2178
47.6805,1.228
47.6816,2.0472
47.6826,2.5679
47.6826,2.0526
47.6836,2.6811
47.6836,2.7198
47.6846,2.7046
47.6856,2.3196
47.6856,1.3815
47.6866,1.2171
47.6866,1.2145
47.6876,1.2145
47.6888,1.2148
47.6895,1.2177
47.6895,1.2263
47.6905,1.9949
47.6905,2.5846
47.6915,2.0267
47.6915,2.6798
47.6925,2.7201
47.6935,2.6991
47.6935,2.3614
47.6945,1.4136
47.6945,1.2175
47.6955,1.2148
47.6972,1.2148
47.6986,1.2147
47.6995,1.2173
47.7016,1.2252
47.7025,1.933
47.7035,2.5895
47.7056,1.9832
47.7065,2.668
47.7095,2.7198
47.7105,2.7106
47.7115,2.4109
47.7125,1.446
47.7135,1.2178
47.7165,1.2145
47.7175,1.2143
47.7185,1.2148
47.7196,1.2169
47.7208,1.2246
47.7226,1.9302
47.7236,2.5623
47.7266,1.933
47.7276,2.6695
47.7286,2.7205
47.7296,2.7117
47.7318,2.4481
47.7326,1.4792
47.7336,1.2184
47.7427,1.2148
47.7565,1.215
47.7736,1.2148
47.7782,1.2163
47.7785,1.3812
47.7795,1.8944
47.7805,2.615
47.7816,1.9647
47.7826,2.6491
47.7826,2.72
47.7835,2.7203
47.7845,2.4807
47.7845,1.528
47.7855,1.2184
47.7855,1.2143
47.7865,1.2148
47.7875,1.2147
47.7875,1.2156
47.7885,1.3589
47.7885,1.8511
47.7895,2.6016
47.7895,1.9491
47.7905,2.6712
47.7915,2.7203
47.7915,2.7207
47.7925,2.513
47.7935,1.5752
47.7935,1.2154
47.7945,1.2148
47.7945,1.2148
47.7955,1.2148
47.7964,1.2152
47.7974,1.3313
47.7974,1.7687
47.7986,2.5692
47.7994,1.9692
47.7994,2.6558
47.8004,2.7198
47.8004,2.7166
47.8014,2.5158
47.8024,1.606
47.8024,1.215
47.8034,1.2145
47.8034,1.2143
47.8044,1.2143
47.8044,1.215
47.8054,1.3058
47.8064,1.7607
47.8064,2.5272
47.8074,2.0204
47.8074,2.7201
47.8084,2.7207
47.8106,2.7209
47.8114,2.5503
47.8124,1.6592
47.8134,1.2154
47.8154,1.2148
47.8164,1.2147
47.8184,1.2147
47.8194,1.2223
47.8204,1.296
47.8224,1.7567
47.8234,2.524
47.8268,2.0744
47.8268,2.7121
47.8278,2.7198
47.8300,2.7201
47.8308,2.5617
47.8338,1.7352
47.8349,1.2154
47.8349,1.2148
47.8369,1.2143
47.8390,1.2145
47.8399,1.222
47.8409,1.2857
47.8440,1.7408
47.8440,2.4794
47.8500,2.1511
47.8640,2.6961
47.8799,2.7203
47.8839,2.7207
47.8839,2.6151
47.8849,1.2235
47.8859,1.2156
47.8859,1.215
47.8869,1.2148
47.8869,1.2147
47.8879,1.2216
47.8889,1.2719
47.8889,1.6949
47.8899,2.3976
47.8899,2.1901
47.8909,2.6798
47.8909,2.7196
47.8919,2.72
47.8929,2.6453
47.8929,1.2269
47.8939,1.216
47.8949,1.215
47.8949,1.2147
47.8969,1.2145
47.8979,1.2214
47.8979,1.2615
47.8989,1.6932
47.8989,2.3809
47.8999,2.2617
47.9009,2.6766
47.9009,2.7203
47.9019,2.7203
47.9019,2.6598
47.9029,1.2298
47.9039,1.2156
47.9039,1.2147
47.9049,1.2148
47.9059,1.2147
47.9059,1.2208
47.9070,1.2559
47.9079,1.6932
47.9079,2.3176
47.9089,2.3335
47.9089,2.6714
47.9099,2.7198
47.9109,2.7203
47.9109,2.6718
47.9123,1.2411
47.9143,1.2162
47.9154,1.2148
47.9163,1.2148
47.9184,1.2148
47.9195,1.2199
47.9204,1.249
47.9228,1.6772
47.9234,2.2521
47.9256,2.2784
47.9264,2.6855
47.9274,2.7201
47.9294,2.7203
47.9304,2.6607
47.9326,1.2482
47.9334,1.2162
47.9354,1.2147
47.9364,1.2143
47.9374,1.2143
47.9395,1.2171
47.9404,1.2272
47.9425,1.4719
47.9434,2.0041
47.9458,2.2302
47.9467,2.6723
47.9477,2.7203
47.9498,2.7205
47.9507,2.5527
47.9528,1.2253
47.9576,1.2165
47.9716,1.215
47.9876,1.2148
47.9926,1.2152
47.9926,1.2201
47.9935,1.2696
47.9945,1.8304
47.9945,2.3164
47.9955,2.2469
47.9966,2.6825
47.9975,2.72
47.9985,2.7203
47.9985,2.5311
47.9995,1.5672
48.0005,1.2207
48.0005,1.2154
48.0015,1.2147
48.0015,1.2147
48.0025,1.2223
48.0025,1.2563
48.0035,1.7207
48.0045,2.2319
48.0045,2.1698
48.0055,2.6937
48.0055,2.7205
48.0065,2.7209
48.0065,2.2324
48.0075,1.3129
48.0075,1.2165
48.0085,1.2152
48.0095,1.2148
48.0095,1.2147
48.0105,1.2193
48.0105,1.2312
48.0115,1.5398
48.0115,2.1153
48.0125,2.1192
48.0138,2.7001
48.0145,2.72
48.0155,2.7201
48.0155,2.2647
48.0165,1.3326
48.0175,1.2169
48.0175,1.2148
48.0185,1.2143
48.0195,1.2143
48.0195,1.219
48.0205,1.2295
48.0225,1.5062
48.0235,2.5373
48.0255,2.0723
48.0265,2.6984
48.0275,2.7205
48.0295,2.7203
48.0305,2.3224
48.0326,1.3742
48.0335,1.2173
48.0345,1.2152
48.0365,1.2148
48.0375,1.2148
48.0396,1.219
48.0405,1.2267
48.0425,1.4605
48.0435,2.5591
48.0445,2.0236
48.0465,2.6879
48.0475,2.72
48.0495,2.7203
48.0505,2.3785
48.0535,1.2175
48.0565,1.2148
48.0575,1.2147
48.0575,1.2148
48.0596,1.2193
48.0605,1.2265
48.0625,1.9808
48.0635,2.6131
48.0695,1.9932
48.0834,2.6699
48.1014,2.7203
48.1024,2.71
48.1024,2.3898
48.1034,1.4444
48.1044,1.2178
48.1044,1.2154
48.1054,1.2148
48.1054,1.2147
48.1063,1.218
48.1073,1.2246
48.1073,1.9397
48.1083,2.6213
48.1083,1.9457
48.1093,2.6744
48.1103,2.7196
48.1103,2.7205
48.1113,2.4565
48.1123,1.4933
48.1134,1.2182
48.1144,1.215
48.1144,1.2143
48.1154,1.2143
48.1154,1.2173
48.1164,1.2233
48.1164,1.375
48.1174,2.5505
48.1184,1.9277
48.1184,2.6751
48.1194,2.7203
48.1194,2.7115
48.1203,2.4618
48.1203,1.503
48.1213,1.2184
48.1223,1.2154
48.1223,1.2148
48.1233,1.215
48.1233,1.216
48.1243,1.2223
48.1243,1.3549
48.1253,2.575
48.1263,1.9146
48.1263,2.6738
48.1275,2.72
48.1285,2.7198
48.1305,2.468
48.1315,1.5186
48.1337,1.2184
48.1347,1.215
48.1357,1.2145
48.1377,1.2147
48.1386,1.2154
48.1398,1.2223
48.1419,1.3234
48.1429,2.5705
48.1448,1.9313
48.1458,2.6598
48.1478,2.7205
48.1488,2.7207
48.1508,2.4781
48.1520,1.5458
48.1530,1.2186
48.1549,1.215
48.1559,1.2147
48.1576,1.2147
48.1586,1.2148
48.1606,1.2208
48.1616,1.2899
48.1626,2.504
48.1647,1.9919
48.1657,2.6363
48.1677,2.7196
48.1687,2.72
48.1699,2.4563
48.1719,1.5197
48.1730,1.2184
48.1820,1.215
48.2103,1.2145
48.2183,1.2147
48.2202,1.215
48.2202,1.2199
48.2212,1.2625
48.2212,1.6523
48.2222,2.0554
48.2222,2.5949
48.2234,2.7188
48.2244,2.7207
48.2244,2.4271
48.2254,1.5164
48.2254,1.2184
48.2264,1.2152
48.2264,1.2148
48.2274,1.2147
48.2274,1.2148
48.2284,1.2193
48.2297,1.2503
48.2304,1.6154
48.2314,2.1291
48.2324,2.5323
48.2324,2.7053
48.2334,2.72
48.2334,2.7168
48.2344,1.5726
48.2356,1.219
48.2356,1.215
48.2366,1.2143
48.2366,1.2148
48.2376,1.215
48.2385,1.2197
48.2385,1.2458
48.2395,1.6034
48.2395,2.1719
48.2405,2.4961
48.2405,2.684
48.2417,2.7205
48.2417,2.7209
48.2427,1.6898
48.2437,1.2212
48.2437,1.215
48.2447,1.2148
48.2447,1.2148
48.2457,1.2148
48.2471,1.2195
48.2478,1.2535
48.2487,1.6486
48.2487,2.2204
48.2498,2.4331
48.2507,2.6738
48.2517,2.7198
48.2517,2.7201
48.2529,1.8972
48.2539,1.2263
48.2549,1.2156
48.2549,1.2147
48.2569,1.2143
48.2579,1.2148
48.2599,1.2205
48.2609,1.2597
48.2623,1.7022
48.2639,2.2728
48.2653,2.3811
48.2662,2.6695
48.2683,2.7207
48.2693,2.7207
48.2702,2.0157
48.2724,1.2398
48.2734,1.2162
48.2754,1.2148
48.2764,1.2147
48.2776,1.2147
48.2796,1.2201
48.2861,1.255
48.2990,1.7059
48.3091,2.3086
48.3112,2.3209
48.3112,2.6744
48.3120,2.7198
48.3120,2.72
48.3130,2.1001
48.3130,1.2542
48.3130,1.2163
48.3140,1.2145
48.3140,1.2143
48.3140,1.2148
48.3140,1.2195
48.3150,1.2488
48.3150,1.6857
48.3150,2.2489
48.3160,2.278
48.3160,2.6693
48.3160,2.7201
48.3160,2.7207
48.3172,2.6894
48.3172,1.2805
48.3172,1.2165
48.3182,1.215
48.3182,1.2148
48.3182,1.2148
48.3195,1.219
48.3205,1.2432
48.3229,1.6506
48.3236,2.2259
48.3246,2.2214
48.3268,2.6673
48.3276,2.72
48.3289,2.7203
48.3308,2.6993
48.3308,1.3107
48.3342,1.2165
48.3342,1.2147
48.3377,1.2143
48.3377,1.2143
48.3401,1.219
48.3401,1.2404
48.3412,1.6427
48.3445,2.1693
48.3445,2.185
48.3468,2.675
48.3468,2.7205
48.3508,2.7205
48.3508,2.7021
48.3508,1.3281
48.3546,1.2171
48.3546,1.2152
48.3570,1.2148
48.3570,1.2148
48.3607,1.2195
48.3607,1.2351
48.3617,1.5833
48.3645,2.152
48.3655,2.1428
48.3666,2.6965
48.3676,2.72
48.3699,2.7201
48.3708,2.7027
48.3708,1.3478
48.3743,1.2171
48.3748,1.2147
48.3777,1.2143
48.3777,1.2143
48.3800,1.2195
48.3801,1.2321
48.3818,1.554
48.3845,2.1104
48.3854,2.0881
48.3877,2.6997
48.3877,2.7203
48.3898,2.7211
48.3957,2.3234
48.4160,1.366
48.4216,1.2173
48.4225,1.2152
48.4225,1.215
48.4235,1.2152
48.4235,1.2193
48.4245,1.2297
48.4245,1.5049
48.4257,2.0538
48.4257,2.0372
48.4267,2.6781
48.4267,2.72
48.4277,2.7203
48.4277,2.3879
48.4287,1.4144
48.4297,1.2177
48.4307,1.2147
48.4307,1.2143
48.4319,1.2143
48.4319,1.2192
48.4329,1.2278
48.4329,1.4834
48.4338,2.5904
48.4338,1.9847
48.4348,2.6684
48.4348,2.7205
48.4358,2.7209
48.4358,2.4098
48.4368,1.4535
48.4368,1.218
48.4380,1.2152
48.4380,1.2148
48.4390,1.2148
48.4390,1.2184
48.4405,1.2263
48.4415,1.4445
48.4438,2.5986
48.4445,1.9517
48.4467,2.6712
48.4476,2.7203
48.4497,2.7205
48.4508,2.4528
48.4518,1.4832
48.4550,1.2182
48.4550,1.215
48.4565,1.2143
48.4577,1.2143
48.4585,1.2178
48.4608,1.2246
48.4615,1.4147
48.4647,2.6071
48.4647,1.9131
48.4673,2.6665
48.4673,2.7203
48.4699,2.7209
48.4705,2.4942
48.4709,1.536
48.4747,1.2188
48.4747,1.2154
48.4770,1.2148
48.4770,1.2148
48.4780,1.2173
48.4811,1.2237
48.4821,1.3808
48.4833,2.596
48.4841,1.8812
48.4866,2.6641
48.4876,2.72
48.4886,2.7203
48.4909,2.5139
48.4909,1.5812
48.4936,1.219
48.4947,1.2152
48.4969,1.2145
48.4976,1.2143
48.4988,1.2156
48.5029,1.2238
48.5142,1.3602
48.5271,2.5784
48.5311,1.9009
48.5320,2.6528
48.5320,2.7205
48.5330,2.7209
48.5330,2.5581
48.5340,1.6504
48.5340,1.2203
48.5350,1.2154
48.5350,1.2147
48.5360,1.2148
48.5362,1.2152
48.5362,1.2235
48.5372,1.7824
48.5372,2.5563
48.5382,1.9486
48.5382,2.633
48.5392,2.7198
48.5392,2.7205
48.5402,2.5653
48.5402,1.6739
48.5412,1.2205
48.5412,1.2143
48.5412,1.2145
48.5424,1.2145
48.5424,1.2152
48.5434,1.2235
48.5434,1.7513
48.5446,2.5229
48.5446,2.0101
48.5464,2.6114
48.5476,2.7203
48.5486,2.7207
48.5507,2.5863
48.5516,1.705
48.5539,1.2212
48.5546,1.215
48.5577,1.215
48.5588,1.2147
48.5588,1.215
48.5609,1.2225
48.5617,1.7076
48.5635,2.4745
48.5647,2.0686
48.5677,2.5641
48.5677,2.72
48.5688,2.7205
48.5715,2.5741
48.5715,1.7307
48.5746,1.2212
48.5756,1.2145
48.5756,1.2147
48.5779,1.2148
48.5789,1.2147
48.5818,1.2223
48.5827,1.7027
48.5836,2.404
48.5846,2.1145
48.5868,2.5152
48.5876,2.7209
48.5886,2.7209
48.5908,2.6301
48.5916,1.8464
48.5947,1.2238
48.5947,1.2148
48.5966,1.215
48.5981,1.2148
48.5986,1.215
48.6017,1.2694
48.6017,1.6924
48.6041,2.3607
48.6041,2.1882
48.6062,2.4321
48.6115,2.7203
48.6316,2.7205
48.6377,2.6607
48.6388,1.9394
48.6388,1.2276
48.6399,1.2145
48.6399,1.2145
48.6409,1.2147
48.6409,1.2148
48.6409,1.263
48.6418,1.6988
48.6418,2.3461
48.6428,2.2533
48.6428,2.3719
48.6440,2.7203
48.6440,2.7209
48.6440,2.674
48.6450,2.0384
48.6462,1.216
48.6470,1.2148
48.6470,1.215
48.6480,1.2148
48.6489,1.215
48.6489,1.2471
48.6499,1.6322
48.6501,2.203
48.6511,2.2866
48.6511,2.2994
48.6521,2.72
48.6521,2.7203
48.6531,2.6727
48.6531,1.9956
48.6541,1.2158
48.6541,1.215
48.6551,1.2148
48.6575,1.2148
48.6584,1.2147
48.6615,1.2462
48.6625,1.6454
48.6636,2.1764
48.6645,2.3468
48.6655,2.6676
48.6681,2.7205
48.6685,2.7209
48.6717,2.6845
48.6717,2.0935
48.6742,1.2162
48.6742,1.2147
48.6752,1.2145
48.6775,1.2145
48.6785,1.2143
48.6807,1.2398
48.6817,1.6264
48.6839,2.1588
48.6849,2.4036
48.6849,2.677
48.6887,2.72
48.6887,2.7203
48.6911,2.6759
48.6911,2.1357
48.6947,1.2163
48.6947,1.215
48.6957,1.2152
48.6986,1.2148
48.6996,1.2188
48.7004,1.2297
48.7014,1.4974
48.7047,2.0112
48.7047,2.4228
48.7058,2.6697
48.7082,2.7203
48.7082,2.7209
48.7117,2.6022
48.7127,1.8492
48.7127,1.2154
48.7198,1.2145
48.7393,1.2145
48.7444,1.2145
48.7454,1.2214
48.7464,1.2422
48.7464,1.6354
48.7474,2.1235
48.7474,2.495
48.7484,2.687
48.7484,2.7201
48.7496,2.72
48.7496,2.7211
48.7506,1.6699
48.7506,1.2207
48.7516,1.2158
48.7516,1.215
48.7526,1.215
48.7526,1.2242
48.7526,1.2758
48.7536,1.7957
48.7536,2.1959
48.7546,2.5355
48.7546,2.6984
48.7558,2.7203
48.7558,2.7209
48.7568,2.716
48.7568,1.417
48.7578,1.2177
48.7578,1.2148
48.7588,1.2145
48.7588,1.2188
48.7612,1.2269
48.7623,1.4704
48.7635,1.9881
48.7642,2.0221
48.7652,2.6802
48.7690,2.7207
48.7690,2.7207
48.7716,2.3508
48.7726,1.3849
48.7736,1.2171
48.7746,1.2152
48.7756,1.2148
48.7781,1.215
48.7789,1.2188
48.7821,1.2261
48.7821,1.4475
48.7835,1.9583
48.7847,1.9814
48.7855,2.6658
48.7879,2.7203
48.7889,2.7205
48.7917,2.6995
48.7917,1.3947
48.7941,1.2171
48.7942,1.215
48.7955,1.2143
48.7975,1.2143
48.7985,1.218
48.8009,1.2244
48.8017,1.4112
48.8027,1.909
48.8050,1.9262
48.8050,2.6583
48.8088,2.7205
48.8088,2.7209
48.8099,2.7068
48.8118,1.428
48.8128,1.2175
48.8155,1.2154
48.8163,1.2148
48.8175,1.2148
48.8185,1.2186
48.8215,1.2229
48.8215,1.3829
48.8225,1.8676
48.8255,1.867
48.8337,2.6596
48.8521,2.7201
48.8590,2.7205
48.8590,2.6976
48.8600,1.4155
48.8600,1.2171
48.8612,1.2147
48.8612,1.2145
48.8623,1.2143
48.8632,1.2163
48.8642,1.221
48.8642,1.351
48.8652,1.8241
48.8652,1.8857
48.8662,2.6633
48.8663,2.7205
48.8663,2.7209
48.8674,2.7209
48.8684,1.5194
48.8684,1.2184
48.8694,1.2154
48.8694,1.215
48.8704,1.215
48.8704,1.216
48.8713,1.2218
48.8713,1.3405
48.8723,1.7967
48.8726,2.5538
48.8726,2.6558
48.8736,2.72
48.8736,2.7201
48.8746,2.711
48.8746,1.5259
48.8756,1.2182
48.8756,1.2152
48.8766,1.2148
48.8766,1.2148
48.8790,1.215
48.8804,1.2216
48.8809,1.3109
48.8843,1.7461
48.8850,2.5175
48.8850,2.6363
48.8860,2.7205
48.8897,2.7207
48.8897,2.719
48.8908,2.485
48.8937,1.2186
48.8937,1.2152
48.8955,1.2148
48.8965,1.2147
48.8996,1.2147
48.8996,1.2216
48.9008,1.2936
48.9028,1.7129
48.9038,2.4728
48.9061,2.6007
48.9061,2.7201
48.9098,2.7201
48.9108,2.7207
48.9108,2.5176
48.9120,1.219
48.9140,1.2154
48.9150,1.2148
48.9180,1.2147
48.9180,1.2148
48.9190,1.2205
48.9210,1.2621
48.9235,1.6382
48.9245,2.4025
48.9245,2.561
48.9267,2.7085
48.9275,2.7209
48.9297,2.7211
48.9317,2.5176
48.9523,1.219
48.9700,1.215
48.9757,1.2145
48.9762,1.2148
48.9772,1.2147
48.9772,1.2197
48.9792,1.2469
48.9803,1.5807
48.9813,2.2851
48.9813,2.0933
48.9823,2.6879
48.9832,2.7213
48.9842,2.7177
48.9842,2.4828
48.9853,1.2188
48.9863,1.2154
48.9864,1.2148
48.9875,1.2148
48.9875,1.215
48.9884,1.2192
48.9894,1.2385
48.9904,1.5379
48.9904,2.2124
48.9916,2.1539
48.9916,2.6712
48.9927,2.7205
48.9937,2.7209
48.9946,2.4991
48.9956,1.219
48.9966,1.2148
48.9976,1.2147
48.9986,1.2145
48.9986,1.2145
48.9996,1.2188
49.0006,1.2349
49.0006,1.5319
49.0016,2.164
49.0026,2.2163
49.0028,2.6658
49.0038,2.7201
49.0048,2.7205
49.0048,2.5546
49.0058,1.705
49.0058,1.2152
49.0068,1.215
49.0078,1.2148
49.0078,1.215
49.0092,1.2193
49.0102,1.2364
49.0102,1.5606
49.0112,2.1528
49.0122,2.2743
49.0132,2.6553
49.0142,2.7209
49.0142,2.7209
49.0155,2.63
49.0165,1.8602
49.0165,1.2154
49.0175,1.215
49.0185,1.2147
49.0185,1.2145
49.0195,1.2145
49.0204,1.2407
49.0217,1.6215
49.0237,2.1623
49.0247,2.3403
49.0257,2.6562
49.0282,2.7203
49.0292,2.7218
49.0305,2.68
49.0314,2.0196
49.0323,1.216
49.0356,1.2147
49.0366,1.2148
49.0376,1.2148
49.0389,1.2147
49.0583,1.2377
49.0765,1.5942
49.0825,2.1278
49.0835,2.3823
49.0835,2.6545
49.0846,2.7207
49.0856,2.7209
49.0867,2.693
49.0867,2.1434
49.0876,1.2162
49.0876,1.215
49.0887,1.2148
49.0896,1.2147
49.0896,1.2145
49.0906,1.2351
49.0918,1.585
49.0919,2.0986
49.0929,2.4271
49.0929,2.6607
49.0939,2.7203
49.0949,2.7211
49.0949,2.6825
49.0962,2.1288
49.0982,1.2163
49.0982,1.215
49.0992,1.215
49.1002,1.2148
49.1012,1.2207
49.1012,1.2336
49.1022,1.5621
49.1032,2.0911
49.1032,2.4835
49.1044,2.6866
49.1054,2.7203
49.1054,2.7207
49.1064,2.7005
49.1074,2.2403
49.1074,1.2167
49.1084,1.2147
49.1094,1.2143
49.1094,1.2145
49.1106,1.2195
49.1116,1.228
49.1126,1.4997
49.1135,2.0256
49.1146,2.4968
49.1146,2.6954
49.1158,2.7207
49.1169,2.7209
49.1179,2.7035
49.1189,1.3686
49.1189,1.2171
49.1199,1.215
49.1209,1.2148
49.1209,1.2148
49.1219,1.2197
49.1229,1.2287
49.1231,1.5047
49.1241,2.0101
49.1251,2.5289
49.1251,2.6862
49.1287,2.7203
49.1297,2.7203
49.1297,2.7083
49.1327,1.39
49.1336,1.2167
49.1349,1.2147
49.1359,1.2145
49.1381,1.2143
49.1389,1.2197
49.1399,1.227
49.1411,1.4575
49.1422,1.9549
49.1446,1.9467
49.1456,2.666
49.1469,2.7207
49.1531,2.7209
49.1713,2.7001
49.1887,1.3789
49.1929,1.2169
49.1950,1.2152
49.1959,1.2147
49.1972,1.2147
49.1981,1.2188
49.1990,1.2244
49.1990,1.4102
49.1990,1.8964
49.2000,1.9058
49.2000,2.657
49.2010,2.7203
49.2010,2.7205
49.2020,2.7014
49.2020,1.4234
49.2029,1.2173
49.2029,1.215
49.2040,1.2148
49.2041,1.215
49.2041,1.2192
49.2051,1.2238
49.2051,1.3997
49.2061,1.8749
49.2061,1.8732
49.2061,2.6603
49.2071,2.7203
49.2071,2.7209
49.2071,2.7155
49.2081,1.4579
49.2081,1.2175
49.2081,1.2148
49.2081,1.2145
49.2091,1.2143
49.2091,1.2169
49.2101,1.2227
49.2101,1.3797
49.2101,1.8362
49.2111,1.8655
49.2111,2.6594
49.2121,2.72
49.2121,2.7205
49.2132,2.4993
49.2132,1.5224
49.2140,1.218
49.2140,1.2154
49.2152,1.2147
49.2187,1.2148
49.2187,1.2165
49.2197,1.2223
49.2221,1.3536
49.2229,1.7956
49.2251,1.8769
49.2251,2.6525
49.2282,2.7205
49.2290,2.7211
49.2291,2.5216
49.2325,1.5779
49.2325,1.219
49.2356,1.2154
49.2356,1.2148
49.2378,1.2147
49.2386,1.2152
49.2396,1.2227
49.2418,1.3367
49.2426,2.5583
49.2451,1.9011
49.2451,2.6311
49.2488,2.72
49.2489,2.7201
49.2498,2.5529
49.2526,1.6317
49.2526,1.2197
49.2550,1.2152
49.2550,1.2147
49.2620,1.2148
49.2814,1.2152
49.2869,1.2231
49.2869,1.3277
49.2880,2.5518
49.2880,1.9765
49.2891,2.6056
49.2891,2.7203
49.2901,2.7209
49.2901,2.5799
49.2901,1.6934
49.2911,1.2201
49.2911,1.2152
49.2921,1.2148
49.2921,1.2145
49.2931,1.2147
49.2931,1.2222
49.2941,1.2919
49.2942,2.4597
49.2942,2.0307
49.2953,2.5651
49.2962,2.7113
49.2972,2.7215
49.2972,2.5628
49.2982,1.702
49.2982,1.2207
49.2992,1.2156
49.2992,1.2152
49.3005,1.2147
49.3005,1.215
49.3015,1.222
49.3015,1.279
49.3025,2.4012
49.3036,2.0954
49.3059,2.5032
49.3065,2.6905
49.3086,2.7205
49.3095,2.5827
49.3119,1.7543
49.3124,1.221
49.3135,1.2152
49.3156,1.2145
49.3164,1.2145
49.3188,1.2145
49.3197,1.2218
49.3207,1.269
49.3231,1.6887
49.3231,2.1754
49.3267,2.452
49.3267,2.6691
49.3290,2.7211
49.3290,2.6412
49.3301,1.8854
49.3332,1.2248
49.3343,1.2158
49.3355,1.215
49.3365,1.215
49.3397,1.2152
49.3399,1.2222
49.3406,1.2767
49.3437,1.7346
49.3437,2.2259
49.3448,2.3849
49.3462,2.6624
49.3470,2.7201
49.3501,2.6755
49.3509,2.0247
49.3531,1.2368
49.3531,1.2158
49.3566,1.2145
49.3574,1.2145
49.3581,1.2145
49.3607,1.2214
49.3607,1.2638
49.3618,1.7243
49.3642,2.2842
49.3655,2.3251
49.3667,2.6688
49.3675,2.7207
49.3707,2.7211
49.3707,2.0598
49.3731,1.243
49.3767,1.2163
49.3890,1.2148
49.4022,1.215
49.4062,1.2152
49.4062,1.2203
49.4072,1.2591
49.4072,1.72
49.4084,2.3335
49.4084,2.2643
49.4094,2.6581
49.4094,2.7201
49.4104,2.7203
49.4104,2.0843
49.4104,1.2443
49.4114,1.216
49.4124,1.2147
49.4134,1.2148
49.4134,1.2148
49.4146,1.2188
49.4146,1.2458
49.4156,1.6802
49.4166,2.179
49.4166,2.2298
49.4176,2.6661
49.4176,2.7203
49.4186,2.7209
49.4186,2.2006
49.4196,1.2805
49.4196,1.2163
49.4208,1.215
49.4208,1.2148
49.4218,1.2147
49.4218,1.218
49.4228,1.2345
49.4228,1.5833
49.4228,2.0971
49.4260,2.1728
49.4260,2.6626
49.4276,2.7203
49.4286,2.7211
49.4307,2.6401
49.4318,1.2259
49.4349,1.2154
49.4359,1.215
49.4359,1.2148
49.4382,1.215
49.4390,1.2171
49.4401,1.222
49.4411,1.4209
49.4423,2.0067
49.4455,2.1216
49.4465,2.6787
49.4476,2.7201
49.4487,2.7203
49.4508,2.7211
49.4516,1.6079
49.4526,1.2227
49.4558,1.2162
49.4580,1.2145
49.4588,1.2297
49.4617,1.3658
49.4617,2.0241
49.4628,2.2834
49.4647,2.0903
49.4658,2.6999
49.4687,2.7203
49.4687,2.7207
49.4708,2.5497
49.4718,1.5299
49.4747,1.2188
49.4747,1.2156
49.4757,1.2148
49.4782,1.215
49.4782,1.2212
49.4803,1.2366
49.4862,1.5837
49.4965,2.0689
49.5091,2.0176
49.5127,2.6892
49.5127,2.7201
49.5137,2.7205
49.5137,2.4025
49.5147,1.4106
49.5147,1.2169
49.5157,1.2147
49.5157,1.2143
49.5157,1.2145
49.5167,1.2193
49.5167,1.2291
49.5179,1.5029
49.5179,1.9887
49.5189,1.9167
49.5189,2.6697
49.5199,2.7205
49.5199,2.7209
49.5199,2.3989
49.5209,1.4183
49.5209,1.2175
49.5219,1.2154
49.5219,1.2148
49.5229,1.2148
49.5229,1.2192
49.5240,1.2257
49.5240,1.4421
49.5250,2.5454
49.5250,1.8891
49.5250,2.6536
49.5275,2.72
49.5292,2.7203
49.5303,2.4188
49.5327,1.4166
49.5337,1.2169
49.5351,1.2147
49.5351,1.2145
49.5376,1.2148
49.5386,1.2184
49.5408,1.2227
49.5419,1.3889
49.5419,2.549
49.5451,1.8342
49.5459,2.6583
49.5469,2.7207
49.5480,2.7209
49.5516,2.4946
49.5521,1.5079
49.5531,1.2178
49.5557,1.2154
49.5557,1.2148
49.5580,1.2148
49.5580,1.2177
49.5612,1.2231
49.5612,1.3892
49.5626,2.5572
49.5657,1.8325
49.5667,2.6553
49.5679,2.7198
49.5689,2.7207
49.5717,2.486
49.5717,1.5195
49.5728,1.2186
49.5753,1.2154
49.5763,1.2147
49.5786,1.2148
49.5786,1.2163
49.5809,1.2231
49.5815,1.3697
49.5820,2.5711
49.5856,1.8366
49.5862,2.6425
49.5876,2.7201
49.5886,2.7164
49.5906,2.473
49.5998,1.5285
49.6221,1.2182
49.6272,1.2152
49.6272,1.2145
49.6282,1.2145
49.6292,1.2152
49.6302,1.2229
49.6302,1.3332
49.6312,2.5116
49.6312,1.8715
49.6325,2.6076
49.6325,2.72
49.6335,2.7085
49.6335,2.4318
49.6335,1.4955
49.6345,1.218
49.6345,1.215
49.6355,1.2147
49.6355,1.2147
49.6365,1.2152
49.6365,1.2229
49.6377,1.7267
49.6377,2.4848
49.6387,1.9366
49.6387,2.5754
49.6397,2.7198
49.6397,2.7123
49.6397,2.4781
49.6407,1.5222
49.6407,1.2178
49.6417,1.2147
49.6417,1.2145
49.6428,1.2143
49.6428,1.2145
49.6439,1.2229
49.6439,1.6761
49.6439,2.4203
49.6449,1.9928
49.6458,2.5428
49.6482,2.7087
49.6489,2.7181
49.6489,2.4968
49.6528,1.5758
49.6528,1.2186
49.6557,1.2147
49.6557,1.215
49.6586,1.2148
49.6592,1.215
49.6592,1.2222
49.6621,1.6124
49.6631,2.305
49.6644,2.0494
49.6654,2.4771
49.6675,2.7203
49.6684,2.7147
49.6696,2.4541
49.6727,1.5362
49.6727,1.218
49.6750,1.2145
49.6750,1.2145
49.6786,1.2141
49.6786,1.2143
49.6796,1.221
49.6819,1.5537
49.6828,2.1811
49.6859,2.1207
49.6859,2.4018
49.6887,2.7209
49.6887,2.7156
49.6898,2.4222
49.6922,1.5064
49.6922,1.2178
49.6954,1.215
49.6964,1.2148
49.6977,1.2147
49.6990,1.215
49.7048,1.2383
49.7153,1.5282
49.7278,2.0864
49.7312,2.1828
49.7324,2.3138
49.7324,2.7207
49.7334,2.7209
49.7334,2.4801
49.7344,1.6131
49.7344,1.2197
49.7354,1.2145
49.7354,1.2145
49.7354,1.2143
49.7364,1.2145
49.7364,1.2413
49.7376,1.5752
49.7376,2.1046
49.7386,2.2598
49.7386,2.2758
49.7396,2.7209
49.7396,2.7211
49.7396,2.6196
49.7406,1.8589
49.7406,1.2156
49.7416,1.2148
49.7416,1.2147
49.7426,1.2148
49.7426,1.215
49.7437,1.2456
49.7437,1.6082
49.7447,2.092
49.7447,2.3054
49.7458,2.2124
49.7467,2.7203
49.7491,2.7207
49.7491,2.6489
49.7526,1.9804
49.7526,1.2158
49.7536,1.2147
49.7565,1.2145
49.7575,1.2145
49.7600,1.2143
49.7600,1.243
49.7612,1.612
49.7620,2.0491
49.7653,2.3316
49.7655,2.1724
49.7665,2.7211
49.7692,2.7211
49.7692,2.6667
49.7716,2.0429
49.7737,1.2469
49.7748,1.2152
49.7755,1.215
49.7766,1.215
49.7787,1.2152
49.7798,1.2389
49.7819,1.5936
49.7829,2.0256
49.7829,2.3922
49.7855,2.1321
49.7865,2.7203
49.7889,2.7205
49.7895,2.6776
49.7905,2.0978
49.7927,1.2531
49.7935,1.2148
49.7953,1.2147
49.7964,1.2145
49.7998,1.2143
49.7999,1.2207
49.8009,1.561
49.8027,1.9947
49.8037,2.4224
49.8061,2.0824
49.8061,2.72
49.8083,2.722
49.8121,2.681
49.8243,2.1327
49.8372,1.2645
49.8402,1.215
49.8413,1.2148
49.8413,1.2148
49.8424,1.2148
49.8424,1.2216
49.8434,1.5141
49.8434,1.9722
49.8444,2.4528
49.8444,2.0477
49.8454,2.6825
49.8463,2.7203
49.8473,2.6817
49.8473,2.1987
49.8483,1.293
49.8483,1.2147
49.8493,1.2141
49.8493,1.2145
49.8503,1.2145
49.8503,1.2216
49.8513,1.5044
49.8513,1.9546
49.8513,2.4674
49.8523,1.9688
49.8523,2.6723
49.8536,2.7209
49.8536,2.6834
49.8546,2.2204
49.8546,1.3133
49.8556,1.2152
49.8556,1.2148
49.8566,1.215
49.8576,1.2148
49.8598,1.2212
49.8605,1.4607
49.8615,1.8803
49.8640,2.4518
49.8646,1.9311
49.8666,2.6605
49.8676,2.7201
49.8696,2.6858
49.8706,2.2621
49.8718,1.3465
49.8736,1.2165
49.8747,1.2147
49.8766,1.2147
49.8776,1.2148
49.8787,1.2207
49.8808,1.2253
49.8816,1.8574
49.8835,2.4642
49.8845,1.909
49.8867,2.6513
49.8876,2.7209
49.8887,2.6898
49.8916,2.3104
49.8916,1.3688
49.8940,1.2167
49.8940,1.215
49.8950,1.2148
49.8991,1.2147
49.8992,1.2201
49.9015,1.2253
49.9022,1.8265
49.9033,2.4935
49.9042,1.8552
49.9054,2.6498
49.9087,2.7201
49.9087,2.6978
49.9111,2.3789
49.9111,1.425
49.9145,1.2177
49.9157,1.2145
49.9209,1.2147
49.9310,1.2145
49.9432,1.2192
49.9472,1.2231
49.9482,1.7856
49.9482,2.4878
49.9492,1.8572
49.9492,2.6532
49.9492,2.7205
49.9502,2.7066
49.9502,2.4333
49.9514,1.4609
49.9514,1.2175
49.9524,1.2148
49.9524,1.2147
49.9534,1.2145
49.9534,1.2167
49.9544,1.2237
49.9544,1.7554
49.9554,2.4698
49.9554,1.8912
49.9554,2.6515
49.9564,2.7207
49.9564,2.7057
49.9576,2.4312
49.9576,1.4905
49.9586,1.218
49.9586,1.2152
49.9596,1.2148
49.9596,1.2148
49.9606,1.2158
49.9606,1.2242
49.9616,1.3412
49.9627,2.4546
49.9638,1.9371
49.9660,2.6423
49.9668,2.7201
49.9692,2.7093
49.9692,2.4531
49.9727,1.5308
49.9727,1.2186
49.9750,1.215
49.9751,1.2145
49.9761,1.2145
49.9783,1.2147
49.9801,1.2252
49.9815,1.3262
49.9827,2.4385
49.9835,2.0161
49.9857,2.6277
49.9867,2.7203
49.9897,2.7211
49.9897,2.4276
49.9908,1.5242
49.9927,1.218
49.9937,1.2152
49.9958,1.2147
49.9967,1.2147
49.9985,1.215
49.9998,1.2242
50.0006,1.2953
50.0027,2.3734
50.0036,2.0693
50.0068,2.6009
50.0078,2.71
50.0078,2.72
50.0100,2.4796
50.0108,1.5377
50.0141,1.2186
50.0141,1.215
50.0155,1.2147
50.0165,1.2147
50.0192,1.215
50.0192,1.2231
50.0202,1.2672
50.0226,2.2849
50.0234,2.1355
50.0256,2.5542
50.0267,2.6886
50.0274,2.7207
50.0324,2.485
50.0359,1.5803
50.0603,1.219
50.0687,1.2152
50.0687,1.2147
50.0694,1.2147
50.0694,1.2148
50.0705,1.2227
50.0705,1.2679
50.0716,1.6433
50.0716,2.206
50.0726,2.4856
50.0726,2.6765
50.0736,2.7203
50.0736,2.5533
50.0746,1.6812
50.0746,1.2205
50.0746,1.2154
50.0757,1.2143
50.0757,1.2147
50.0768,1.215
50.0768,1.2227
50.0777,1.263
50.0777,1.6456
50.0789,2.2658
50.0797,2.4353
50.0809,2.6665
50.0809,2.7209
50.0820,2.7207
50.0820,1.7314
50.0820,1.2218
50.0830,1.2156
50.0830,1.2148
50.0840,1.2148
50.0840,1.215
50.0850,1.2212
50.0850,1.2518
50.0861,1.6206
50.0861,2.3296
50.0871,2.3768
50.0871,2.6684
50.0881,2.7203
50.0881,2.7205
50.0915,1.7412
50.0915,1.2216
50.0947,1.2154
50.0958,1.2145
50.0969,1.2147
50.0977,1.2154
50.0987,1.2205
50.1020,1.2503
50.1020,1.6264
50.1043,2.0639
50.1043,2.3575
50.1053,2.6753
50.1077,2.7209
50.1088,2.7209
50.1116,1.8661
50.1126,1.2242
50.1136,1.2158
50.1141,1.2148
50.1158,1.2145
50.1180,1.2148
50.1188,1.2192
50.1217,1.2402
50.1225,1.5882
50.1225,2.0071
50.1247,2.3228
50.1258,2.683
50.1286,2.72
50.1296,2.7207
50.1306,1.8966
50.1316,1.227
50.1326,1.2156
50.1356,1.2147
50.1365,1.2147
50.1376,1.2148
50.1386,1.2199
50.1408,1.2332
50.1465,1.5389
50.1733,1.9669
50.1788,2.2913
50.1798,2.6851
50.1805,2.7207
50.1805,2.7207
50.1816,2.5861
50.1816,1.2231
50.1826,1.2154
50.1826,1.2147
50.1836,1.2147
50.1836,1.2147
50.1845,1.2222
50.1845,1.3806
50.1857,2.3808
50.1857,2.2812
50.1867,2.6937
50.1867,2.7203
50.1877,2.7207
50.1877,2.1762
50.1887,1.3178
50.1887,1.2167
50.1897,1.2148
50.1897,1.2147
50.1909,1.2154
50.1909,1.2293
50.1909,1.3722
50.1919,2.0007
50.1929,2.1888
50.1929,2.4363
50.1929,2.7108
50.1939,2.7201
50.1939,2.7205
50.1949,2.5568
50.1961,1.5824
50.1968,1.2199
50.1968,1.2158
50.1978,1.2148
50.1978,1.2148
50.1988,1.2246
50.1998,1.2495
50.2023,1.6169
50.2029,1.9637
50.2050,2.3498
50.2058,2.7036
50.2068,2.7203
50.2090,2.7207
50.2098,2.1514
50.2120,1.294
50.2137,1.216
50.2140,1.215
50.2166,1.2148
50.2176,1.215
50.2186,1.2222
50.2197,1.2293
50.2227,1.4736
50.2227,1.8488
50.2250,2.3331
50.2251,2.6905
50.2262,2.7207
50.2293,2.7207
50.2296,2.6868
50.2328,1.2899
50.2338,1.2167
50.2338,1.2148
50.2360,1.2147
50.2360,1.2147
50.2382,1.2214
50.2392,1.2255
50.2413,1.4228
50.2423,1.7905
50.2433,2.2829
50.2453,2.6913
50.2466,2.7203
50.2488,2.7209
50.2679,2.6759
50.2817,1.312
50.2867,1.2162
50.2867,1.215
50.2879,1.2147
50.2879,1.2147
50.2890,1.222
50.2890,1.2252
50.2900,1.3962
50.2900,1.7586
50.2910,2.2686
50.2910,2.6898
50.2919,2.7207
50.2919,2.7209
50.2919,2.6808
50.2931,1.3352
50.2931,1.2167
50.2942,1.2148
50.2942,1.2145
50.2955,1.2143
50.2961,1.2186
50.2966,1.2233
50.2971,1.3716
50.2982,1.7389
50.2983,2.4393
50.2983,2.6898
50.2994,2.7205
50.2994,2.7205
50.3003,2.6913
50.3003,1.3759
50.3014,1.2171
50.3014,1.215
50.3023,1.2147
50.3023,1.2148
50.3033,1.2169
50.3035,1.2244
50.3035,1.3504
50.3045,1.6928
50.3045,2.4244
50.3055,2.6855
50.3066,2.7203
50.3075,2.7207
50.3097,2.6954
50.3107,2.3406
50.3120,1.2171
50.3135,1.2147
50.3145,1.2145
50.3176,1.2143
50.3176,1.215
50.3208,1.2255
50.3209,1.3255
50.3209,1.6763
50.3245,2.3911
50.3245,2.6828
50.3267,2.7201
50.3275,2.7211
50.3295,2.6991
50.3305,2.3459
50.3314,1.2175
50.3337,1.2154
50.3346,1.2148
50.3378,1.2148
50.3378,1.2148
50.3389,1.2265
50.3411,1.3095
50.3418,1.6521
50.3439,2.3343
50.3448,2.1799
50.3477,2.7205
50.3477,2.7211
50.3487,2.7027
50.3517,2.3733
50.3527,1.2177
50.3535,1.215
50.3547,1.2148
50.3557,1.2148
50.3610,1.2147
50.3639,1.2257
50.3754,1.2801
50.3856,1.6122
50.3907,2.254
50.3918,2.2189
50.3918,2.7173
50.3928,2.7207
50.3928,2.7053
50.3928,2.3596
50.3937,1.218
50.3937,1.2152
50.3947,1.2147
50.3957,1.2145
50.3961,1.2147
50.3967,1.2244
50.3977,1.2576
50.3977,1.5674
50.3987,2.1299
50.3987,2.2398
50.3997,2.696
50.3997,2.7205
50.4007,2.704
50.4007,2.3121
50.4018,1.4412
50.4019,1.215
50.4019,1.2147
50.4029,1.2147
50.4029,1.2147
50.4039,1.2233
50.4049,1.2434
50.4049,1.5278
50.4059,2.0431
50.4059,2.2551
50.4059,2.6817
50.4071,2.7201
50.4085,2.7068
50.4095,2.3149
50.4123,1.4515
50.4131,1.2147
50.4153,1.2147
50.4161,1.2145
50.4172,1.2147
50.4184,1.2147
50.4193,1.2392
50.4215,1.5184
50.4225,1.9881
50.4257,2.5203
50.4257,2.687
50.4289,2.7209
50.4290,2.7098
50.4298,2.3088
50.4327,1.4575
50.4337,1.2152
50.4347,1.2145
50.4354,1.2147
50.4361,1.2147
50.4397,1.2147
50.4397,1.2407
50.4409,1.5385
50.4419,1.9709
50.4453,2.5302
50.4461,2.6905
50.4461,2.7203
50.4496,2.7207
50.4502,2.4621
50.4515,1.6163
50.4525,1.2154
50.4556,1.2148
50.4556,1.2147
50.4567,1.2145
50.4589,1.2148
50.4598,1.2465
50.4621,1.5893
50.4621,1.9667
50.4654,2.5651
50.4690,2.7006
50.4806,2.7203
50.4926,2.7207
50.4966,2.5726
50.4975,1.8002
50.4975,1.2156
50.4985,1.2147
50.4995,1.2147
50.4995,1.2147
50.5005,1.2233
50.5005,1.2492
50.5005,1.6163
50.5015,1.9834
50.5015,2.5377
50.5027,2.6961
50.5027,2.7203
50.5038,2.7205
50.5038,2.635
50.5048,1.9313
50.5048,1.2158
50.5058,1.215
50.5058,1.2147
50.5058,1.2148
50.5068,1.2255
50.5068,1.2464
50.5079,1.6148
50.5079,1.9711
50.5079,2.4968
50.5090,2.6946
50.5090,2.7205
50.5100,2.7207
50.5100,2.6721
50.5114,1.2477
50.5124,1.216
50.5142,1.2152
50.5167,1.215
50.5167,1.2148
50.5191,1.2261
50.5191,1.2409
50.5229,1.5863
50.5229,1.9568
50.5239,2.4034
50.5263,2.7001
50.5271,2.7207
50.5286,2.7211
50.5306,2.6706
50.5316,1.2698
50.5337,1.2162
50.5337,1.215
50.5359,1.2145
50.5359,1.2145
50.5397,1.2259
50.5397,1.2345
50.5423,1.5357
50.5424,1.8814
50.5433,2.2911
50.5453,2.7059
50.5463,2.7203
50.5487,2.7203
50.5496,2.6815
50.5516,1.3069
50.5530,1.2167
50.5530,1.2148
50.5566,1.2147
50.5571,1.2145
50.5584,1.2257
50.5594,1.2325
50.5619,1.5085
50.5619,1.8629
50.5630,2.0845
50.5667,2.6834
50.5667,2.7201
50.5693,2.7203
50.5693,2.6991
50.5715,1.3435
50.5763,1.2165
50.5866,1.215
50.5999,1.2148
50.6040,1.2147
50.6051,1.2242
50.6051,1.2289
50.6051,1.468
50.6061,1.8141
50.6061,1.9418
50.6071,2.6753
50.6071,2.7201
50.6081,2.7209
50.6081,2.6952
50.6092,1.3905
50.6092,1.2169
50.6092,1.2152
50.6102,1.2148
50.6102,1.2148
50.6112,1.2233
50.6112,1.2272
50.6126,1.4414
50.6132,1.7794
50.6142,1.8368
50.6142,2.6697
50.6154,2.7201
50.6154,2.7205
50.6164,2.7012
50.6164,1.4387
50.6174,1.2177
50.6174,1.2148
50.6184,1.2145
50.6184,1.2145
50.6194,1.2208
50.6194,1.2252
50.6204,1.4102
50.6237,1.7363
50.6237,1.7342
50.6269,2.6577
50.6269,2.7201
50.6286,2.7205
50.6299,2.7162
50.6305,1.4704
50.6329,1.2178
50.6329,1.2148
50.6359,1.2145
50.6369,1.2145
50.6391,1.2178
50.6392,1.224
50.6403,1.3913
50.6435,1.705
50.6445,1.6401
50.6455,2.6573
50.6465,2.7203
50.6486,2.7205
50.6498,2.4805
50.6505,1.5306
50.6526,1.2184
50.6535,1.2152
50.6558,1.2148
50.6558,1.2147
50.6569,1.2163
50.6605,1.225
50.6615,1.365
50.6636,1.6772
50.6646,1.5955
50.6656,2.6448
50.6670,2.7201
50.6691,2.7205
50.6691,2.5385
50.6701,1.618
50.6725,1.2195
50.6735,1.215
50.6766,1.2147
50.6774,1.2148
50.6774,1.2156
50.6806,1.2263
50.6846,1.3422
50.6884,1.6647
50.7074,1.567
50.7124,2.6116
50.7134,2.7201
50.7134,2.7205
50.7144,2.5827
50.7144,1.6977
50.7154,1.2203
50.7154,1.215
50.7164,1.2145
50.7164,1.215
50.7174,1.2152
50.7174,1.2267
50.7184,1.3249
50.7184,1.9709
50.7184,1.5544
50.7194,2.5868
50.7194,2.7188
50.7204,2.7201
50.7204,2.5979
50.7215,1.7339
50.7215,1.221
50.7215,1.2152
50.7225,1.2145
50.7225,1.2147
50.7235,1.2148
50.7235,1.2252
50.7245,1.2977
50.7245,1.9066
50.7255,1.543
50.7255,2.5347
50.7265,2.7059
50.7278,2.7207
50.7296,2.608
50.7305,1.7746
50.7332,1.2218
50.7332,1.2156
50.7359,1.2147
50.7369,1.2147
50.7379,1.2147
50.7401,1.2253
50.7410,1.2784
50.7432,1.8929
50.7440,1.543
50.7453,2.4539
50.7471,2.6714
50.7481,2.7209
50.7503,2.6095
50.7503,1.7708
50.7527,1.2216
50.7537,1.2154
50.7560,1.2148
50.7560,1.2148
50.7570,1.2147
50.7595,1.2233
50.7605,1.2627
50.7628,1.8844
50.7637,1.5469
50.7665,2.3699
50.7669,2.6508
50.7669,2.7205
50.7706,2.6309
50.7706,1.8927
50.7729,1.2248
50.7729,1.2152
50.7754,1.2145
50.7765,1.2145
50.7774,1.215
50.7798,1.2238
50.7806,1.2557
50.7839,1.8803
50.7839,1.5497
50.7855,2.2981
50.7867,2.659
50.7875,2.7205
50.7899,2.6755
50.7899,1.9821
50.7970,1.2319
50.8170,1.2156
50.8233,1.2147
50.8233,1.2145
50.8244,1.2147
50.8244,1.2231
50.8254,1.5914
50.8254,1.8625
50.8264,1.5518
50.8264,2.2219
50.8274,2.6549
50.8274,2.7207
50.8284,2.6791
50.8292,2.0667
50.8303,1.2456
50.8303,1.215
50.8312,1.215
50.8312,1.2148
50.8312,1.2148
50.8322,1.2201
50.8322,1.5715
50.8332,1.8308
50.8332,1.5557
50.8342,2.1741
50.8352,2.6532
50.8354,2.7205
50.8354,2.6896
50.8365,2.1154
50.8365,1.2604
50.8375,1.2145
50.8385,1.2145
50.8385,1.2148
50.8385,1.2148
50.8395,1.2203
50.8406,1.5428
50.8437,1.8083
50.8437,1.554
50.8448,2.1091
50.8463,2.7205
50.8471,2.7205
50.8510,2.6909
50.8512,2.1391
50.8535,1.2715
50.8542,1.215
50.8552,1.2148
50.8565,1.2148
50.8576,1.215
50.8606,1.2216
50.8626,1.5255
50.8636,1.549
50.8656,2.0669
50.8668,2.7203
50.8678,2.7207
50.8696,2.689
50.8706,2.2244
50.8729,1.216
50.8729,1.2147
50.8767,1.2145
50.8767,1.2145
50.8778,1.2147
50.8802,1.2278
50.8810,1.4777
50.8838,1.6911
50.8838,1.5389
50.8855,1.9862
50.8867,2.7201
50.8875,2.7203
50.8904,2.6772
50.8904,2.1453
50.8937,1.2152
50.8937,1.2141
50.8948,1.2141
50.8976,1.2147
50.8986,1.2145
50.8998,1.2203
50.9128,1.3459
50.9271,1.5917
50.9320,1.5272
50.9320,1.9006
50.9330,2.7201
50.9330,2.7205
50.9340,2.7207
50.9340,2.5079
50.9350,1.2173
50.9350,1.2147
50.9362,1.2145
50.9362,1.2143
50.9373,1.2148
50.9373,1.2929
50.9383,1.8256
50.9383,1.7697
50.9383,1.534
50.9393,1.8754
50.9393,2.7201
50.9403,2.7203
50.9403,2.7207
50.9414,2.6453
50.9414,1.7536
50.9414,1.2148
50.9424,1.2147
50.9424,1.2147
50.9434,1.2147
50.9434,1.2283
50.9444,1.4622
50.9444,1.6658
50.9458,1.5285
50.9464,1.7637
50.9464,2.7205
50.9476,2.7205
50.9486,2.707
50.9516,2.3733
50.9526,1.4001
50.9535,1.215
50.9545,1.2147
50.9578,1.2145
50.9580,1.2147
50.9588,1.222
50.9617,1.3699
50.9631,1.6217
50.9638,1.5261
50.9648,1.6814
50.9676,2.7205
50.9683,2.7205
50.9683,2.7046
50.9717,2.3995
50.9717,1.4299
50.9741,1.215
50.9741,1.2148
50.9751,1.215
50.9773,1.215
50.9791,1.2208
50.9805,1.3349
50.9816,1.5942
50.9846,1.5212
50.9854,1.6227
50.9854,2.6566
50.9887,2.7205
50.9897,2.7108
50.9907,2.4222
50.9917,1.4472
50.9927,1.215
50.9952,1.2145
50.9957,1.2143
50.9978,1.2145
50.9987,1.2177
51.0017,1.3182
51.0017,1.5884
51.0028,1.5201
51.0057,1.5752
51.0057,2.6463
51.0068,2.7207
51.0127,2.7207
51.0237,2.4824
51.0368,1.5128
51.0406,1.215
51.0406,1.2148
51.0416,1.2147
51.0416,1.2147
51.0426,1.2158
51.0426,1.2987
51.0436,1.5816
51.0436,1.5205
51.0446,1.5537
51.0446,2.641
51.0459,2.7207
51.0466,2.7207
51.0476,2.5071
51.0476,1.5449
51.0476,1.215
51.0486,1.2147
51.0486,1.2147
51.0496,1.2145
51.0496,1.215
51.0506,1.2839
51.0506,1.5741
51.0516,1.5199
51.0516,1.5315
51.0526,2.6166
51.0526,2.7201
51.0536,2.7211
51.0536,2.5343
51.0546,1.5955
51.0546,1.2182
51.0556,1.2147
51.0556,1.2148
51.0566,1.2147
51.0596,1.2147
51.0606,1.27
51.0620,1.5615
51.0632,1.521
51.0651,1.5291
51.0660,2.5731
51.0660,2.7205
51.0691,2.7207
51.0691,2.5424
51.0715,1.6332
51.0727,1.2186
51.0747,1.2147
51.0755,1.2152
51.0765,1.2148
51.0786,1.2147
51.0795,1.2227
51.0817,1.5372
51.0825,1.521
51.0835,1.5257
51.0856,2.5268
51.0865,2.7205
51.0887,2.7209
51.0895,2.5426
51.0915,1.6654
51.0926,1.219
51.0935,1.2148
51.0955,1.2145
51.0965,1.2143
51.0986,1.2148
51.0994,1.2225
51.1004,1.5107
51.1024,1.5209
51.1034,1.5265
51.1053,2.4308
51.1066,2.6753
51.1083,2.7211
51.1091,2.5591
51.1101,1.6549
51.1122,1.2193
51.1133,1.2145
51.1152,1.2145
51.1161,1.2148
51.1211,1.215
51.1321,1.2223
51.1480,1.4654
51.1490,1.5186
51.1490,1.5225
51.1501,2.3658
51.1501,2.6605
51.1511,2.7207
51.1511,2.554
51.1521,1.6564
51.1521,1.2184
51.1531,1.2152
51.1531,1.215
51.1541,1.2145
51.1541,1.2145
51.1551,1.2207
51.1551,1.4286
51.1551,1.5169
51.1561,1.5257
51.1561,2.2773
51.1571,2.6676
51.1571,2.7209
51.1581,2.5685
51.1581,1.6909
51.1591,1.2195
51.1591,1.2145
51.1601,1.2145
51.1601,1.2143
51.1611,1.2147
51.1611,1.2186
51.1620,1.4072
51.1630,1.5152
51.1630,1.5218
51.1640,2.2144
51.1665,2.6628
51.1675,2.7207
51.1705,2.5981
51.1711,1.7704
51.1733,1.2212
51.1741,1.2147
51.1741,1.2145
51.1765,1.2145
51.1775,1.2147
51.1796,1.2182
51.1805,1.42
51.1836,1.5164
51.1836,1.5201
51.1846,2.1642
51.1868,2.7209
51.1877,2.7207
51.1907,2.6847
51.1907,2.0176
51.1929,1.2321
51.1937,1.215
51.1949,1.215
51.1969,1.2147
51.1978,1.2145
51.2002,1.2199
51.2002,1.4425
51.2028,1.5177
51.2039,1.5209
51.2051,2.1224
51.2077,2.7201
51.2077,2.7203
51.2088,2.6973
51.2107,2.1805
51.2118,1.276
51.2137,1.2148
51.2147,1.2147
51.2167,1.2145
51.2171,1.2147
51.2207,1.228
51.2207,1.435
51.2230,1.5164
51.2231,1.5194
51.2242,2.068
51.2291,2.7203
51.2413,2.7205
51.2555,2.7074
51.2595,2.2864
51.2595,1.2156
51.2605,1.2147
51.2605,1.2145
51.2615,1.2145
51.2616,1.2147
51.2626,1.2263
51.2626,1.4189
51.2636,1.5158
51.2636,1.5186
51.2646,1.9874
51.2646,2.7203
51.2657,2.7209
51.2657,2.7141
51.2666,2.3673
51.2666,1.2154
51.2666,1.2152
51.2678,1.2148
51.2678,1.2148
51.2689,1.2147
51.2689,1.2246
51.2698,1.3995
51.2698,1.5143
51.2708,1.5177
51.2708,2.6918
51.2708,2.7203
51.2719,2.7207
51.2719,2.7207
51.2730,2.4076
51.2730,1.2156
51.2739,1.2147
51.2739,1.2145
51.2770,1.2145
51.2779,1.2147
51.2797,1.2231
51.2811,1.3821
51.2836,1.513
51.2842,1.5173
51.2842,2.6825
51.2876,2.7201
51.2884,2.7203
51.2896,2.7209
51.2906,2.4394
51.2936,1.215
51.2936,1.215
51.2947,1.2147
51.2977,1.2145
51.2987,1.2231
51.2997,1.2218
51.3006,1.3694
51.3028,1.5128
51.3034,1.5177
51.3044,2.6693
51.3068,2.72
51.3078,2.7205
51.3107,2.7211
51.3107,2.4966
51.3130,1.2152
51.3138,1.2147
51.3148,1.2148
51.3176,1.2148
51.3183,1.2229
51.3193,1.2214
51.3204,1.3688
51.3237,1.513
51.3238,1.518
51.3249,2.669
51.3273,2.72
51.3273,2.7203
51.3297,2.7209
51.3308,1.4729
51.3336,1.2154
51.3336,1.2147
51.3346,1.2145
51.3386,1.2148
51.3500,1.2203
51.3621,1.2203
51.3673,1.3797
51.3673,1.5137
51.3683,1.5173
51.3683,2.6742
51.3695,2.7201
51.3695,2.7205
51.3705,2.7209
51.3705,1.5177
51.3715,1.216
51.3715,1.2147
51.3715,1.2145
51.3725,1.2145
51.3725,1.2177
51.3735,1.2222
51.3735,1.3823
51.3745,1.5137
51.3745,1.5777
51.3756,2.6669
51.3757,2.7203
51.3757,2.7207
51.3767,2.7209
51.3767,1.5227
51.3777,1.216
51.3777,1.215
51.3791,1.2148
51.3796,1.2148
51.3806,1.2156
51.3806,1.2289
51.3819,1.3725
51.3819,1.5134
51.3838,1.5655
51.3847,2.651
51.3874,2.7209
51.3874,2.7203
51.3907,2.7207
51.3907,1.4978
51.3917,1.216
51.3947,1.2147
51.3957,1.2147
51.3967,1.2147
51.3978,1.2148
51.4007,1.2653
51.4007,1.3652
51.4018,1.513
51.4043,1.5396
51.4043,2.6472
51.4077,2.7201
51.4077,2.7203
51.4100,2.7207
51.4101,1.5242
51.4118,1.216
51.4133,1.2148
51.4142,1.2147
51.4165,1.2145
51.4173,1.2148
51.4205,1.2698
51.4215,1.3452
51.4215,1.5111
51.4243,1.5345
51.4243,2.6041
51.4268,2.7156
51.4278,2.7205
51.4288,2.5595
51.4320,1.5357
51.4320,1.216
51.4336,1.2147
51.4346,1.2145
51.4375,1.2148
51.4382,1.2148
51.4394,1.2698
51.4402,1.3369
51.4412,1.5104
51.4434,1.5263
51.4472,2.5497
51.4533,2.6885
51.4718,2.7203
51.4770,2.6168
51.4780,1.6501
51.4791,1.2165
51.4800,1.2147
51.4800,1.2147
51.4810,1.2147
51.4810,1.215
51.4810,1.2662
51.4820,1.3202
51.4820,1.5087
51.4832,1.5297
51.4832,2.4586
51.4842,2.6755
51.4842,2.7203
51.4852,2.6517
51.4852,1.7408
51.4862,1.2175
51.4862,1.2147
51.4872,1.2145
51.4872,1.2147
51.4882,1.2147
51.4882,1.2595
51.4892,1.3052
51.4894,1.5167
51.4894,1.528
51.4905,2.3931
51.4914,2.6781
51.4914,2.7203
51.4914,2.6558
51.4924,1.8194
51.4924,1.2182
51.4934,1.2148
51.4944,1.2148
51.4966,1.2147
51.4975,1.2148
51.4984,1.2477
51.5019,1.2936
51.5019,1.5167
51.5035,1.5244
51.5045,2.2973
51.5073,2.672
51.5074,2.72
51.5082,2.6791
51.5123,1.9139
51.5123,1.2192
51.5134,1.2148
51.5144,1.2148
51.5176,1.2148
51.5187,1.2147
51.5187,1.2458
51.5217,1.2801
51.5217,1.5167
51.5241,1.5242
51.5241,2.2246
51.5276,2.6729
51.5285,2.7203
51.5289,2.6907
51.5305,2.0093
51.5315,1.221
51.5346,1.2148
51.5355,1.2147
51.5365,1.2145
51.5377,1.2147
51.5385,1.2477
51.5408,1.2655
51.5419,1.5167
51.5436,1.5231
51.5451,2.1751
51.5461,2.6774
51.5487,2.7203
51.5487,2.6997
51.5509,2.0911
51.5520,1.2252
51.5547,1.215
51.5547,1.2148
51.5558,1.2147
51.5578,1.2147
51.5588,1.2505
51.5669,1.2514
51.5833,1.5165
51.5895,1.5214
51.5905,2.6795
51.5905,2.7203
51.5915,2.6988
51.5915,2.0646
51.5925,1.2227
51.5925,1.2147
51.5937,1.2147
51.5937,1.2147
51.5937,1.2145
51.5952,1.2535
51.5957,1.4822
51.5967,1.5164
51.5967,1.5188
51.5978,2.0703
51.5978,2.6995
51.5989,2.7203
51.5989,2.7171
51.5999,2.3448
51.5999,1.3148
51.6009,1.2148
51.6009,1.2145
51.6019,1.2147
51.6019,1.2147
51.6019,1.2599
51.6029,1.5079
51.6029,1.5165
51.6041,1.5184
51.6041,2.0134
51.6077,2.704
51.6077,2.7205
51.6088,2.7209
51.6112,2.5283
51.6120,1.4324
51.6130,1.2145
51.6153,1.2148
51.6163,1.2147
51.6186,1.2147
51.6195,1.2569
51.6204,1.4708
51.6213,1.5162
51.6235,1.5179
51.6256,1.9422
51.6266,2.6825
51.6286,2.7201
51.6296,2.7192
51.6308,2.3084
51.6316,1.2827
51.6326,1.2148
51.6348,1.2147
51.6356,1.2147
51.6387,1.2147
51.6387,1.2527
51.6420,1.4519
51.6420,1.5156
51.6430,1.5177
51.6451,1.8578
51.6451,2.6815
51.6474,2.7201
51.6484,2.7207
51.6506,2.3643
51.6514,1.3185
51.6524,1.2152
51.6557,1.2147
51.6557,1.2147
51.6586,1.2145
51.6596,1.2426
51.6596,1.4335
51.6619,1.5156
51.6619,1.5179
51.6661,1.7954
51.6711,2.6733
51.6850,2.7201
51.6943,2.7207
51.6984,2.3965
51.6992,1.3459
51.6992,1.2152
51.7002,1.2147
51.7002,1.2147
51.7002,1.2147
51.7012,1.2304
51.7012,1.2259
51.7022,1.5149
51.7022,1.5186
51.7032,1.6801
51.7032,2.6729
51.7044,2.7203
51.7044,2.7209
51.7054,2.4359
51.7054,1.3812
51.7054,1.2152
51.7064,1.2147
51.7064,1.2147
51.7074,1.2147
51.7074,1.2208
51.7084,1.2359
51.7084,1.5143
51.7095,1.5175
51.7095,1.6035
51.7095,2.6806
51.7106,2.7203
51.7106,2.7205
51.7125,2.468
51.7135,1.423
51.7135,1.2156
51.7135,1.2147
51.7159,1.2147
51.7159,1.2147
51.7189,1.2162
51.7189,1.2449
51.7223,1.5137
51.7230,1.5177
51.7230,1.5741
51.7265,2.6821
51.7265,2.7201
51.7285,2.7207
51.7295,2.5221
51.7305,1.4766
51.7329,1.2158
51.7329,1.2148
51.7358,1.2147
51.7368,1.2145
51.7391,1.2152
51.7392,1.2501
51.7403,1.513
51.7424,1.5177
51.7433,1.5514
51.7452,2.6491
51.7463,2.72
51.7496,2.7207
51.7506,2.542
51.7506,1.5092
51.7527,1.216
51.7537,1.2147
51.7561,1.2147
51.7561,1.2147
51.7571,1.2147
51.7592,1.251
51.7601,1.5119
51.7624,1.5169
51.7634,1.5407
51.7666,2.6195
51.7675,2.72
51.7676,2.7207
51.7707,2.555
51.7707,1.5353
51.7732,1.216
51.7732,1.2145
51.7761,1.2145
51.7818,1.2147
51.7961,1.2148
51.8094,1.2497
51.8094,1.5104
51.8104,1.5169
51.8104,1.5392
51.8114,2.5681
51.8124,2.71
51.8124,2.7205
51.8134,2.5293
51.8134,1.5344
51.8147,1.216
51.8147,1.2147
51.8157,1.2147
51.8157,1.2147
51.8167,1.2147
51.8167,1.2495
51.8177,1.3165
51.8177,1.5167
51.8187,1.5349
51.8187,2.504
51.8197,2.69
51.8198,2.7207
51.8198,2.5548
51.8208,1.5527
51.8208,1.2162
51.8219,1.2145
51.8219,1.2147
51.8229,1.2145
51.8229,1.2147
51.8239,1.2445
51.8239,1.2968
51.8239,1.5171
51.8250,1.5306
51.8250,2.4438
51.8266,2.6727
51.8278,2.7205
51.8286,2.5454
51.8308,1.572
51.8308,1.2163
51.8347,1.2147
51.8347,1.2148
51.8373,1.2147
51.8373,1.2148
51.8386,1.2347
51.8403,1.2827
51.8413,1.5167
51.8435,1.5261
51.8445,2.3281
51.8466,2.6823
51.8476,2.7203
51.8488,2.5896
51.8506,1.6313
51.8516,1.2171
51.8536,1.2147
51.8548,1.2148
51.8558,1.2145
51.8576,1.2147
51.8586,1.233
51.8609,1.2696
51.8616,1.5167
51.8636,1.5257
51.8646,2.2514
51.8668,2.6834
51.8676,2.7203
51.8688,2.639
51.8707,1.7903
51.8717,1.2178
51.8738,1.2148
51.8746,1.2145
51.8765,1.2147
51.8776,1.2147
51.8787,1.2381
51.8806,1.2625
51.8816,1.5165
51.8836,1.5284
51.8878,2.2113
51.8988,2.677
51.9110,2.7203
51.9151,2.6791
51.9160,1.9227
51.9160,1.2195
51.9170,1.2148
51.9170,1.2147
51.9181,1.2147
51.9181,1.2147
51.9191,1.2428
51.9191,1.2512
51.9191,1.5165
51.9201,1.5227
51.9201,2.161
51.9211,2.6781
51.9211,2.7207
51.9221,2.6918
51.9221,2.0384
51.9231,1.2223
51.9231,1.2148
51.9241,1.2145
51.9241,1.2147
51.9251,1.2145
51.9251,1.248
51.9251,1.4834
51.9261,1.5165
51.9261,1.5199
51.9271,2.1308
51.9271,2.6913
51.9281,2.7203
51.9291,2.7016
51.9304,2.1233
51.9312,1.2302
51.9335,1.2148
51.9344,1.2147
51.9356,1.2147
51.9376,1.2148
51.9386,1.2497
51.9409,1.476
51.9417,1.516
51.9436,1.5179
51.9446,2.0365
51.9466,2.7072
51.9475,2.7203
51.9485,2.7113
51.9506,2.2439
51.9516,1.26
51.9536,1.2145
51.9546,1.2145
51.9556,1.2147
51.9581,1.2147
51.9589,1.251
51.9609,1.4674
51.9618,1.516
51.9628,1.5186
51.9648,1.9711
51.9658,2.7001
51.9678,2.7207
51.9688,2.7098
51.9706,2.2559
51.9716,1.2689
51.9737,1.2147
51.9747,1.2145
51.9759,1.2148
51.9770,1.2145
51.9779,1.2494
51.9809,1.452
51.9818,1.5158
51.9831,1.5177
51.9841,1.8745
51.9852,2.7201
51.9875,2.7201
51.9885,2.7096
51.9915,2.2512
51.9925,1.2636
51.9974,1.2147
52.0116,1.2147
52.0218,1.2147
52.0257,1.2147
52.0257,1.224
52.0269,1.4307
52.0269,1.515
52.0279,1.5179
52.0285,1.8089
52.0289,2.72
52.0299,2.7203
52.0299,2.7149
52.0309,2.3202
52.0309,1.215
52.0320,1.2147
52.0321,1.2145
52.0321,1.2147
52.0332,1.2147
52.0332,1.2255
52.0342,1.4157
52.0342,1.5149
52.0351,1.518
52.0351,1.7091
52.0361,2.72
52.0361,2.7203
52.0371,2.711
52.0371,2.3313
52.0371,1.215
52.0383,1.2143
52.0383,1.2147
52.0393,1.2147
52.0393,1.2145
52.0403,1.2329
52.0403,1.4003
52.0413,1.5145
52.0436,1.5184
52.0446,2.6785
52.0456,2.7201
52.0478,2.7203
52.0486,2.7205
52.0516,2.4198
52.0516,1.2154
52.0546,1.2145
52.0557,1.2147
52.0558,1.2147
52.0586,1.2145
52.0586,1.2402
52.0607,1.3829
52.0621,1.5137
52.0645,1.5179
52.0645,2.6766
52.0655,2.7203
52.0680,2.7203
52.0680,2.7126
52.0705,2.3924
52.0717,1.2154
52.0738,1.2148
52.0745,1.2147
52.0755,1.2147
52.0784,1.2154
52.0791,1.2462
52.0816,1.3658
52.0816,1.513
52.0845,1.5175
52.0846,2.6708
52.0857,2.72
52.0878,2.7203
52.0886,2.7207
52.0910,2.4408
52.0916,1.2156
52.0946,1.2147
52.0946,1.2147
52.0956,1.2147
52.0985,1.2148
52.0996,1.248
52.1010,1.3504
52.1066,1.512
52.1259,1.5173
52.1311,2.6502
52.1321,2.7203
52.1321,2.7203
52.1331,2.7207
52.1331,1.459
52.1341,1.2158
52.1341,1.2147
52.1351,1.2147
52.1351,1.2147
52.1361,1.2148
52.1361,1.2475
52.1372,1.338
52.1372,1.5109
52.1383,1.5179
52.1383,2.5878
52.1393,2.7104
52.1393,2.72
52.1393,2.7205
52.1403,1.5002
52.1403,1.2158
52.1413,1.2147
52.1413,1.2147
52.1424,1.2147
52.1424,1.2147
52.1424,1.2456
52.1434,1.3234
52.1434,1.5096
52.1444,1.5447
52.1444,2.525
52.1456,2.6898
52.1480,2.7201
52.1484,2.7205
52.1515,1.5803
52.1515,1.2162
52.1525,1.2148
52.1546,1.2147
52.1556,1.2147
52.1581,1.2145
52.1588,1.2441
52.1614,1.3094
52.1625,1.5074
52.1634,1.5332
52.1648,2.4289
52.1648,2.6735
52.1680,2.7201
52.1688,2.7205
52.1712,1.5957
52.1712,1.2167
52.1722,1.2147
52.1755,1.2147
52.1764,1.2147
52.1776,1.2147
52.1785,1.2419
52.1816,1.291
52.1818,1.5045
52.1828,1.5246
52.1855,2.3727
52.1855,2.6789
52.1879,2.7203
52.1879,2.7205
52.1916,1.6607
52.1916,1.2171
52.1926,1.2148
52.1947,1.2147
52.1956,1.2148
52.1985,1.2147
52.1991,1.2327
52.2016,1.2762
52.2016,1.5012
52.2026,1.5265
52.2050,2.2947
52.2050,2.674
52.2089,2.7201
52.2130,2.6416
52.2234,1.7485
52.2382,1.2178
52.2420,1.2147
52.2420,1.2145
52.2430,1.2145
52.2430,1.2147
52.2440,1.2327
52.2440,1.2664
52.2451,1.498
52.2452,1.5259
52.2463,2.2398
52.2469,2.6639
52.2469,2.7203
52.2480,2.6373
52.2480,1.7991
52.2489,1.2182
52.2489,1.2147
52.2499,1.2145
52.2499,1.2147
52.2509,1.2145
52.2514,1.2366
52.2524,1.2488
52.2524,1.5165
52.2534,1.5216
52.2534,2.1794
52.2544,2.6656
52.2544,2.7201
52.2544,2.6418
52.2554,1.7701
52.2564,1.218
52.2564,1.2147
52.2564,1.2145
52.2576,1.2145
52.2576,1.2145
52.2586,1.2396
52.2596,1.2364
52.2615,1.5164
52.2632,1.5207
52.2645,2.11
52.2655,2.6765
52.2687,2.7203
52.2707,1.587
52.2715,1.2167
52.2725,1.2147
52.2748,1.2145
52.2756,1.2147
52.2776,1.2145
52.2786,1.2415
52.2808,1.4802
52.2816,1.5165
52.2826,1.5197
52.2846,2.0581
52.2858,2.7018
52.2875,2.7201
52.2885,2.7207
52.2906,2.4381
52.2916,1.3842
52.2928,1.2158
52.2950,1.2147
52.2958,1.2147
52.2978,1.2148
52.2988,1.2482
52.2998,1.2595
52.3018,1.5165
52.3028,1.5184
52.3039,1.9988
52.3049,2.6978
52.3076,2.7203
52.3086,2.6999
52.3098,2.1235
52.3116,1.2323
52.3126,1.2148
52.3146,1.2147
52.3158,1.2145
52.3167,1.2145
52.3188,1.2407
52.3198,1.2222
52.3223,1.5158
52.3223,1.5192
52.3255,1.9322
52.3262,2.6727
52.3276,2.7203
52.3286,2.675
52.3296,2.0136
52.3348,1.2231
52.3386,1.2148
52.3588,1.2147
52.3629,1.2145
52.3661,1.2147
52.3671,1.2392
52.3671,1.2214
52.3681,1.5156
52.3681,1.5175
52.3691,1.8289
52.3691,2.6686
52.3701,2.7201
52.3701,2.6785
52.3711,2.0701
52.3713,1.2295
52.3713,1.2145
52.3723,1.2147
52.3723,1.2147
52.3733,1.2147
52.3733,1.2304
52.3743,1.2205
52.3743,1.5152
52.3753,1.5177
52.3753,1.7374
52.3763,2.6738
52.3763,2.72
52.3772,2.69
52.3775,2.1494
52.3785,1.2467
52.3795,1.215
52.3795,1.2147
52.3806,1.2147
52.3806,1.2147
52.3816,1.2222
52.3816,1.2261
52.3827,1.5149
52.3827,1.518
52.3838,1.6634
52.3856,2.6688
52.3866,2.72
52.3888,2.701
52.3896,2.2409
52.3906,1.2694
52.3926,1.215
52.3936,1.2145
52.3949,1.2147
52.3961,1.2147
52.3986,1.2165
52.3996,1.2334
52.4006,1.3827
52.4028,1.5175
52.4038,1.6054
52.4056,2.672
52.4066,2.7201
52.4078,2.6922
52.4095,2.2137
52.4106,1.2737
52.4125,1.215
52.4137,1.2145
52.4155,1.2147
52.4162,1.2147
52.4173,1.2154
52.4196,1.2415
52.4206,1.363
52.4226,1.5179
52.4236,1.5687
52.4248,2.6556
52.4268,2.72
52.4278,2.7205
52.4288,2.2617
52.4309,1.2989
52.4320,1.2152
52.4329,1.2148
52.4339,1.2148
52.4366,1.2145
52.4376,1.2147
52.4396,1.2424
52.4406,1.3484
52.4450,1.5173
52.4562,1.5495
52.4693,2.6352
52.4733,2.7201
52.4743,2.7203
52.4743,2.2632
52.4753,1.3069
52.4753,1.2152
52.4753,1.2148
52.4765,1.2145
52.4765,1.2145
52.4775,1.2148
52.4775,1.2415
52.4789,1.3317
52.4796,1.5173
52.4805,1.5379
52.4805,2.5919
52.4805,2.7186
52.4815,2.7203
52.4815,2.2915
52.4827,1.326
52.4827,1.2152
52.4837,1.2143
52.4837,1.2148
52.4847,1.2145
52.4847,1.2147
52.4857,1.2426
52.4857,1.3172
52.4857,1.509
52.4867,1.5342
52.4867,2.5268
52.4877,2.6958
52.4887,2.7205
52.4887,2.2551
52.4916,1.3184
52.4916,1.2154
52.4939,1.2147
52.4944,1.2147
52.4961,1.2148
52.4984,1.215
52.4992,1.2392
52.5006,1.3011
52.5017,1.507
52.5026,1.5302
52.5048,2.4599
52.5056,2.6725
52.5076,2.7203
52.5086,2.7113
52.5108,1.3343
52.5116,1.2152
52.5126,1.2147
52.5146,1.2147
52.5156,1.2147
52.5176,1.2147
52.5186,1.2375
52.5206,1.285
52.5216,1.5042
52.5228,1.5312
52.5245,2.3783
52.5253,2.6652
52.5273,2.7203
52.5283,2.7164
52.5293,1.3718
52.5316,1.2156
52.5326,1.2147
52.5349,1.2147
52.5358,1.2147
52.5376,1.2147
52.5386,1.228
52.5398,1.2692
52.5416,1.5008
52.5426,1.524
52.5448,2.3039
52.5458,2.6641
52.5476,2.7203
52.5486,2.7207
52.5526,1.4217
52.5588,1.2158
52.5662,1.2148
52.5778,1.2147
52.5813,1.2147
52.5824,1.2145
52.5824,1.2293
52.5824,1.26
52.5834,1.4978
52.5834,1.5267
52.5845,2.2281
52.5845,2.6781
52.5855,2.7201
52.5855,2.7205
52.5855,1.5645
52.5865,1.2163
52.5865,1.2147
52.5875,1.2148
52.5875,1.2147
52.5885,1.2145
52.5885,1.2364
52.5895,1.2488
52.5895,1.4925
52.5905,1.5244
52.5906,2.1813
52.5906,2.6729
52.5917,2.7203
52.5917,2.7205
52.5927,1.7256
52.5927,1.218
52.5937,1.2145
52.5937,1.2147
52.5956,1.2147
52.5968,1.2147
52.5987,1.2402
52.5997,1.2405
52.6017,1.4862
52.6029,1.5207
52.6039,2.1439
52.6058,2.6766
52.6068,2.72
52.6090,2.6648
52.6098,1.8413
52.6118,1.2188
52.6131,1.2148
52.6138,1.2148
52.6156,1.2145
52.6166,1.2145
52.6186,1.2424
52.6196,1.2321
52.6216,1.4787
52.6226,1.5201
52.6236,2.0881
52.6259,2.6967
52.6262,2.7201
52.6287,2.6684
52.6294,1.8827
52.6315,1.2195
52.6326,1.215
52.6346,1.2143
52.6356,1.2147
52.6367,1.2145
52.6386,1.2458
52.6396,1.2276
52.6416,1.4674
52.6426,1.5186
52.6446,2.0249
52.6456,2.7044
52.6466,2.72
52.6486,2.692
52.6496,1.9851
52.6520,1.2212
52.6528,1.2148
52.6538,1.2147
52.6564,1.2147
52.6622,1.2147
52.6726,1.245
52.6857,1.2242
52.6897,1.5156
52.6897,1.5182
52.6907,1.9351
52.6907,2.6881
52.6917,2.72
52.6917,2.6847
52.6917,2.032
52.6927,1.2248
52.6927,1.2148
52.6938,1.2145
52.6938,1.2145
52.6948,1.2145
52.6955,1.2449
52.6959,1.2223
52.6968,1.5158
52.6968,1.5184
52.6979,1.8614
52.6979,2.6744
52.6990,2.7201
52.6990,2.6958
52.6990,2.125
52.7001,1.2372
52.7001,1.2147
52.7011,1.2148
52.7011,1.2145
52.7021,1.2145
52.7021,1.2394
52.7031,1.2218
52.7031,1.5152
52.7041,1.5186
52.7042,1.7742
52.7055,2.6693
52.7065,2.7201
52.7094,2.6963
52.7094,2.1736
52.7115,1.251
52.7125,1.215
52.7135,1.2148
52.7158,1.2147
52.7167,1.2148
52.7187,1.2289
52.7197,1.2223
52.7226,1.515
52.7226,1.5184
52.7236,1.6932
52.7263,2.6727
52.7263,2.7203
52.7287,2.7021
52.7294,2.242
52.7315,1.2732
52.7327,1.215
52.7337,1.2147
52.7356,1.2147
52.7366,1.2145
52.7396,1.2218
52.7396,1.23
52.7424,1.5143
52.7431,1.5179
52.7431,1.609
52.7466,2.6751
52.7476,2.7203
52.7476,2.7014
52.7507,2.284
52.7507,1.293
52.7529,1.2152
52.7539,1.2147
52.7562,1.2147
52.7562,1.2147
52.7593,1.2167
52.7593,1.2383
52.7604,1.5139
52.7634,1.5184
52.7647,1.5685
52.7658,2.6761
52.7717,2.7205
52.7930,2.7085
52.7991,2.3774
52.7997,1.35
52.8001,1.2152
52.8001,1.2147
52.8012,1.2147
52.8012,1.2147
52.8021,1.2152
52.8021,1.3566
52.8031,1.5128
52.8031,1.518
52.8043,1.5548
52.8043,2.6352
52.8053,2.7203
52.8053,2.7121
52.8063,2.4342
52.8063,1.3967
52.8073,1.2154
52.8073,1.2147
52.8083,1.2148
52.8083,1.2147
52.8094,1.2148
52.8094,1.3444
52.8094,1.5115
52.8105,1.5177
52.8105,1.5385
52.8115,2.6159
52.8125,2.7203
52.8134,2.7179
52.8134,2.4391
52.8144,1.4117
52.8144,1.2148
52.8156,1.2147
52.8156,1.2148
52.8166,1.2147
52.8189,1.2148
52.8189,1.3298
52.8199,1.5102
52.8236,1.5171
52.8236,1.5422
52.8257,2.5793
52.8268,2.7203
52.8279,2.7207
52.8298,2.4906
52.8298,1.4719
52.8332,1.2148
52.8332,1.2145
52.8359,1.2147
52.8369,1.2147
52.8392,1.2147
52.8393,1.3157
52.8403,1.5085
52.8437,1.5171
52.8448,1.53
52.8455,2.6901
52.8465,2.7205
52.8494,2.7205
52.8499,2.537
52.8509,1.5552
52.8527,1.2147
52.8537,1.2147
52.8560,1.2145
52.8560,1.2147
52.8592,1.2145
52.8601,1.2998
52.8601,1.506
52.8636,1.5167
52.8636,1.5325
52.8664,2.6765
52.8674,2.7201
52.8674,2.7207
52.8702,2.5763
52.8713,1.6253
52.8725,1.2147
52.8735,1.2147
52.8794,1.2147
52.8956,1.2145
52.9123,1.2347
52.9197,1.2878
52.9206,1.5042
52.9206,1.5169
52.9216,1.5261
52.9226,2.675
52.9226,2.7203
52.9236,2.7205
52.9245,2.5943
52.9245,1.2171
52.9255,1.2147
52.9265,1.2147
52.9265,1.2148
52.9275,1.2147
52.9290,1.2295
52.9305,1.2666
52.9315,1.4989
52.9315,1.5169
52.9325,1.5351
52.9335,2.6714
52.9345,2.7203
52.9345,2.7207
52.9355,2.6097
52.9365,1.2175
52.9375,1.2148
52.9375,1.2147
52.9385,1.2148
52.9395,1.2147
52.9395,1.2351
52.9405,1.2557
52.9415,1.4944
52.9415,1.5167
52.9425,1.5263
52.9425,2.6716
52.9435,2.72
52.9445,2.7203
52.9455,2.6686
52.9466,1.2186
52.9475,1.2147
52.9485,1.2148
52.9485,1.2147
52.9494,1.2145
52.9504,1.2392
52.9504,1.2435
52.9514,1.4888
52.9524,1.5165
52.9524,2.1576
52.9534,2.6763
52.9544,2.7201
52.9544,2.7205
52.9554,2.5966
52.9564,1.2171
52.9564,1.2147
52.9574,1.2147
52.9584,1.2147
52.9584,1.2147
52.9594,1.2383
52.9604,1.23
52.9604,1.4802
52.9624,1.5164
52.9634,2.1048
52.9655,2.6915
52.9664,2.7201
52.9676,2.7205
52.9696,2.7076
52.9735,1.2152
52.9745,1.2147
52.9755,1.2147
52.9765,1.2147
52.9786,1.2479
52.9796,1.2702
52.9806,1.4944
52.9877,1.519
53.0046,2.0667
53.0225,2.7074
53.0280,2.72
53.0286,2.7205
53.0305,2.2523
53.0305,1.2572
53.0315,1.2148
53.0325,1.2145
53.0325,1.2147
53.0335,1.2147
53.0345,1.2379
53.0345,1.2261
53.0355,1.462
53.0365,1.5182
53.0365,1.9516
53.0375,2.683
53.0375,2.7201
53.0385,2.7203
53.0395,2.0871
53.0395,1.2297
53.0405,1.215
53.0415,1.2145
53.0415,1.2147
53.0425,1.2147
53.0435,1.2398
53.0435,1.2237
53.0445,1.4429
53.0456,1.5154
53.0475,1.9135
53.0475,2.674
53.0485,2.7201
53.0495,2.7205
53.0495,2.1949
53.0505,1.2542
53.0515,1.2148
53.0515,1.2148
53.0525,1.2145
53.0535,1.2147
53.0535,1.2362
53.0545,1.2225
53.0555,1.4309
53.0565,1.5154
53.0575,1.7997
53.0575,2.666
53.0585,2.7203
53.0595,2.7205
53.0595,2.1837
53.0605,1.249
53.0615,1.2148
53.0625,1.2148
53.0625,1.2148
53.0634,1.2148
53.0644,1.2252
53.0644,1.2207
53.0654,1.4087
53.0664,1.5149
53.0664,1.7042
53.0674,2.6701
53.0684,2.72
53.0684,2.7203
53.0694,2.7044
53.0704,1.2835
53.0714,1.215
53.0736,1.2147
53.0746,1.2147
53.0766,1.2147
53.0776,1.2193
53.0786,1.2267
53.0807,1.3964
53.0816,1.5143
53.0836,1.6531
53.0846,2.6834
53.0856,2.7201
53.0876,2.7205
53.0886,2.7046
53.0905,1.3005
53.0985,1.215
53.1134,1.2147
53.1294,1.2147
53.1374,1.2145
53.1384,1.2162
53.1394,1.2342
53.1404,1.3791
53.1404,1.5139
53.1414,1.5173
53.1424,2.6643
53.1424,2.7201
53.1434,2.7203
53.1434,2.7091
53.1444,1.3422
53.1463,1.2152
53.1473,1.2147
53.1483,1.2147
53.1483,1.2148
53.1493,1.2152
53.1503,1.2375
53.1503,1.3598
53.1513,1.5128
53.1523,1.5173
53.1523,2.6669
53.1533,2.72
53.1543,2.7203
53.1543,2.7106
53.1553,2.3824
53.1563,1.2154
53.1573,1.2148
53.1573,1.2148
53.1583,1.2147
53.1593,1.2148
53.1603,1.2389
53.1603,1.3429
53.1613,1.5115
53.1623,1.5173
53.1633,2.6412
53.1643,2.72
53.1643,2.7201
53.1653,2.7126
53.1663,2.4006
53.1663,1.2154
53.1673,1.2147
53.1683,1.2147
53.1683,1.2147
53.1693,1.2147
53.1703,1.239
53.1713,1.3281
53.1723,1.5102
53.1733,1.5171
53.1733,2.5913
53.1743,2.707
53.1753,2.7203
53.1763,2.7111
53.1763,2.4018
53.1773,1.2156
53.1773,1.2145
53.1783,1.2147
53.1783,1.2145
53.1783,1.2145
53.1793,1.24
53.1793,1.3094
53.1816,1.5079
53.1826,1.5171
53.1836,1.5347
53.1856,2.6928
53.1866,2.7201
53.1886,2.7145
53.1897,2.3474
53.1916,1.2156
53.1926,1.2147
53.1936,1.2148
53.1956,1.2148
53.1966,1.2147
53.1986,1.237
53.1996,1.2953
53.2006,1.506
53.2029,1.5167
53.2076,1.5261
53.2256,2.6729
53.2306,2.7203
53.2317,2.7207
53.2326,2.3943
53.2326,1.2156
53.2326,1.2147
53.2335,1.2147
53.2335,1.2147
53.2346,1.2147
53.2346,1.2317
53.2355,1.278
53.2355,1.5029
53.2355,1.5169
53.2365,1.524
53.2365,2.6755
53.2375,2.7201
53.2375,2.7205
53.2385,2.485
53.2385,1.2162
53.2385,1.2147
53.2395,1.2147
53.2395,1.2148
53.2405,1.2147
53.2405,1.2274
53.2405,1.2709
53.2415,1.5008
53.2426,1.5167
53.2436,1.5327
53.2449,2.6661
53.2466,2.7205
53.2476,2.7205
53.2496,2.5943
53.2506,1.2173
53.2526,1.2145
53.2535,1.2147
53.2556,1.2147
53.2566,1.2147
53.2575,1.2297
53.2596,1.2597
53.2605,1.4961
53.2625,1.5167
53.2635,1.5242
53.2645,2.6699
53.2666,2.7203
53.2675,2.7205
53.2696,2.6427
53.2706,1.2178
53.2726,1.2147
53.2735,1.2147
53.2745,1.2147
53.2765,1.2145
53.2775,1.2353
53.2795,1.2488
53.2805,1.4912
53.2825,1.5167
53.2835,1.527
53.2845,2.6676
53.2865,2.7201
53.2875,2.7205
53.2895,2.684
53.2905,1.9118
53.2925,1.2148
53.2934,1.2147
53.2948,1.2145
53.2965,1.2147
53.2975,1.2405
53.2995,1.2411
53.3005,1.4862
53.3014,1.5164
53.3035,1.5205
53.3044,2.6808
53.3065,2.7203
53.3074,2.7205
53.3095,2.6946
53.3104,2.05
53.3114,1.2148
53.3168,1.2147
53.3264,1.2147
53.3404,1.2145
53.3414,1.2145
53.3424,1.2342
53.3424,1.4775
53.3424,1.5164
53.3434,1.5205
53.3434,2.7021
53.3443,2.7201
53.3450,2.7203
53.3453,2.6871
53.3463,2.1008
53.3463,1.2148
53.3473,1.2145
53.3473,1.2147
53.3473,1.2147
53.3483,1.2145
53.3483,1.2282
53.3493,1.4655
53.3493,1.5162
53.3503,1.5186
53.3503,1.9832
53.3503,2.7201
53.3513,2.7205
53.3513,2.704
53.3523,2.1732
53.3523,1.2148
53.3533,1.2143
53.3546,1.2147
53.3556,1.2147
53.3576,1.2147
53.3586,1.2257
53.3606,1.4532
53.3616,1.5158
53.3628,1.518
53.3646,1.8794
53.3656,2.7201
53.3678,2.7205
53.3688,2.6971
53.3707,2.2182
53.3717,1.2148
53.3727,1.2147
53.3748,1.2147
53.3757,1.2147
53.3776,1.2147
53.3786,1.2248
53.3796,1.4365
53.3816,1.5158
53.3826,1.5182
53.3846,1.804
53.3856,2.7201
53.3886,2.7205
53.3886,2.7117
53.3896,2.311
53.3916,1.2925
53.3926,1.2147
53.3948,1.2147
53.3948,1.2145
53.3980,1.2145
53.3988,1.2278
53.3988,1.4205
53.4019,1.5149
53.4029,1.5188
53.4045,1.7273
53.4055,2.72
53.4065,2.7203
53.4092,2.713
53.4102,2.3463
53.4116,1.3127
53.4124,1.2147
53.4146,1.2147
53.4154,1.2147
53.4164,1.2145
53.4186,1.2197
53.4194,1.3997
53.4217,1.5145
53.4270,1.5177
53.4463,1.6452
53.4523,2.7201
53.4524,2.7203
53.4535,2.7205
53.4535,2.4102
53.4544,1.3637
53.4544,1.2147
53.4544,1.2148
53.4553,1.2145
53.4553,1.2148
53.4565,1.2173
53.4565,1.3851
53.4573,1.5139
53.4573,1.5177
53.4582,1.6139
53.4583,2.6753
53.4583,2.7205
53.4597,2.7205
53.4597,2.4998
53.4605,1.4475
53.4605,1.2147
53.4615,1.2147
53.4625,1.2145
53.4635,1.2147
53.4640,1.2154
53.4647,1.3709
53.4655,1.5128
53.4655,1.5182
53.4665,1.5634
53.4665,2.6556
53.4676,2.7201
53.4685,2.7207
53.4695,2.5051
53.4708,1.4695
53.4720,1.2156
53.4730,1.2147
53.4750,1.2147
53.4760,1.2147
53.4769,1.2147
53.4799,1.3527
53.4799,1.5122
53.4822,1.5175
53.4833,1.5524
53.4853,2.6369
53.4863,2.7203
53.4872,2.7207
53.4896,2.5356
53.4906,1.5072
53.4925,1.216
53.4936,1.2148
53.4944,1.2148
53.4964,1.2148
53.4973,1.2147
53.4997,1.2405
53.5006,1.5109
53.5026,1.5175
53.5036,1.5396
53.5046,2.6211
53.5066,2.7203
53.5076,2.7205
53.5096,2.6181
53.5106,1.6486
53.5118,1.2165
53.5138,1.2145
53.5148,1.2145
53.5168,1.2147
53.5179,1.2148
53.5196,1.2449
53.5206,1.5094
53.5216,1.5175
53.5238,1.5312
53.5246,2.5685
53.5266,2.6926
53.5276,2.7207
53.5296,2.5782
53.5346,1.5795
53.5444,1.2163
53.5564,1.2147
53.5598,1.2147
53.5598,1.2147
53.5606,1.2147
53.5606,1.2437
53.5616,1.5074
53.5627,1.5167
53.5636,1.5321
53.5636,2.4852
53.5636,2.6716
53.5647,2.7203
53.5647,2.6463
53.5657,1.7354
53.5657,1.2175
53.5657,1.2147
53.5667,1.2147
53.5667,1.2147
53.5677,1.2148
53.5677,1.236
53.5677,1.506
53.5687,1.5169
53.5687,1.5297
53.5697,2.3774
53.5697,2.674
53.5707,2.7201
53.5709,2.6729
53.5709,1.8736
53.5719,1.2188
53.5736,1.2148
53.5746,1.2145
53.5756,1.2147
53.5775,1.2148
53.5785,1.2315
53.5815,1.5025
53.5820,1.5167
53.5846,1.5259
53.5846,2.2969
53.5856,2.6783
53.5879,2.7203
53.5879,2.6757
53.5899,1.9009
53.5911,1.219
53.5920,1.2147
53.5948,1.2147
53.5958,1.2145
53.5983,1.2148
53.5983,1.234
53.6016,1.2692
53.6016,1.5167
53.6026,1.5284
53.6057,2.2413
53.6057,2.678
53.6087,2.7205
53.6089,2.6811
53.6089,1.9559
53.6113,1.2203
53.6124,1.2148
53.6146,1.2145
53.6156,1.2147
53.6179,1.2147
53.6179,1.2374
53.6189,1.2563
53.6212,1.5167
53.6221,1.5239
53.6256,2.1768
53.6256,2.677
53.6264,2.7203
53.6292,2.6945
53.6300,2.0453
53.6314,1.2227
53.6323,1.2148
53.6352,1.2148
53.6352,1.2145
53.6362,1.2145
53.6412,1.2435
53.6545,1.2415
53.6630,1.5165
53.6661,1.519
53.6661,2.1308
53.6670,2.6738
53.6670,2.7203
53.6680,2.6418
53.6680,1.7931
53.6690,1.2186
53.6690,1.2148
53.6690,1.2145
53.6700,1.2147
53.6700,1.2148
53.6712,1.2435
53.6712,1.2497
53.6722,1.486
53.6722,1.5188
53.6722,2.0658
53.6732,2.702
53.6732,2.7201
53.6742,2.7209
53.6742,2.5799
53.6742,1.4954
53.6752,1.215
53.6752,1.2147
53.6763,1.2148
53.6787,1.2477
53.6790,1.269
53.6810,1.5167
53.6830,1.5186
53.6830,1.9774
53.6857,2.702
53.6867,2.72
53.6896,2.7205
53.6896,2.3629
53.6925,1.3049
53.6930,1.215
53.6930,1.2147
53.6956,1.2147
53.6960,1.2148
53.6983,1.2439
53.6994,1.2278
53.7019,1.5162
53.7019,1.518
53.7029,1.9099
53.7066,2.6832
53.7066,2.7201
53.7093,2.7188
53.7093,2.329
53.7113,1.2917
53.7124,1.2152
53.7134,1.2148
53.7158,1.2147
53.7165,1.2147
53.7187,1.2409
53.7195,1.2252
53.7207,1.5156
53.7236,1.5177
53.7236,1.8398
53.7260,2.6866
53.7260,2.72
53.7292,2.7207
53.7300,2.371
53.7300,1.3255
53.7323,1.215
53.7333,1.2147
53.7357,1.2147
53.7367,1.2148
53.7384,1.2317
53.7396,1.2248
53.7404,1.515
53.7434,1.5184
53.7434,1.7672
53.7466,2.6738
53.7506,2.7203
53.7610,2.7209
53.7728,2.453
53.7761,1.3857
53.7761,1.2154
53.7773,1.2147
53.7783,1.2147
53.7795,1.2147
53.7795,1.2242
53.7803,1.2267
53.7803,1.5147
53.7813,1.5182
53.7813,1.6664
53.7813,2.6823
53.7823,2.7203
53.7823,2.7209
53.7836,2.4916
53.7836,1.4316
53.7836,1.2154
53.7846,1.2147
53.7846,1.2147
53.7856,1.2145
53.7856,1.2182
53.7866,1.3881
53.7866,1.5139
53.7866,1.518
53.7875,1.6034
53.7875,2.6789
53.7885,2.7203
53.7885,2.7207
53.7897,2.503
53.7907,1.4489
53.7929,1.2156
53.7937,1.2147
53.7947,1.2145
53.7968,1.2147
53.7995,1.2163
53.7995,1.3815
53.8005,1.5137
53.8036,1.5177
53.8036,1.5735
53.8055,2.6766
53.8065,2.7203
53.8096,2.7209
53.8096,2.5343
53.8106,1.4884
53.8126,1.2147
53.8137,1.2147
53.8165,1.2147
53.8165,1.2148
53.8189,1.2148
53.8194,1.3557
53.8200,1.5122
53.8234,1.5173
53.8241,1.5454
53.8265,2.6487
53.8271,2.7203
53.8280,2.7207
53.8294,2.5456
53.8304,1.5175
53.8335,1.215
53.8344,1.2145
53.8365,1.2145
53.8365,1.2147
53.8376,1.2145
53.8400,1.3403
53.8400,1.5113
53.8425,1.5173
53.8435,1.5319
53.8459,2.7113
53.8463,2.7203
53.8469,2.7207
53.8511,2.5628
53.8511,1.554
53.8536,1.2147
53.8536,1.2147
53.8553,1.2147
53.8562,1.2147
53.8571,1.2145
53.8611,1.3324
53.8712,1.5104
53.8843,1.5173
53.8881,1.5312
53.8885,2.689
53.8885,2.7203
53.8895,2.7205
53.8895,2.5236
53.8905,1.5287
53.8905,1.2147
53.8905,1.2145
53.8915,1.2147
53.8915,1.2145
53.8926,1.2409
53.8926,1.3024
53.8926,1.5064
53.8937,1.5171
53.8937,1.5327
53.8946,2.6755
