19.0874,1.647
19.0874,1.648
19.0882,1.654
19.0882,1.649
19.0882,1.648
19.0882,1.647
19.0882,1.648
19.0882,1.645
19.0882,1.648
19.0892,1.649
19.0892,1.647
19.0892,1.646
19.0892,1.647
19.0892,1.647
19.0892,1.646
19.0892,1.649
19.0902,1.653
19.0902,1.649
19.0902,1.648
19.0902,1.649
19.0902,1.648
19.0902,1.646
19.0902,1.648
19.0912,1.646
19.0912,1.647
19.0912,1.646
19.0912,1.646
19.0912,1.646
19.0912,1.647
19.0912,1.647
19.0912,1.653
19.0922,1.652
19.0922,1.649
19.0922,1.647
19.0922,1.649
19.0922,1.647
19.0922,1.646
19.0922,1.651
19.0932,1.646
19.0932,1.644
19.0932,1.646
19.0932,1.646
19.0932,1.647
19.0932,1.647
19.0932,1.649
19.0941,1.647
19.0941,1.647
19.0941,1.649
19.0941,1.648
19.0941,1.649
19.0941,1.647
19.0941,1.648
19.0951,1.645
19.0951,1.646
19.0951,1.648
19.0951,1.647
19.0951,1.647
19.0951,1.648
19.0951,1.647
19.0961,1.647
19.0961,1.65
19.0961,1.65
19.0961,1.65
19.0961,1.648
19.0961,1.649
19.0961,1.647
19.0971,1.645
19.0971,1.646
19.0971,1.649
19.0971,1.647
19.0971,1.646
19.0971,1.647
19.0971,1.646
19.0981,1.648
19.0981,1.654
19.0981,1.651
19.0981,1.649
19.0981,1.648
19.0981,1.648
19.0981,1.646
19.0981,1.646
19.0991,1.648
19.0991,1.646
19.0991,1.646
19.0991,1.646
19.0991,1.646
19.0991,1.648
19.0991,1.649
19.1001,1.65
19.1001,1.648
19.1001,1.648
19.1001,1.649
19.1001,1.648
19.1001,1.649
19.1001,1.65
19.1011,1.647
19.1011,1.648
19.1011,1.649
19.1011,1.647
19.1021,1.647
19.1021,1.649
19.1021,1.647
19.1021,1.647
19.1021,1.654
19.1021,1.649
19.1021,1.649
19.1031,1.65
19.1031,1.648
19.1031,1.646
19.1031,1.649
19.1031,1.647
19.1031,1.647
19.1031,1.646
19.1041,1.646
19.1041,1.647
19.1041,1.647
19.1041,1.648
19.1041,1.648
19.1041,1.654
19.1041,1.648
19.1051,1.649
19.1051,1.649
19.1051,1.647
19.1051,1.646
19.1051,1.649
19.1051,1.648
19.1051,1.648
19.1051,1.646
19.1061,1.647
19.1061,1.648
19.1061,1.649
19.1061,1.648
19.1061,1.65
19.1061,1.647
19.1071,1.649
19.1071,1.649
19.1071,1.648
19.1071,1.649
19.1071,1.647
19.1071,1.652
19.1081,1.65
19.1081,1.646
19.1081,1.647
19.1081,1.648
19.1081,1.648
19.1081,1.648
19.1081,1.653
19.1091,1.647
19.1091,1.647
19.1091,1.649
19.1091,1.649
19.1091,1.647
19.1101,1.647
19.1101,1.65
19.1101,1.646
19.1101,1.647
19.1101,1.646
19.1101,1.647
19.1101,1.647
19.1111,1.648
19.1111,1.649
19.1111,1.645
19.1111,1.65
19.1111,1.649
19.1111,1.649
19.1111,1.649
19.1121,1.648
19.1121,1.649
19.1121,1.644
19.1121,1.65
19.1121,1.647
19.1121,1.647
19.1131,1.647
19.1131,1.648
19.1131,1.649
19.1131,1.647
19.1131,1.65
19.1131,1.651
19.1141,1.648
19.1141,1.649
19.1141,1.649
19.1141,1.65
19.1141,1.646
19.1141,1.645
19.1141,1.649
19.1151,1.646
19.1151,1.646
19.1151,1.647
19.1151,1.649
19.1151,1.649
19.1151,1.648
19.1151,1.651
19.1161,1.649
19.1161,1.649
19.1161,1.648
19.1161,1.649
19.1161,1.651
19.1161,1.644
19.1161,1.647
19.1171,1.646
19.1171,1.647
19.1171,1.647
19.1171,1.648
19.1171,1.648
19.1171,1.648
19.1180,1.648
19.1180,1.652
19.1180,1.649
19.1180,1.649
19.1191,1.649
19.1191,1.646
19.1191,1.647
19.1191,1.65
19.1201,1.651
19.1201,1.646
19.1201,1.647
19.1201,1.648
19.1210,1.648
19.1210,1.649
19.1210,1.651
19.1210,1.645
19.1210,1.649
19.1221,1.649
19.1221,1.649
19.1221,1.647
19.1221,1.647
19.1221,1.647
19.1221,1.646
19.1230,1.648
19.1230,1.648
19.1230,1.648
19.1230,1.648
19.1230,1.649
19.1230,1.65
19.1230,1.649
19.1240,1.651
19.1240,1.65
19.1240,1.648
19.1240,1.648
19.1240,1.646
19.1240,1.647
19.1240,1.651
19.1250,1.649
19.1250,1.646
19.1250,1.647
19.1250,1.648
19.1250,1.648
19.1250,1.648
19.1260,1.649
19.1260,1.65
19.1260,1.649
19.1260,1.649
19.1260,1.649
19.1260,1.648
19.1260,1.651
19.1260,1.645
19.1270,1.645
19.1270,1.648
19.1270,1.647
19.1270,1.647
19.1270,1.647
19.1280,1.648
19.1280,1.648
19.1280,1.652
19.1280,1.653
19.1280,1.649
19.1280,1.648
19.1280,1.649
19.1290,1.649
19.1290,1.646
19.1290,1.647
19.1290,1.653
19.1290,1.647
19.1290,1.647
19.1290,1.647
19.1300,1.647
19.1300,1.648
19.1300,1.647
19.1300,1.654
19.1300,1.648
19.1300,1.649
19.1300,1.648
19.1310,1.648
19.1310,1.65
19.1310,1.647
19.1310,1.651
19.1310,1.65
19.1310,1.647
19.1310,1.647
19.1320,1.649
19.1320,1.649
19.1320,1.649
19.1320,1.649
19.1320,1.652
19.1320,1.65
19.1320,1.648
19.1330,1.649
19.1330,1.65
19.1330,1.646
19.1330,1.648
19.1330,1.651
19.1330,1.647
19.1330,1.646
19.1340,1.648
19.1340,1.648
19.1340,1.648
19.1340,1.647
19.1340,1.655
19.1340,1.649
19.1350,1.649
19.1350,1.649
19.1350,1.648
19.1350,1.647
19.1360,1.648
19.1360,1.654
19.1360,1.649
19.1360,1.646
19.1360,1.647
19.1360,1.648
19.1360,1.648
19.1390,1.648
19.1400,1.655
19.1460,1.652
19.1530,1.648
19.1540,1.65
19.1559,1.648
19.1559,1.647
19.1559,1.647
19.1569,1.65
19.1569,1.647
19.1569,1.647
19.1579,1.647
19.1579,1.649
19.1579,1.648
19.1579,1.655
19.1579,1.649
19.1590,1.648
19.1590,1.648
19.1590,1.649
19.1590,1.646
19.1600,1.646
19.1600,1.649
19.1600,1.65
19.1600,1.647
19.1600,1.646
19.1610,1.647
19.1610,1.647
19.1610,1.646
19.1610,1.648
19.1620,1.654
19.1620,1.652
19.1620,1.649
19.1620,1.649
19.1620,1.649
19.1630,1.647
19.1630,1.648
19.1630,1.651
19.1630,1.647
19.1639,1.646
19.1639,1.646
19.1639,1.647
19.1639,1.648
19.1639,1.65
19.1650,1.651
19.1650,1.648
19.1650,1.648
19.1650,1.649
19.1660,1.649
19.1660,1.646
19.1660,1.648
19.1660,1.649
19.1660,1.652
19.1670,1.646
19.1670,1.646
19.1670,1.647
19.1679,1.647
19.1679,1.647
19.1679,1.649
19.1689,1.651
19.1689,1.649
19.1689,1.649
19.1689,1.649
19.1689,1.648
19.1699,1.648
19.1699,1.648
19.1699,1.648
19.1699,1.643
19.1699,1.646
19.1699,1.646
19.1699,1.647
19.1709,1.648
19.1709,1.648
19.1709,1.646
19.1709,1.65
19.1709,1.651
19.1719,1.649
19.1719,1.648
19.1719,1.65
19.1719,1.648
19.1719,1.645
19.1719,1.646
19.1729,1.648
19.1729,1.646
19.1729,1.647
19.1729,1.648
19.1739,1.648
19.1739,1.647
19.1739,1.649
19.1739,1.65
19.1739,1.648
19.1739,1.647
19.1739,1.648
19.1749,1.649
19.1749,1.646
19.1749,1.647
19.1759,1.652
19.1759,1.647
19.1759,1.646
19.1759,1.647
19.1759,1.648
19.1759,1.647
19.1769,1.648
19.1769,1.653
19.1769,1.652
19.1769,1.648
19.1779,1.649
19.1779,1.648
19.1779,1.646
19.1779,1.646
19.1779,1.646
19.1779,1.653
19.1779,1.647
19.1789,1.646
19.1789,1.647
19.1789,1.648
19.1789,1.647
19.1789,1.648
19.1789,1.653
19.1789,1.648
19.1799,1.649
19.1799,1.648
19.1799,1.647
19.1799,1.645
19.1799,1.648
19.1799,1.646
19.1799,1.646
19.1809,1.646
19.1809,1.647
19.1809,1.647
19.1809,1.647
19.1809,1.65
19.1809,1.653
19.1809,1.647
19.1819,1.648
19.1819,1.648
19.1819,1.647
19.1819,1.646
19.1819,1.647
19.1819,1.653
19.1819,1.647
19.1829,1.646
19.1829,1.647
19.1829,1.646
19.1829,1.647
19.1829,1.647
19.1829,1.649
19.1829,1.654
19.1829,1.648
19.1839,1.647
19.1839,1.648
19.1839,1.646
19.1839,1.647
19.1839,1.649
19.1849,1.649
19.1849,1.645
19.1849,1.646
19.1849,1.647
19.1859,1.646
19.1859,1.646
19.1859,1.646
19.1859,1.653
19.1859,1.647
19.1859,1.648
19.1869,1.65
19.1869,1.648
19.1869,1.646
19.1869,1.647
19.1869,1.651
19.1869,1.641
19.1869,1.646
19.1879,1.646
19.1879,1.646
19.1879,1.647
19.1879,1.647
19.1879,1.647
19.1879,1.644
19.1879,1.649
19.1889,1.648
19.1889,1.647
19.1889,1.648
19.1889,1.646
19.1889,1.645
19.1889,1.646
19.1889,1.65
19.1899,1.645
19.1899,1.646
19.1899,1.647
19.1899,1.646
19.1899,1.647
19.1899,1.647
19.1899,1.651
19.1909,1.647
19.1909,1.647
19.1909,1.647
19.1909,1.647
19.1909,1.645
19.1909,1.648
19.1919,1.646
19.1919,1.647
19.1919,1.645
19.1919,1.646
19.1919,1.647
19.1919,1.646
19.1919,1.647
19.1919,1.645
19.1929,1.65
19.1929,1.648
19.1929,1.649
19.1929,1.647
19.1929,1.645
19.1929,1.646
19.1938,1.65
19.1938,1.65
19.1938,1.646
19.1938,1.645
19.1938,1.647
19.1938,1.647
19.1938,1.646
19.1949,1.649
19.1949,1.647
19.1949,1.648
19.1949,1.648
19.1949,1.647
19.1949,1.646
19.1949,1.649
19.1959,1.645
19.1959,1.646
19.1959,1.645
19.1959,1.645
19.1959,1.646
19.1959,1.646
19.1959,1.646
19.1969,1.647
19.1969,1.648
19.1969,1.65
19.1969,1.648
19.1969,1.648
19.1969,1.647
19.1969,1.647
19.1979,1.645
19.1979,1.644
19.1979,1.649
19.1979,1.646
19.1979,1.644
19.1979,1.646
19.1979,1.646
19.1989,1.646
19.1989,1.646
19.1989,1.649
19.1989,1.648
19.1989,1.647
19.1989,1.647
19.1989,1.646
19.1999,1.644
19.1999,1.647
19.1999,1.649
19.1999,1.645
19.1999,1.644
19.1999,1.646
19.1999,1.646
19.2008,1.646
19.2008,1.647
19.2008,1.653
19.2008,1.646
19.2008,1.646
19.2018,1.647
19.2018,1.646
19.2018,1.646
19.2018,1.646
19.2018,1.648
19.2018,1.644
19.2029,1.645
19.2029,1.645
19.2029,1.645
19.2029,1.646
19.2029,1.648
19.2029,1.646
19.2029,1.648
19.2039,1.648
19.2039,1.646
19.2039,1.646
19.2039,1.646
19.2039,1.646
19.2039,1.646
19.2039,1.652
19.2049,1.643
19.2049,1.645
19.2049,1.645
19.2049,1.646
19.2049,1.647
19.2049,1.647
19.2049,1.647
19.2058,1.649
19.2058,1.647
19.2058,1.647
19.2058,1.647
19.2058,1.649
19.2058,1.647
19.2058,1.646
19.2068,1.644
19.2068,1.645
19.2068,1.643
19.2068,1.645
19.2068,1.646
19.2068,1.645
19.2078,1.645
19.2078,1.65
19.2078,1.647
19.2078,1.648
19.2078,1.645
19.2078,1.647
19.2088,1.644
19.2088,1.647
19.2088,1.649
19.2088,1.647
19.2088,1.644
19.2088,1.646
19.2088,1.645
19.2088,1.646
19.2098,1.647
19.2098,1.649
19.2098,1.642
19.2098,1.646
19.2098,1.647
19.2098,1.646
19.2098,1.646
19.2108,1.647
19.2108,1.642
19.2108,1.644
19.2108,1.644
19.2108,1.644
19.2108,1.645
19.2108,1.646
19.2118,1.645
19.2118,1.644
19.2118,1.65
19.2118,1.645
19.2118,1.647
19.2118,1.647
19.2118,1.646
19.2128,1.646
19.2128,1.645
19.3166,1.641
19.3166,1.644
19.3166,1.644
19.3174,1.644
19.3174,1.645
19.3174,1.647
19.3184,1.645
19.3194,1.646
19.3194,1.646
19.3194,1.647
19.3194,1.646
19.3194,1.646
19.3194,1.646
19.3194,1.644
19.3204,1.641
19.3204,1.646
19.3204,1.644
19.3204,1.646
19.3204,1.645
19.3204,1.644
19.3204,1.645
19.3214,1.644
19.3214,1.644
19.3214,1.645
19.3214,1.646
19.3214,1.646
19.3214,1.645
19.3214,1.646
19.3224,1.644
19.3224,1.644
19.3224,1.646
19.3224,1.642
19.3224,1.643
19.3224,1.645
19.3224,1.646
19.3234,1.646
19.3234,1.645
19.3234,1.65
19.3234,1.647
19.3234,1.646
19.3234,1.645
19.3234,1.645
19.3234,1.645
19.3244,1.644
19.3244,1.647
19.3244,1.643
19.3244,1.643
19.3244,1.643
19.3254,1.644
19.3254,1.645
19.3254,1.646
19.3264,1.644
19.3264,1.647
19.3264,1.646
19.3264,1.646
19.3264,1.645
19.3264,1.645
19.3274,1.642
19.3274,1.641
19.3274,1.649
19.3274,1.643
19.3274,1.643
19.3274,1.644
19.3274,1.644
19.3284,1.645
19.3284,1.644
19.3284,1.646
19.3284,1.646
19.3284,1.645
19.3284,1.645
19.3284,1.644
19.3294,1.643
19.3294,1.646
19.3294,1.645
19.3294,1.642
19.3294,1.643
19.3294,1.645
19.3294,1.643
19.3304,1.645
19.3304,1.646
19.3304,1.642
19.3304,1.647
19.3304,1.645
19.3304,1.645
19.3304,1.645
19.3314,1.644
19.3314,1.643
19.3314,1.642
19.3314,1.648
19.3324,1.643
19.3334,1.643
19.3334,1.644
19.3334,1.644
19.3334,1.644
19.3334,1.641
19.3344,1.647
19.3344,1.649
19.3344,1.646
19.3344,1.644
19.3354,1.644
19.3354,1.643
19.3354,1.643
19.3354,1.647
19.3354,1.643
19.3354,1.643
19.3354,1.643
19.3364,1.643
19.3364,1.644
19.3364,1.643
19.3364,1.647
19.3364,1.643
19.3364,1.645
19.3364,1.644
19.3374,1.645
19.3374,1.644
19.3374,1.645
19.3374,1.644
19.3374,1.642
19.3374,1.643
19.3374,1.643
19.3384,1.644
19.3384,1.644
19.3384,1.643
19.3384,1.642
19.3384,1.645
19.3394,1.649
19.3394,1.644
19.3394,1.644
19.3405,1.643
19.3405,1.644
19.3405,1.643
19.3405,1.64
19.3405,1.643
19.3405,1.643
19.3415,1.643
19.3415,1.643
19.3415,1.643
19.3415,1.644
19.3415,1.64
19.3415,1.646
19.3415,1.645
19.3425,1.644
19.3425,1.644
19.3425,1.644
19.3425,1.642
19.3425,1.645
19.3425,1.644
19.3425,1.642
19.3435,1.643
19.3435,1.643
19.3435,1.643
19.3435,1.643
19.3435,1.644
19.3435,1.644
19.3435,1.646
19.3445,1.644
19.3445,1.644
19.3445,1.643
19.3445,1.643
19.3445,1.641
19.3445,1.645
19.3445,1.643
19.3455,1.643
19.3455,1.643
19.3455,1.642
19.9988,1.645
19.9988,1.65
19.9988,1.641
19.9999,1.643
19.9999,1.645
20.0009,1.643
20.0009,1.644
20.0018,1.645
20.0018,1.643
20.0028,1.639
20.0028,1.642
20.0039,1.641
20.0039,1.642
20.0039,1.643
20.0049,1.644
20.0049,1.643
20.0058,1.646
20.0058,1.644
20.0078,1.644
20.0138,1.644
20.0218,1.644
20.0278,1.642
20.0287,1.641
20.0307,1.649
20.0307,1.644
20.0307,1.641
20.0307,1.641
20.0307,1.643
20.0307,1.643
20.0317,1.644
20.0317,1.648
20.0317,1.642
20.0317,1.644
20.0317,1.645
20.0317,1.643
20.0317,1.642
20.0327,1.644
20.0327,1.642
20.0327,1.64
20.0327,1.641
20.0327,1.642
20.0327,1.641
20.0327,1.643
20.0337,1.643
20.0337,1.642
20.0337,1.647
20.0337,1.643
20.0337,1.644
20.0347,1.643
20.0347,1.644
20.0347,1.644
20.0347,1.641
20.0347,1.644
20.0347,1.641
20.0357,1.641
20.0357,1.64
20.0357,1.642
20.0357,1.641
20.0357,1.645
20.0357,1.643
20.0357,1.641
20.0367,1.644
20.0367,1.645
20.0367,1.644
20.0367,1.643
20.0367,1.643
20.0367,1.638
20.0367,1.64
20.0367,1.643
20.0377,1.641
20.0377,1.642
20.0377,1.642
20.0377,1.643
20.0377,1.643
20.0377,1.641
20.0377,1.644
20.0387,1.643
20.0387,1.643
20.0387,1.643
20.0397,1.645
20.0397,1.644
20.0397,1.64
20.0397,1.642
20.0397,1.642
20.0397,1.642
20.0397,1.642
20.0407,1.643
20.0407,1.643
20.0407,1.642
20.0407,1.642
20.0407,1.644
20.0407,1.643
20.0407,1.643
20.0417,1.643
20.0417,1.644
20.0417,1.645
20.0417,1.642
20.0417,1.64
20.0417,1.642
20.0417,1.642
20.0427,1.643
20.0427,1.643
20.0427,1.644
20.0427,1.642
20.0427,1.644
20.0427,1.644
20.0427,1.643
20.0437,1.643
20.0437,1.644
20.0437,1.644
20.0437,1.64
20.0437,1.646
20.0437,1.641
20.0437,1.641
20.0447,1.641
20.0447,1.642
20.0447,1.642
20.0447,1.645
20.0447,1.648
20.0447,1.645
20.0447,1.643
20.0447,1.643
20.0457,1.641
20.0457,1.642
20.0457,1.642
20.0457,1.644
20.0457,1.64
20.0457,1.642
20.0457,1.643
20.0467,1.642
20.0467,1.64
20.0467,1.643
20.0467,1.642
20.0467,1.642
20.0467,1.644
20.0467,1.644
20.0477,1.642
20.0477,1.642
20.0477,1.643
20.0477,1.641
20.0477,1.644
20.0477,1.642
20.0477,1.642
20.0487,1.642
20.0487,1.642
20.0487,1.642
20.0487,1.644
20.0487,1.65
20.0487,1.643
20.0487,1.643
20.0497,1.643
20.0497,1.643
20.0497,1.64
20.0497,1.643
20.0497,1.646
20.0497,1.638
20.0497,1.641
20.0497,1.642
20.0507,1.642
20.0507,1.642
20.0507,1.643
20.0507,1.639
20.0507,1.647
20.0507,1.645
20.0517,1.642
20.0517,1.642
20.0517,1.643
20.0517,1.64
20.0517,1.641
20.0527,1.641
20.0527,1.64
20.0527,1.641
20.0527,1.642
20.0527,1.641
20.0527,1.641
20.0527,1.642
20.0537,1.641
20.0537,1.643
20.0537,1.644
20.0537,1.644
20.0537,1.642
20.0547,1.643
20.0547,1.642
20.0547,1.643
20.0547,1.641
20.0547,1.642
20.0547,1.642
20.0547,1.641
20.0557,1.643
20.0557,1.643
20.0557,1.644
20.0557,1.641
20.0557,1.645
20.0557,1.644
20.0557,1.643
20.0557,1.643
20.0567,1.642
20.0567,1.641
20.0567,1.642
20.0567,1.647
20.0567,1.641
20.0567,1.641
20.0567,1.641
20.0577,1.641
20.0577,1.641
20.0577,1.644
20.0577,1.643
20.0577,1.642
20.0577,1.642
20.0587,1.643
20.0587,1.641
20.0587,1.644
20.0587,1.64
20.0587,1.641
20.0587,1.641
20.0587,1.64
20.0587,1.641
20.0596,1.643
20.0596,1.641
20.0596,1.643
20.0596,1.645
20.0596,1.647
20.0596,1.641
20.0596,1.644
20.0606,1.641
20.0606,1.642
20.0606,1.642
20.0606,1.641
20.0606,1.643
20.0606,1.64
20.0606,1.64
20.0616,1.641
20.0616,1.642
20.0616,1.642
20.0616,1.643
20.0616,1.646
20.0616,1.643
20.0616,1.643
20.0626,1.642
20.0626,1.641
20.0626,1.642
20.0626,1.647
20.0626,1.639
20.0626,1.639
20.0626,1.64
20.0626,1.64
20.0636,1.642
20.0636,1.642
20.0636,1.641
20.0636,1.64
20.0636,1.645
20.0636,1.643
20.0636,1.642
20.0646,1.641
20.0646,1.645
20.0646,1.641
20.0646,1.641
20.0646,1.642
20.0646,1.64
20.0646,1.64
20.0656,1.641
20.0656,1.641
20.0656,1.642
20.0656,1.643
20.0656,1.646
20.0656,1.642
20.0656,1.642
20.0666,1.642
20.0666,1.642
20.0666,1.641
20.0666,1.645
20.0666,1.64
20.0666,1.641
20.0676,1.64
20.0676,1.641
20.0676,1.641
20.0676,1.642
20.0676,1.643
20.0676,1.64
20.0686,1.641
20.0686,1.643
20.0686,1.642
20.0686,1.641
20.0686,1.643
20.0686,1.641
20.0686,1.639
20.0696,1.638
20.0696,1.64
20.0696,1.64
20.0696,1.64
20.0696,1.643
20.0696,1.641
20.0706,1.642
20.0706,1.647
20.0706,1.642
20.0706,1.641
20.0706,1.642
20.0706,1.642
20.0706,1.641
20.0716,1.646
20.0716,1.643
20.0716,1.64
20.0716,1.64
20.0716,1.64
20.0716,1.642
20.0716,1.641
20.0726,1.642
20.0726,1.64
20.0726,1.642
20.0726,1.642
20.0726,1.642
20.0726,1.643
20.0726,1.643
20.0736,1.639
20.0736,1.639
20.0736,1.642
20.0736,1.64
20.0736,1.639
20.0736,1.642
20.0736,1.642
20.0746,1.64
20.0746,1.647
20.0746,1.638
20.0746,1.641
20.0746,1.643
20.0746,1.641
20.0746,1.64
20.0756,1.644
20.0756,1.64
20.0756,1.643
20.0756,1.64
20.0756,1.64
20.0756,1.639
20.0756,1.642
20.0766,1.64
20.0766,1.642
20.0766,1.64
20.0766,1.649
20.0766,1.642
20.0766,1.642
20.0766,1.642
20.0776,1.641
20.0776,1.641
20.0776,1.643
20.0776,1.639
20.0776,1.639
20.0776,1.641
20.0776,1.64
20.0776,1.641
20.0786,1.642
20.0786,1.646
20.0786,1.639
20.0786,1.642
20.0786,1.642
20.0786,1.642
20.0786,1.641
20.0796,1.642
20.0796,1.642
20.0796,1.64
20.0796,1.638
20.0796,1.641
20.0796,1.639
20.0796,1.641
20.0806,1.642
20.0806,1.641
20.0806,1.64
20.0806,1.643
20.0806,1.642
20.0806,1.642
20.0806,1.642
20.0816,1.64
20.0816,1.641
20.0816,1.644
20.0816,1.641
20.0816,1.64
20.0816,1.64
20.0816,1.641
20.0826,1.64
20.0826,1.641
20.0826,1.642
20.0826,1.643
20.0826,1.643
20.0826,1.643
20.0826,1.642
20.0836,1.64
20.0836,1.639
20.0836,1.639
20.0836,1.644
20.0836,1.641
20.0836,1.64
20.0836,1.64
20.0846,1.64
20.0846,1.64
20.0846,1.642
20.0846,1.64
20.0846,1.644
20.0846,1.642
20.0846,1.64
20.0856,1.642
20.0856,1.642
20.0856,1.643
20.0856,1.639
20.0856,1.643
20.0856,1.639
20.0866,1.64
20.0866,1.64
20.0866,1.641
20.0866,1.641
20.0866,1.645
20.0866,1.638
20.0866,1.642
20.0876,1.642
20.0876,1.642
20.0876,1.642
20.0876,1.642
20.0876,1.639
20.0876,1.638
20.0876,1.643
20.0886,1.64
20.0886,1.641
20.0886,1.641
20.0886,1.641
20.0886,1.641
20.0886,1.64
20.0886,1.649
20.0886,1.642
20.0896,1.642
20.0896,1.641
20.0896,1.639
20.0896,1.64
20.0896,1.642
20.0896,1.638
20.0896,1.64
20.0906,1.64
20.0906,1.64
20.0906,1.641
20.0906,1.642
20.0906,1.639
20.0906,1.642
20.0906,1.641
20.0916,1.642
20.0916,1.642
20.0916,1.642
20.0916,1.64
20.0916,1.639
20.0916,1.639
20.0916,1.646
20.0926,1.64
20.0926,1.64
20.0926,1.641
20.0926,1.641
20.0926,1.641
20.0926,1.643
20.0926,1.64
20.0926,1.641
20.0936,1.642
20.0936,1.641
20.0936,1.64
20.0936,1.643
20.0936,1.641
20.0936,1.644
20.0936,1.639
20.0946,1.639
20.0946,1.639
20.0946,1.64
20.0946,1.64
20.0946,1.645
20.0946,1.642
20.0946,1.64
20.0956,1.641
20.0956,1.641
20.0956,1.64
20.0956,1.642
20.0956,1.641
20.0956,1.64
20.0956,1.64
20.0966,1.64
20.0966,1.64
20.0966,1.641
20.0966,1.641
20.0966,1.639
20.0966,1.639
20.0966,1.644
20.0966,1.642
20.0975,1.641
20.0975,1.641
20.0975,1.64
20.0975,1.639
20.0975,1.643
20.0975,1.639
20.0975,1.638
20.0985,1.639
20.0985,1.639
20.0985,1.64
20.0985,1.64
20.6809,1.641
20.6860,1.642
20.6860,1.64
20.6870,1.64
20.6870,1.64
20.6870,1.642
20.6880,1.64
20.6880,1.636
20.6880,1.638
20.6880,1.64
20.6889,1.638
20.6889,1.64
20.6889,1.64
20.6889,1.64
20.6889,1.641
20.6899,1.645
20.6899,1.64
20.6899,1.641
20.6899,1.641
20.6899,1.64
20.6909,1.64
20.6909,1.638
20.6909,1.638
20.6909,1.639
20.6919,1.639
20.6919,1.638
20.6919,1.641
20.6919,1.639
20.6919,1.64
20.6919,1.642
20.6929,1.646
20.6929,1.64
20.6929,1.641
20.6929,1.64
20.6929,1.638
20.6929,1.639
20.6939,1.643
20.6939,1.643
20.6939,1.638
20.6939,1.639
20.6939,1.639
20.6939,1.639
20.6949,1.64
20.6949,1.643
20.6949,1.64
20.6949,1.64
20.6949,1.641
20.6949,1.64
20.6949,1.64
20.6959,1.64
20.6959,1.636
20.6959,1.639
20.6959,1.637
20.6959,1.639
20.6959,1.638
20.6969,1.638
20.6969,1.64
20.6969,1.641
20.6969,1.64
20.6979,1.642
20.6979,1.64
20.6979,1.64
20.6979,1.639
20.6979,1.64
20.6979,1.637
20.6989,1.637
20.6989,1.643
20.6989,1.638
20.6989,1.639
20.6989,1.639
20.6989,1.639
20.6989,1.639
20.6989,1.639
20.6999,1.642
20.6999,1.64
20.6999,1.64
20.6999,1.64
20.6999,1.64
20.6999,1.639
20.6999,1.644
20.7009,1.641
20.7009,1.638
20.7009,1.638
20.7019,1.638
20.7019,1.639
20.7019,1.64
20.7019,1.641
20.7019,1.642
20.7019,1.641
20.7019,1.64
20.7029,1.64
20.7029,1.641
20.7029,1.639
20.7029,1.639
20.7029,1.635
20.7029,1.644
20.7039,1.639
20.7039,1.638
20.7039,1.639
20.7039,1.639
20.7039,1.639
20.7039,1.638
20.7039,1.639
20.7039,1.64
20.7049,1.64
20.7049,1.64
20.7049,1.639
20.7049,1.639
20.7049,1.638
20.7049,1.638
20.7049,1.638
20.7059,1.638
20.7059,1.638
20.7059,1.638
20.7059,1.639
20.7059,1.64
20.7059,1.638
20.7059,1.646
20.7069,1.639
20.7069,1.64
20.7069,1.64
20.7069,1.637
20.7069,1.639
20.7069,1.641
20.7069,1.639
20.7079,1.636
20.7079,1.638
20.7079,1.639
20.7079,1.638
20.7079,1.639
20.7079,1.639
20.7079,1.64
20.7088,1.641
20.7088,1.639
20.7088,1.639
20.7088,1.64
20.7088,1.64
20.7088,1.637
20.7088,1.644
20.7098,1.64
20.7098,1.638
20.7098,1.637
20.7098,1.638
20.7098,1.638
20.7098,1.639
20.7098,1.645
20.7108,1.638
20.7108,1.64
20.7108,1.64
20.7108,1.64
20.7108,1.639
20.7108,1.641
20.7108,1.639
20.7118,1.635
20.7118,1.64
20.7118,1.637
20.7118,1.638
20.7118,1.637
20.7118,1.639
20.7118,1.638
20.7128,1.638
20.7128,1.64
20.7128,1.64
20.7128,1.64
20.7128,1.639
20.7128,1.64
20.7128,1.637
20.7128,1.637
20.7138,1.643
20.7138,1.637
20.7138,1.637
20.7138,1.637
20.7138,1.638
20.7138,1.638
20.7148,1.641
20.7148,1.642
20.7148,1.638
20.7148,1.64
20.7148,1.64
20.7148,1.638
20.7148,1.64
20.7158,1.641
20.7158,1.635
20.7158,1.633
20.7158,1.638
20.7158,1.637
20.7158,1.638
20.7158,1.639
20.7168,1.639
20.7168,1.636
20.7168,1.641
20.7168,1.642
20.7168,1.64
20.7178,1.639
20.7178,1.637
20.7178,1.637
20.7178,1.637
20.7178,1.637
20.7178,1.637
20.7178,1.638
20.7188,1.637
20.7188,1.638
20.7188,1.637
20.7188,1.638
20.7188,1.639
20.7188,1.64
20.7188,1.639
20.7198,1.639
20.7198,1.638
20.7198,1.637
20.7198,1.636
20.7198,1.637
20.7198,1.643
20.7198,1.636
20.7198,1.637
20.7208,1.638
20.7208,1.637
20.7208,1.637
20.7208,1.643
20.7208,1.638
20.7208,1.639
20.7218,1.639
20.7218,1.638
20.7218,1.638
20.7218,1.64
20.7218,1.637
20.7218,1.637
20.7218,1.636
20.7218,1.636
20.7228,1.637
20.7228,1.637
20.7228,1.638
20.7228,1.635
20.7228,1.646
20.7228,1.638
20.7238,1.637
20.7238,1.639
20.7238,1.638
20.7238,1.637
20.7238,1.639
20.7248,1.636
20.7248,1.638
20.7248,1.636
20.7248,1.637
20.7248,1.637
20.7248,1.639
20.7258,1.637
20.7258,1.639
20.7258,1.638
20.7258,1.643
20.7258,1.639
20.7258,1.638
20.7258,1.637
20.7268,1.637
20.7268,1.639
20.7268,1.639
20.7268,1.637
20.7268,1.636
20.7278,1.636
20.7278,1.636
20.7278,1.637
20.7278,1.638
20.7278,1.638
20.7278,1.641
20.7278,1.639
20.7278,1.638
20.7288,1.637
20.7288,1.636
20.7288,1.637
20.7288,1.643
20.7288,1.635
20.7288,1.636
20.7288,1.636
20.7298,1.636
20.7298,1.637
20.7298,1.638
20.7298,1.64
20.7298,1.635
20.7308,1.638
20.7308,1.638
20.7308,1.637
20.7308,1.637
20.7308,1.638
20.7308,1.639
20.7308,1.638
20.7318,1.638
20.7318,1.635
20.7318,1.635
20.7318,1.637
20.7318,1.636
20.7318,1.64
20.7318,1.642
20.7328,1.635
20.7328,1.637
20.7328,1.638
20.7328,1.638
20.7328,1.639
20.7328,1.638
20.7328,1.637
20.7328,1.634
20.7338,1.637
20.7338,1.636
20.7338,1.636
20.7338,1.637
20.7338,1.638
20.7348,1.637
20.7348,1.636
20.7348,1.638
20.7348,1.638
20.7348,1.637
20.7348,1.637
20.7348,1.638
20.7358,1.636
20.7358,1.641
20.7358,1.637
20.7358,1.635
20.7358,1.636
20.7358,1.637
20.7358,1.637
20.7358,1.637
20.7368,1.641
20.7368,1.636
20.7368,1.638
20.7368,1.637
20.7368,1.636
20.7368,1.635
20.7378,1.637
20.7378,1.641
20.7378,1.634
20.7378,1.636
20.7378,1.635
20.7378,1.636
20.7388,1.635
20.7388,1.637
20.7388,1.635
20.7388,1.641
20.7388,1.637
20.7388,1.636
20.7388,1.638
20.7388,1.637
20.7398,1.635
20.7398,1.634
20.7398,1.637
20.7398,1.636
20.7398,1.635
20.7398,1.635
20.7398,1.636
20.7408,1.637
20.7408,1.638
20.7408,1.634
20.7408,1.64
20.7408,1.636
20.7408,1.637
20.7418,1.636
20.7418,1.639
20.7418,1.636
20.7418,1.635
20.7418,1.64
20.7418,1.638
20.7418,1.634
20.7418,1.635
20.7428,1.635
20.7428,1.635
20.7428,1.637
20.7428,1.64
20.7428,1.637
20.7428,1.637
20.7428,1.636
20.7438,1.636
20.7438,1.637
20.7438,1.638
20.7438,1.633
20.7438,1.633
20.7438,1.635
20.7438,1.634
20.7448,1.635
20.7448,1.636
20.7448,1.636
20.7448,1.636
20.7448,1.638
20.7448,1.636
20.7448,1.637
20.7448,1.636
20.7457,1.636
20.7457,1.635
20.7457,1.636
20.7457,1.641
20.7457,1.634
20.7468,1.634
20.7468,1.634
20.7468,1.636
20.7468,1.634
20.7468,1.637
20.7468,1.637
20.7468,1.636
20.7468,1.637
20.7478,1.637
20.7478,1.636
20.7478,1.637
20.7478,1.634
20.7478,1.633
20.7478,1.639
20.7478,1.634
20.7487,1.635
20.7487,1.635
20.7487,1.635
20.7487,1.637
20.7487,1.643
20.7487,1.634
20.7497,1.637
20.7497,1.636
20.7497,1.636
20.7497,1.637
20.7497,1.635
20.7497,1.633
20.7497,1.632
20.7508,1.637
20.7508,1.634
20.7508,1.634
20.7508,1.637
20.7508,1.635
20.7508,1.636
20.7518,1.638
20.7518,1.636
20.7518,1.635
20.7518,1.636
20.7518,1.636
20.7518,1.634
20.7518,1.636
20.7528,1.632
20.7528,1.634
20.7528,1.634
20.7528,1.633
20.7528,1.633
20.7528,1.635
20.7528,1.635
20.7538,1.638
20.7538,1.64
20.7538,1.636
20.7538,1.637
20.7538,1.636
20.7538,1.635
20.7538,1.636
20.7538,1.634
20.7548,1.633
20.7548,1.635
20.7548,1.633
20.7548,1.634
20.7548,1.636
20.7548,1.634
20.7548,1.636
20.7558,1.637
20.7558,1.634
20.7558,1.635
20.7558,1.636
20.7558,1.635
20.7558,1.635
20.7558,1.636
20.7568,1.635
20.7568,1.634
20.7568,1.635
20.7568,1.634
20.7568,1.634
20.7568,1.636
20.7568,1.635
20.7578,1.638
20.7578,1.642
20.7578,1.635
20.7578,1.635
20.7578,1.636
20.7578,1.634
20.7578,1.634
20.7588,1.636
20.7588,1.634
20.7588,1.635
20.7588,1.634
20.7588,1.634
20.7588,1.634
20.7588,1.635
20.7597,1.635
20.7597,1.636
20.7597,1.638
20.7597,1.636
20.7597,1.635
20.7597,1.636
20.7597,1.633
20.7607,1.635
20.7607,1.638
20.7607,1.631
20.7607,1.634
20.7607,1.634
20.7607,1.633
20.7607,1.635
20.7607,1.636
20.7617,1.638
20.7617,1.636
21.3638,1.635
21.3709,1.634
21.3709,1.635
21.3719,1.635
21.3719,1.633
21.3729,1.631
21.3729,1.634
21.3739,1.634
21.3739,1.633
21.3739,1.634
21.3739,1.633
21.3749,1.64
21.3749,1.637
21.3749,1.636
21.3759,1.635
21.3759,1.635
21.3759,1.635
21.3759,1.635
21.3769,1.633
21.3769,1.637
21.3769,1.637
21.3769,1.633
21.3778,1.632
21.3778,1.634
21.3778,1.634
21.3778,1.634
21.3788,1.636
21.3788,1.637
21.3788,1.634
21.3788,1.635
21.3798,1.634
21.3798,1.634
21.3798,1.634
21.3798,1.634
21.3798,1.636
21.3808,1.632
21.3808,1.633
21.3808,1.633
21.3808,1.632
21.3808,1.633
21.3818,1.634
21.3818,1.642
21.3818,1.635
21.3818,1.635
21.3818,1.635
21.3828,1.634
21.3828,1.632
21.3828,1.634
21.3828,1.64
21.3828,1.631
21.3838,1.632
21.3838,1.632
21.3838,1.633
21.3838,1.634
21.3848,1.635
21.3848,1.634
21.3848,1.635
21.3848,1.633
21.3848,1.634
21.3848,1.634
21.3848,1.633
21.3858,1.634
21.3858,1.635
21.3858,1.635
21.3858,1.632
21.3858,1.632
21.3858,1.633
21.3868,1.634
21.3868,1.632
21.3868,1.637
21.3868,1.636
21.3868,1.634
21.3868,1.636
21.3878,1.635
21.3878,1.634
21.3878,1.634
21.3878,1.634
21.3878,1.632
21.3888,1.631
21.3888,1.633
21.3888,1.632
21.3888,1.632
21.3888,1.635
21.3888,1.634
21.3898,1.634
21.3898,1.633
21.3898,1.637
21.3898,1.634
21.3898,1.634
21.3898,1.634
21.3898,1.634
21.3898,1.632
21.3908,1.634
21.3908,1.633
21.3908,1.631
21.3908,1.632
21.3908,1.634
21.3908,1.633
21.3908,1.633
21.3918,1.636
21.3918,1.635
21.3918,1.634
21.3918,1.634
21.3918,1.634
21.3918,1.634
21.3918,1.634
21.3928,1.633
21.3928,1.632
21.3928,1.632
21.3928,1.631
21.3928,1.632
21.3928,1.634
21.3928,1.634
21.3928,1.634
21.3938,1.64
21.3938,1.636
21.3938,1.634
21.3938,1.634
21.3938,1.634
21.3938,1.633
21.3938,1.634
21.3948,1.63
21.3948,1.633
21.3948,1.632
21.3948,1.632
21.3948,1.631
21.3948,1.633
21.3958,1.634
21.3958,1.634
21.3958,1.64
21.3958,1.633
21.3958,1.634
21.3958,1.634
21.3958,1.633
21.3967,1.631
21.3967,1.637
21.3967,1.629
21.3967,1.63
21.3967,1.631
21.3967,1.632
21.3967,1.631
21.3977,1.634
21.3977,1.633
21.3977,1.636
21.3977,1.632
21.3977,1.633
21.3977,1.634
21.3977,1.633
21.3987,1.635
21.3987,1.631
21.3987,1.632
21.3987,1.635
21.3987,1.633
21.3987,1.632
21.3987,1.632
21.3997,1.632
21.3997,1.632
21.3997,1.635
21.3997,1.629
21.3997,1.634
21.3997,1.635
21.3997,1.633
21.3997,1.632
21.4007,1.634
21.4007,1.631
21.4007,1.631
21.4007,1.636
21.4007,1.63
21.4017,1.631
21.4017,1.632
21.4017,1.632
21.4017,1.633
21.4017,1.639
21.4017,1.631
21.4017,1.634
21.4027,1.632
21.4027,1.633
21.4027,1.633
21.4027,1.635
21.4027,1.631
21.4027,1.633
21.4027,1.629
21.4027,1.631
21.4037,1.631
21.4037,1.632
21.4037,1.633
21.4047,1.632
21.4047,1.633
21.4047,1.637
21.4047,1.633
21.4047,1.633
21.4047,1.632
21.4047,1.631
21.4057,1.632
21.4057,1.636
21.4057,1.633
21.4057,1.632
21.4057,1.631
21.4057,1.631
21.4057,1.632
21.4067,1.632
21.4067,1.631
21.4067,1.638
21.4067,1.634
21.4067,1.633
21.4067,1.632
21.4067,1.63
21.4077,1.631
21.4077,1.631
21.4077,1.638
21.4077,1.631
21.4077,1.63
21.4077,1.632
21.4077,1.632
21.4087,1.631
21.4087,1.633
21.4087,1.632
21.4087,1.634
21.4087,1.633
21.4087,1.633
21.4087,1.632
21.4097,1.633
21.4097,1.634
21.4097,1.63
21.4097,1.632
21.4097,1.631
21.4097,1.631
21.4097,1.631
21.4107,1.632
21.4107,1.632
21.4107,1.631
21.4107,1.638
21.4107,1.632
21.4107,1.632
21.4107,1.634
21.4107,1.631
21.4117,1.63
21.4117,1.633
21.4117,1.638
21.4117,1.632
21.4117,1.631
21.4117,1.632
21.4117,1.632
21.4127,1.632
21.4127,1.632
21.4127,1.638
21.4127,1.635
21.4127,1.633
21.4127,1.633
21.4127,1.632
21.4137,1.632
21.4137,1.633
21.4137,1.632
21.4137,1.629
21.4137,1.631
21.4137,1.631
21.4147,1.631
21.4147,1.632
21.4147,1.631
21.4147,1.634
21.4147,1.636
21.4147,1.634
21.4147,1.632
21.4147,1.633
21.4157,1.63
21.4157,1.631
21.4157,1.631
21.4157,1.639
21.4157,1.628
21.4157,1.631
21.4157,1.631
21.4167,1.632
21.4167,1.631
21.4167,1.633
21.4167,1.637
21.4167,1.631
21.4177,1.633
21.4177,1.634
21.4177,1.633
21.4177,1.632
21.4177,1.633
21.4177,1.629
21.4187,1.63
21.4187,1.631
21.4187,1.63
21.4187,1.631
21.4187,1.631
21.4187,1.631
21.4187,1.632
21.4187,1.634
21.4197,1.636
21.4197,1.633
21.4197,1.633
21.4197,1.631
21.4197,1.63
21.4197,1.631
21.4207,1.637
21.4207,1.629
21.4207,1.63
21.4207,1.63
21.4207,1.631
21.4207,1.632
21.4207,1.632
21.4217,1.631
21.4217,1.629
21.4217,1.632
21.4217,1.632
21.4217,1.632
21.4217,1.632
21.4217,1.634
21.4217,1.63
21.4227,1.632
21.4227,1.63
21.4227,1.63
21.4227,1.632
21.4227,1.631
21.4227,1.631
21.4227,1.631
21.4237,1.635
21.4237,1.634
21.4237,1.633
21.4237,1.632
21.4237,1.633
21.4237,1.631
21.4237,1.631
21.4247,1.634
21.4247,1.636
21.4247,1.63
21.4247,1.631
21.4247,1.631
21.4247,1.632
21.4247,1.632
21.4247,1.636
21.4257,1.631
21.4257,1.632
21.4257,1.633
21.4257,1.631
21.4257,1.631
21.4257,1.634
21.4257,1.631
21.4267,1.631
21.4267,1.631
21.4267,1.63
21.4267,1.631
21.4267,1.631
21.4267,1.632
21.4277,1.63
21.4277,1.634
21.4277,1.636
21.4277,1.633
21.4277,1.632
21.4277,1.631
21.4277,1.63
21.4287,1.631
21.4287,1.637
21.4287,1.628
21.4287,1.63
21.4287,1.631
21.4287,1.631
21.4287,1.631
21.4287,1.633
21.4297,1.632
21.4297,1.633
21.4297,1.633
21.4297,1.632
21.4297,1.633
21.4297,1.632
21.4297,1.634
21.4307,1.63
21.4307,1.634
21.4307,1.633
21.4307,1.63
21.4307,1.631
21.4307,1.631
21.4307,1.632
21.4317,1.634
21.4317,1.636
21.4317,1.632
21.4317,1.633
21.4317,1.632
21.4317,1.631
21.4317,1.632
21.4326,1.633
21.4326,1.63
21.4326,1.631
21.4326,1.631
21.4326,1.63
21.4326,1.63
21.4326,1.632
21.4336,1.632
21.4336,1.631
21.4336,1.633
21.4336,1.632
21.4336,1.632
21.4336,1.632
21.4336,1.632
21.4346,1.632
21.4346,1.632
21.4346,1.635
21.4346,1.632
21.4346,1.63
21.4346,1.63
21.4346,1.631
21.4356,1.632
21.4376,1.634
21.4426,1.635
21.4486,1.632
21.4526,1.632
21.4536,1.633
21.4546,1.631
21.4546,1.631
21.4546,1.633
21.4546,1.631
21.4546,1.631
21.4546,1.63
21.4546,1.63
21.4556,1.631
21.4556,1.633
21.4556,1.632
21.4556,1.631
21.4556,1.636
21.4556,1.632
21.4556,1.633
21.4566,1.632
21.4566,1.631
21.4566,1.629
21.4566,1.634
21.4566,1.631
21.4566,1.631
21.4566,1.631
21.4576,1.631
21.4576,1.631
21.4576,1.631
21.4576,1.631
21.4576,1.63
21.4576,1.631
21.4576,1.633
21.4576,1.632
21.4586,1.631
21.4586,1.635
21.4586,1.63
21.4586,1.631
21.4586,1.634
21.4586,1.635
21.4586,1.631
21.4596,1.631
21.4596,1.633
21.4596,1.632
21.4596,1.631
21.4596,1.633
21.4596,1.633
21.4596,1.632
21.4596,1.632
21.4606,1.631
21.4606,1.63
21.4606,1.634
21.4606,1.629
21.4606,1.63
21.4606,1.63
21.4606,1.631
21.4616,1.631
21.4616,1.632
21.4616,1.633
21.4616,1.634
21.4616,1.629
21.4616,1.633
21.4616,1.633
21.4626,1.632
21.4626,1.633
21.4626,1.631
21.4626,1.63
21.4626,1.636
21.4626,1.63
21.4626,1.631
21.4636,1.631
21.4636,1.631
21.4636,1.631
21.4636,1.634
21.4636,1.634
21.4636,1.633
21.4636,1.632
21.4646,1.632
21.4646,1.632
21.4646,1.631
21.4646,1.634
21.4646,1.631
21.4646,1.632
21.4646,1.631
21.4646,1.631
21.4656,1.631
21.4656,1.633
21.4656,1.631
21.4656,1.633
21.4656,1.63
21.4656,1.633
22.2740,1.631
22.2751,1.633
22.2751,1.63
22.2761,1.632
22.2761,1.634
22.2761,1.631
22.2771,1.631
22.2780,1.631
22.2780,1.631
22.2791,1.63
22.2791,1.635
22.2801,1.638
22.2801,1.631
22.2811,1.632
22.2811,1.633
22.2821,1.631
22.2821,1.633
22.2821,1.63
22.2831,1.631
22.2831,1.636
22.2840,1.63
22.2840,1.632
22.2850,1.631
22.2850,1.632
22.2861,1.632
22.2861,1.637
22.2871,1.635
22.2871,1.633
22.2880,1.632
22.2880,1.633
22.2880,1.63
22.2890,1.63
22.2890,1.633
22.2890,1.63
22.2901,1.63
22.2901,1.63
22.2901,1.631
22.2901,1.632
22.2911,1.631
22.2911,1.631
22.2911,1.634
22.2921,1.633
22.2921,1.634
22.2921,1.632
22.2921,1.632
22.2930,1.634
22.2930,1.633
22.2930,1.632
22.2930,1.628
22.2940,1.632
22.2940,1.631
22.2940,1.632
22.2940,1.633
22.2940,1.632
22.2950,1.631
22.2950,1.631
22.2950,1.633
22.2950,1.633
22.2960,1.632
22.2960,1.633
22.2960,1.631
22.2960,1.63
22.2970,1.635
22.2970,1.631
22.2970,1.631
22.2970,1.631
22.2970,1.631
22.2980,1.632
22.2980,1.638
22.2980,1.633
22.2980,1.634
22.2980,1.632
22.2990,1.633
22.2990,1.633
22.2990,1.631
22.2990,1.633
22.2990,1.637
22.2990,1.629
22.3000,1.63
22.3000,1.631
22.3000,1.632
22.3000,1.632
22.3000,1.633
22.3010,1.631
22.3010,1.635
22.3010,1.631
22.3010,1.632
22.3010,1.632
22.3010,1.633
22.3010,1.633
22.3020,1.63
22.3020,1.635
22.3020,1.632
22.3020,1.632
22.3020,1.631
22.3030,1.632
22.3030,1.633
22.3030,1.632
22.3030,1.633
22.3030,1.635
22.3030,1.634
22.3030,1.634
22.3040,1.634
22.3040,1.635
22.3040,1.633
22.3040,1.632
22.3040,1.633
22.3040,1.633
22.3040,1.631
22.3050,1.632
22.3050,1.634
22.3050,1.633
22.3050,1.632
22.3050,1.639
22.3050,1.636
22.3050,1.634
22.3060,1.633
22.3060,1.631
22.3060,1.631
22.3060,1.634
22.3060,1.636
22.3060,1.631
22.3060,1.632
22.3070,1.631
22.3070,1.633
22.3090,1.632
22.3099,1.633
22.3140,1.637
22.3159,1.635
22.3199,1.634
22.3209,1.634
22.3219,1.634
22.3219,1.632
22.3229,1.634
22.3229,1.633
22.3229,1.634
22.3229,1.632
22.3229,1.631
22.3229,1.633
22.3229,1.633
22.3239,1.633
22.3239,1.633
22.3239,1.631
22.3239,1.636
22.3239,1.635
22.3239,1.635
22.3239,1.633
22.3249,1.635
22.3249,1.634
22.3249,1.628
22.3249,1.633
22.3249,1.632
22.3249,1.633
22.3249,1.633
22.3259,1.633
22.3259,1.634
22.3259,1.635
22.3259,1.635
22.3259,1.634
22.3259,1.634
22.3259,1.634
22.3259,1.633
22.3269,1.633
22.3269,1.636
22.3269,1.63
22.3269,1.632
22.3269,1.633
22.3269,1.632
22.3279,1.633
22.3279,1.634
22.3279,1.634
22.3279,1.634
22.3279,1.632
22.3279,1.635
22.3279,1.635
22.3279,1.634
22.3289,1.636
22.3289,1.633
22.3289,1.632
22.3289,1.631
22.3289,1.635
22.3289,1.633
22.3289,1.633
22.3299,1.633
22.3299,1.633
22.3299,1.634
22.3299,1.635
22.3299,1.634
22.3299,1.635
22.3299,1.636
22.3309,1.634
22.3309,1.632
22.3309,1.632
22.3309,1.638
22.3309,1.632
22.3309,1.632
22.3309,1.633
22.3319,1.634
22.3319,1.634
22.3319,1.634
22.3319,1.639
22.3319,1.635
22.3319,1.634
22.3319,1.635
22.3319,1.635
22.3329,1.632
22.3329,1.634
22.3329,1.637
22.3329,1.632
22.3329,1.631
22.3329,1.633
22.3329,1.633
22.3339,1.633
22.3339,1.634
22.3339,1.635
22.3349,1.635
22.3349,1.635
22.3349,1.637
22.3349,1.636
22.3349,1.634
22.3349,1.635
22.3359,1.635
22.3359,1.638
22.3359,1.63
22.3359,1.634
22.3359,1.635
22.3359,1.634
22.3359,1.634
22.3369,1.635
22.3369,1.637
22.3369,1.631
22.3369,1.635
22.3369,1.635
22.3369,1.634
22.3379,1.634
22.3379,1.637
22.3379,1.637
22.3379,1.63
22.3379,1.633
22.3379,1.633
22.3379,1.634
22.3389,1.634
22.3389,1.636
22.3389,1.636
22.3389,1.636
22.3389,1.631
22.3389,1.636
22.3389,1.636
22.3389,1.635
22.3399,1.635
22.3399,1.635
22.3399,1.631
22.3399,1.634
22.3399,1.634
22.3399,1.634
22.3399,1.634
22.3409,1.635
22.3409,1.635
22.3409,1.633
22.3409,1.639
22.3409,1.637
22.3409,1.635
22.3409,1.634
22.3419,1.637
22.3419,1.635
22.3419,1.635
22.3419,1.631
22.3419,1.636
22.3419,1.634
22.3419,1.634
22.3419,1.635
22.3429,1.635
22.3429,1.636
22.3429,1.636
22.3429,1.639
22.3429,1.635
22.3429,1.636
22.3439,1.635
22.3439,1.637
22.3439,1.634
22.3439,1.633
22.3439,1.639
22.3439,1.634
22.3439,1.633
22.3439,1.635
22.3449,1.635
22.3449,1.636
22.3449,1.637
22.3449,1.642
22.3449,1.636
22.3449,1.636
22.3449,1.636
22.3459,1.635
22.3459,1.634
22.3459,1.634
22.3459,1.637
22.3459,1.638
22.3459,1.633
22.3459,1.635
22.3469,1.634
22.3469,1.635
22.3469,1.636
22.3469,1.637
22.3469,1.641
22.3469,1.636
22.3469,1.635
22.3469,1.635
22.3479,1.636
22.3479,1.633
22.3479,1.639
22.3479,1.637
22.3479,1.634
22.3479,1.634
22.3479,1.634
22.3489,1.635
22.3489,1.635
22.3489,1.638
22.3489,1.645
22.3489,1.637
22.3489,1.635
22.3489,1.636
22.3499,1.635
22.3499,1.634
22.3499,1.634
22.3499,1.64
22.3499,1.635
22.3499,1.634
22.3499,1.635
22.3508,1.635
22.3508,1.636
22.3508,1.635
22.3508,1.639
22.3508,1.638
22.3518,1.636
22.3518,1.637
22.3518,1.637
22.3518,1.635
22.3518,1.635
22.3518,1.639
22.3518,1.634
22.3529,1.634
22.3529,1.634
22.3529,1.634
22.3529,1.634
22.3529,1.636
22.3529,1.639
22.3529,1.639
22.3529,1.637
22.3539,1.636
22.3539,1.637
22.3539,1.636
22.3539,1.634
22.3539,1.636
22.3539,1.638
22.3539,1.632
22.3549,1.634
22.3549,1.635
22.3549,1.635
22.3549,1.636
22.3549,1.636
22.3549,1.637
22.3549,1.636
22.3549,1.637
22.3559,1.637
22.3559,1.636
22.3559,1.635
22.3559,1.636
22.3559,1.637
22.3559,1.633
22.3559,1.634
22.3569,1.635
22.3569,1.635
22.3569,1.636
22.3569,1.637
22.3569,1.634
22.3569,1.635
22.3569,1.638
22.3579,1.638
22.3579,1.637
22.3579,1.637
22.3579,1.639
22.3579,1.635
22.3579,1.633
22.3579,1.636
22.3589,1.634
22.3589,1.635
22.3589,1.636
22.3589,1.635
22.3589,1.636
22.3589,1.636
22.3589,1.64
22.3598,1.637
22.3598,1.637
22.3598,1.636
22.3598,1.636
22.3598,1.634
22.3598,1.64
22.3598,1.64
22.3608,1.635
22.3608,1.635
22.3608,1.635
22.3608,1.636
22.3608,1.635
22.3608,1.638
22.3608,1.641
22.3618,1.637
22.3618,1.637
22.3618,1.637
22.3618,1.635
22.3618,1.636
22.3618,1.637
22.3618,1.638
22.3618,1.637
22.3628,1.635
22.3628,1.635
22.3628,1.636
22.3628,1.636
22.3628,1.636
22.3628,1.639
22.3628,1.637
22.3638,1.637
22.3638,1.637
22.3638,1.636
22.3638,1.636
22.3638,1.638
22.3638,1.637
22.3638,1.632
22.3648,1.636
22.3648,1.635
22.3648,1.634
22.3648,1.635
22.3648,1.637
22.3648,1.637
22.3648,1.635
22.3658,1.64
22.3658,1.638
22.3658,1.637
22.3658,1.637
22.3658,1.64
22.3658,1.636
22.3658,1.636
22.3668,1.634
22.3668,1.637
22.3668,1.635
22.3668,1.635
22.3668,1.638
22.3668,1.637
22.3678,1.638
22.3678,1.635
22.3678,1.639
22.3678,1.637
22.3678,1.637
22.3678,1.637
22.3678,1.638
22.3688,1.636
22.3688,1.637
22.3688,1.638
22.3688,1.635
22.3688,1.637
22.3688,1.636
22.3688,1.637
22.3698,1.636
22.3698,1.64
22.3698,1.643
22.3698,1.638
22.3698,1.638
22.3698,1.637
22.3698,1.636
22.3698,1.636
22.3708,1.642
22.3708,1.638
22.3708,1.634
22.3708,1.634
22.3708,1.636
22.3708,1.637
22.3708,1.636
22.3718,1.64
22.3718,1.638
22.3718,1.637
22.3718,1.637
22.3718,1.638
22.3718,1.637
22.3718,1.637
22.3728,1.637
22.3728,1.636
22.3728,1.635
22.3728,1.636
22.3728,1.635
22.3728,1.636
22.3728,1.638
22.3738,1.637
22.3738,1.637
22.3738,1.638
22.3738,1.638
22.3738,1.638
22.3738,1.637
22.3738,1.637
22.3748,1.635
22.3748,1.635
22.3748,1.636
22.3748,1.637
22.3748,1.636
22.3748,1.638
22.3748,1.637
22.3758,1.637
22.3758,1.643
22.3758,1.638
22.3758,1.637
22.3758,1.637
22.3758,1.638
22.3758,1.637
22.3768,1.639
22.3768,1.644
22.3768,1.634
22.3768,1.637
22.3768,1.637
22.3768,1.637
22.3768,1.637
22.3768,1.639
22.3778,1.637
22.3778,1.638
22.3778,1.637
22.3778,1.638
22.3778,1.637
22.3778,1.639
22.3788,1.636
22.3788,1.636
22.3788,1.64
22.3788,1.636
22.3788,1.636
22.3788,1.638
22.3788,1.637
22.3788,1.637
22.3798,1.637
22.3798,1.641
22.3798,1.639
22.3798,1.638
22.3798,1.638
22.3798,1.637
22.3798,1.636
22.3808,1.635
22.3808,1.638
22.3808,1.641
22.3808,1.635
22.3808,1.636
22.3808,1.637
22.3808,1.637
22.3808,1.637
22.3818,1.642
22.3818,1.634
22.3818,1.64
22.3818,1.639
22.3818,1.637
22.3818,1.638
22.3818,1.639
22.3828,1.635
22.3828,1.635
22.3828,1.637
22.3828,1.636
22.3828,1.638
22.3828,1.637
22.3828,1.637
22.3838,1.636
22.3838,1.638
22.3838,1.638
22.3838,1.639
22.3838,1.638
22.3838,1.637
22.3848,1.639
22.3848,1.64
22.3848,1.636
22.3848,1.635
22.3848,1.636
22.3848,1.637
22.3848,1.637
22.3848,1.638
22.3858,1.639
22.3858,1.639
22.3858,1.637
22.3858,1.638
22.3858,1.64
22.3858,1.639
22.3858,1.637
22.3868,1.639
22.3868,1.639
22.3868,1.639
22.3868,1.637
22.3868,1.637
22.3868,1.637
22.3878,1.638
22.3878,1.64
22.3878,1.639
22.3878,1.642
22.3878,1.641
22.3878,1.639
22.3878,1.639
22.3878,1.638
22.3888,1.637
22.3888,1.636
22.3888,1.64
22.3888,1.639
22.3888,1.637
22.3888,1.637
22.3888,1.638
22.3898,1.638
22.3898,1.639
22.3898,1.643
22.3898,1.637
22.3898,1.637
22.3898,1.64
22.3898,1.639
22.3908,1.637
22.3908,1.639
22.3908,1.64
22.3908,1.634
22.3908,1.638
22.3908,1.637
22.3918,1.638
22.3918,1.638
22.3918,1.638
22.3918,1.64
22.3918,1.641
22.3918,1.638
22.3918,1.64
22.3928,1.64
22.3928,1.639
22.3928,1.64
22.3928,1.636
22.3928,1.639
22.3928,1.642
22.3928,1.638
22.3928,1.638
22.3938,1.637
22.3938,1.639
22.3938,1.639
22.3938,1.64
22.3938,1.644
22.3938,1.639
22.3938,1.64
22.3948,1.639
22.3948,1.638
22.3948,1.64
22.3948,1.641
22.3948,1.635
22.3948,1.638
22.3948,1.638
22.3958,1.639
22.3958,1.639
22.3958,1.641
22.3958,1.639
22.3958,1.641
22.3958,1.642
22.3958,1.64
22.3968,1.639
22.3968,1.64
22.3968,1.64
22.3968,1.638
22.3968,1.643
22.3968,1.643
22.3968,1.638
22.3977,1.638
22.3977,1.639
22.7289,1.639
22.7289,1.639
22.7299,1.643
22.7299,1.636
22.7299,1.638
22.7309,1.641
22.7319,1.64
22.7319,1.639
22.7329,1.64
22.7339,1.641
22.7349,1.644
22.7349,1.636
22.7359,1.637
22.7359,1.639
22.7359,1.639
22.7369,1.638
22.7369,1.64
22.7379,1.643
22.7379,1.637
22.7379,1.64
22.7389,1.64
22.7389,1.64
22.7399,1.64
22.7399,1.641
22.7409,1.638
22.7409,1.642
22.7419,1.638
22.7419,1.638
22.7419,1.639
22.7428,1.64
22.7428,1.639
22.7428,1.643
22.7428,1.642
22.7439,1.64
22.7439,1.641
22.7439,1.641
22.7449,1.641
22.7449,1.642
22.7449,1.64
22.7449,1.64
22.7459,1.637
22.7459,1.64
22.7459,1.638
22.7459,1.638
22.7469,1.641
22.7498,1.639
22.7558,1.641
22.7608,1.644
22.7618,1.641
22.7638,1.641
22.7638,1.641
22.7638,1.64
22.7638,1.638
22.7638,1.637
22.7648,1.642
22.7648,1.638
22.7648,1.638
22.7648,1.639
22.7648,1.639
22.7648,1.639
22.7648,1.644
22.7658,1.64
22.7658,1.641
22.7658,1.64
22.7658,1.641
22.7658,1.641
22.7658,1.641
22.7658,1.641
22.7668,1.638
22.7668,1.64
22.7668,1.638
22.7668,1.638
22.7678,1.64
22.7678,1.64
22.7678,1.64
22.7678,1.641
22.7678,1.639
22.7678,1.641
22.7678,1.642
22.7688,1.64
22.7688,1.64
22.7688,1.642
22.7688,1.639
22.7688,1.645
22.7688,1.642
22.7688,1.639
22.7698,1.64
22.7698,1.64
22.7698,1.641
22.7698,1.642
22.7698,1.648
22.7698,1.641
22.7698,1.642
22.7708,1.641
22.7708,1.641
22.7708,1.639
22.7708,1.64
22.7708,1.644
22.7708,1.639
22.7708,1.641
22.7708,1.639
22.7718,1.641
22.7718,1.641
22.7718,1.643
22.7718,1.641
22.7718,1.643
22.7718,1.642
22.7718,1.642
22.7728,1.641
22.7728,1.641
22.7728,1.641
22.7728,1.639
22.7728,1.646
22.7728,1.639
22.7728,1.64
22.7738,1.64
22.7738,1.641
22.7738,1.64
22.7738,1.64
22.7738,1.645
22.7738,1.64
22.7738,1.642
22.7738,1.641
22.7748,1.641
22.7748,1.641
22.7748,1.643
22.7748,1.639
22.7748,1.642
22.7748,1.639
22.7748,1.641
22.7758,1.641
22.7758,1.641
22.7758,1.641
22.7758,1.641
22.7758,1.646
22.7758,1.641
22.7758,1.643
22.7767,1.642
22.7767,1.643
22.7767,1.641
22.7767,1.641
22.7767,1.641
22.7767,1.642
22.7777,1.641
22.7777,1.64
22.7777,1.641
22.7777,1.642
22.7777,1.642
22.7777,1.643
22.7777,1.641
22.7787,1.643
22.7787,1.643
22.7787,1.642
22.7787,1.644
22.7787,1.64
22.7787,1.642
22.7787,1.644
22.7797,1.643
22.7797,1.641
22.7797,1.642
22.7797,1.642
22.7797,1.643
22.7797,1.643
22.7797,1.642
22.7807,1.643
22.7807,1.643
22.7807,1.644
22.7807,1.642
22.7807,1.643
22.7807,1.645
22.7807,1.642
22.7817,1.64
22.7817,1.64
22.7817,1.642
22.7817,1.642
22.7817,1.643
22.7817,1.642
22.7817,1.64
22.7827,1.647
22.7827,1.644
22.7827,1.643
22.7827,1.643
22.7827,1.643
22.7827,1.641
22.7827,1.641
22.7837,1.647
22.7837,1.643
22.7837,1.64
22.7837,1.641
22.7837,1.642
22.7847,1.641
22.7847,1.643
22.7847,1.646
22.7847,1.641
22.7847,1.644
22.7857,1.644
22.7857,1.642
22.7857,1.642
22.7857,1.642
22.7857,1.64
22.7857,1.64
22.7857,1.641
22.7867,1.641
22.7867,1.642
22.7867,1.644
22.7867,1.642
22.7867,1.642
22.7867,1.644
22.7867,1.646
22.7877,1.644
22.7877,1.643
22.7877,1.643
22.7877,1.641
22.7877,1.642
22.7877,1.645
22.7877,1.644
22.7887,1.642
22.7887,1.642
22.7887,1.643
22.7887,1.643
22.7887,1.643
22.7887,1.643
22.7887,1.643
22.7887,1.645
22.7897,1.644
22.7897,1.643
22.7897,1.643
22.7897,1.64
22.7897,1.644
22.7897,1.648
22.7897,1.642
22.7907,1.641
22.7907,1.643
22.7907,1.643
22.7907,1.643
22.7907,1.648
22.7907,1.646
22.7907,1.643
22.7917,1.644
22.7917,1.643
22.7917,1.642
22.7917,1.643
22.7917,1.645
22.7917,1.647
22.7917,1.642
22.7927,1.642
22.7927,1.643
22.7927,1.643
22.7927,1.643
22.7927,1.646
22.7927,1.646
22.7927,1.645
22.7927,1.645
22.7937,1.645
22.7937,1.644
22.7937,1.645
22.7937,1.641
22.7937,1.643
22.7937,1.646
22.7937,1.643
22.7947,1.642
22.7947,1.644
22.7947,1.643
22.7947,1.643
22.7947,1.649
22.7947,1.647
22.7947,1.644
22.7957,1.645
22.7957,1.644
22.7957,1.643
22.7957,1.642
22.7957,1.645
22.7957,1.647
22.7957,1.643
22.7957,1.642
22.7967,1.643
22.7967,1.644
22.7967,1.643
22.7967,1.644
22.7967,1.642
22.7967,1.645
22.7977,1.645
22.7977,1.644
22.7977,1.644
22.7977,1.644
22.7977,1.641
22.7977,1.644
22.7977,1.644
22.7987,1.643
22.7987,1.643
22.7987,1.643
22.7987,1.644
22.7987,1.644
22.7987,1.647
22.7987,1.648
22.7987,1.644
22.7997,1.646
22.7997,1.645
22.7997,1.643
22.7997,1.644
22.7997,1.647
22.7997,1.64
22.8007,1.643
22.8007,1.643
22.8007,1.643
22.8007,1.643
22.8007,1.645
22.8007,1.644
22.8007,1.649
22.8017,1.649
22.8017,1.646
22.8017,1.645
22.8017,1.646
22.8017,1.645
22.8017,1.644
22.8017,1.649
22.8027,1.644
22.8027,1.643
22.8027,1.642
22.8027,1.643
22.8027,1.644
22.8027,1.644
22.8037,1.648
22.8037,1.644
22.8037,1.647
22.8037,1.645
22.8037,1.645
22.8037,1.644
22.8047,1.647
22.8047,1.643
23.4116,1.646
23.4116,1.643
23.4116,1.644
23.4116,1.644
23.4116,1.643
23.4126,1.646
23.4126,1.648
23.4126,1.648
23.4126,1.646
23.4126,1.645
23.4126,1.644
23.4136,1.645
23.4136,1.642
23.4136,1.646
23.4146,1.646
23.4146,1.646
23.4146,1.643
23.4156,1.646
23.4156,1.645
23.4156,1.643
23.4156,1.649
23.4156,1.647
23.4156,1.645
23.4156,1.646
23.4166,1.646
23.4166,1.644
23.4166,1.645
23.4166,1.646
23.4176,1.644
23.4176,1.644
23.4176,1.644
23.4176,1.644
23.4176,1.645
23.4176,1.646
23.4176,1.645
23.4186,1.644
23.4186,1.649
23.4186,1.646
23.4186,1.647
23.4186,1.646
23.4186,1.646
23.4186,1.643
23.4196,1.642
23.4196,1.649
23.4196,1.645
23.4196,1.645
23.4196,1.645
23.4196,1.645
23.4196,1.645
23.4206,1.644
23.4206,1.651
23.4206,1.646
23.4206,1.646
23.4206,1.646
23.4206,1.645
23.4216,1.644
23.4216,1.644
23.4226,1.642
23.4226,1.642
23.4226,1.644
23.4226,1.643
23.4226,1.645
23.4226,1.645
23.4236,1.646
23.4236,1.647
23.4236,1.645
23.4236,1.647
23.4236,1.646
23.4236,1.645
23.4236,1.647
23.4246,1.643
23.4246,1.643
23.4246,1.648
23.4246,1.648
23.4246,1.644
23.4246,1.646
23.4246,1.644
23.4246,1.645
23.4256,1.646
23.4256,1.649
23.4256,1.647
23.4256,1.646
23.4256,1.646
23.4256,1.646
23.4256,1.647
23.4266,1.644
23.4266,1.643
23.4266,1.644
23.4266,1.644
23.4266,1.643
23.4266,1.645
23.4276,1.645
23.4276,1.645
23.4276,1.647
23.4276,1.652
23.4286,1.645
23.4294,1.647
23.4294,1.646
23.4294,1.643
23.4294,1.645
23.4294,1.647
23.4294,1.644
23.4304,1.644
23.4304,1.644
23.4304,1.645
23.4304,1.645
23.4304,1.646
23.4304,1.645
23.4304,1.646
23.4304,1.647
23.4314,1.645
23.4314,1.646
23.4314,1.646
23.4314,1.646
23.4314,1.644
23.4314,1.646
23.4314,1.643
23.4324,1.643
23.4324,1.644
23.4324,1.645
23.4324,1.645
23.4324,1.645
23.4324,1.648
23.4324,1.645
23.4334,1.646
23.4334,1.645
23.4334,1.646
23.4334,1.645
23.4334,1.647
23.4334,1.644
23.4344,1.645
23.4344,1.644
23.4344,1.644
23.4344,1.645
23.4354,1.646
23.4354,1.645
23.4354,1.645
23.4364,1.646
23.4364,1.652
23.4364,1.646
23.4364,1.648
23.4364,1.645
23.4374,1.643
23.4374,1.645
23.4374,1.645
23.4374,1.643
23.4374,1.645
23.4374,1.644
23.4374,1.643
23.4384,1.645
23.4384,1.645
23.4384,1.646
23.4384,1.647
23.4384,1.648
23.4384,1.646
23.4384,1.645
23.4394,1.644
23.4394,1.643
23.4394,1.645
23.4394,1.65
23.4394,1.643
23.4394,1.644
23.4394,1.643
23.4394,1.644
23.4404,1.643
23.4404,1.646
23.4404,1.644
23.4404,1.644
23.4404,1.645
23.4404,1.646
23.4404,1.645
23.4414,1.645
23.4414,1.644
23.4414,1.643
23.4414,1.645
23.4414,1.643
23.4414,1.643
23.4414,1.644
23.4423,1.645
23.4423,1.644
23.4423,1.65
23.4423,1.644
23.4423,1.646
23.4423,1.646
23.4433,1.645
23.4443,1.644
23.4443,1.647
23.4443,1.642
23.4443,1.645
23.4443,1.647
23.4443,1.643
23.4443,1.644
23.4453,1.644
23.4453,1.644
23.4453,1.644
23.4453,1.646
23.4453,1.649
23.4453,1.643
23.4453,1.645
23.4463,1.645
23.4463,1.644
23.4463,1.644
23.4463,1.642
23.4463,1.645
23.4463,1.644
23.4463,1.645
23.4473,1.644
23.4473,1.645
23.4473,1.644
23.4473,1.645
23.4473,1.647
23.4473,1.643
23.4483,1.645
23.4483,1.646
23.4483,1.645
23.4483,1.645
23.4483,1.644
23.4483,1.638
23.4483,1.641
23.4483,1.644
23.4493,1.642
23.4493,1.644
23.4493,1.644
23.4493,1.644
23.4503,1.646
23.4503,1.649
23.4503,1.642
23.4503,1.645
23.4513,1.644
23.4513,1.644
23.4513,1.644
23.4513,1.645
23.4513,1.641
23.4513,1.643
23.4523,1.643
23.4523,1.643
23.4523,1.643
23.4523,1.644
23.4523,1.643
23.4523,1.651
23.4523,1.645
23.4523,1.644
23.4533,1.645
23.4533,1.645
23.4533,1.644
23.4533,1.647
23.4533,1.645
23.4533,1.646
23.4533,1.644
23.4543,1.642
23.4543,1.643
23.4543,1.646
23.4543,1.645
23.4543,1.644
23.4543,1.648
23.4543,1.649
23.4553,1.645
23.4553,1.645
23.4553,1.643
23.4553,1.643
23.4553,1.645
23.4553,1.642
23.4553,1.642
23.4553,1.642
23.4563,1.642
23.4563,1.644
23.4563,1.646
23.4563,1.645
23.4563,1.649
23.4563,1.645
23.4573,1.644
23.4573,1.644
23.4583,1.645
23.4583,1.644
23.4583,1.645
23.4583,1.643
23.4593,1.645
23.4593,1.643
23.4593,1.642
23.4593,1.643
23.4593,1.643
23.4593,1.643
23.4593,1.645
23.4603,1.644
23.4603,1.649
23.4603,1.645
23.4603,1.644
23.4603,1.643
23.4603,1.643
23.4603,1.643
23.4613,1.644
23.4613,1.642
23.4613,1.641
23.4613,1.643
23.4613,1.643
23.4613,1.643
23.4613,1.644
23.4613,1.643
23.4623,1.643
23.4623,1.645
23.4623,1.646
23.4623,1.644
23.4623,1.642
23.4623,1.643
23.4623,1.645
23.4633,1.647
23.4633,1.642
23.4633,1.641
23.4633,1.643
23.4633,1.643
23.4633,1.643
23.4633,1.645
23.4633,1.644
23.4643,1.644
23.4643,1.644
23.4643,1.643
23.4643,1.643
23.4653,1.643
23.4653,1.641
23.4653,1.647
23.4653,1.644
23.4663,1.642
23.4663,1.642
23.4663,1.643
23.4663,1.642
23.4663,1.646
23.4663,1.644
23.4673,1.642
23.4673,1.645
23.4673,1.643
23.4673,1.643
23.4673,1.646
23.4673,1.642
23.4683,1.64
23.4683,1.648
23.4683,1.643
23.4683,1.642
23.4683,1.642
23.4683,1.643
23.4683,1.643
23.4693,1.643
23.4693,1.65
23.4693,1.644
23.4693,1.644
23.4693,1.643
23.4693,1.643
23.4693,1.643
23.4703,1.646
23.4703,1.638
23.4703,1.642
23.4703,1.642
23.4703,1.642
23.4703,1.643
23.4703,1.643
23.4703,1.642
23.4713,1.643
23.4713,1.65
23.4713,1.644
23.4713,1.643
23.4723,1.643
23.4723,1.642
23.4733,1.642
23.4733,1.646
23.4733,1.642
23.4733,1.642
23.4733,1.641
23.4733,1.642
23.4743,1.643
23.4743,1.643
23.4743,1.642
23.4743,1.646
23.4743,1.643
23.4743,1.644
23.4743,1.644
23.4752,1.642
23.4752,1.64
23.4752,1.642
23.4752,1.642
23.4752,1.643
23.4752,1.641
23.4752,1.641
23.4762,1.641
23.4762,1.643
23.4762,1.643
23.4762,1.645
23.4762,1.648
23.4762,1.644
23.4762,1.642
23.4772,1.643
23.4772,1.643
23.4772,1.64
23.4772,1.643
23.4772,1.646
23.4772,1.643
23.4772,1.642
23.4782,1.643
23.4782,1.643
23.4782,1.641
23.4782,1.643
23.4782,1.646
23.4792,1.643
23.4792,1.644
23.4792,1.643
23.4802,1.642
23.4802,1.644
23.4802,1.643
23.4802,1.645
23.4802,1.643
23.4802,1.641
23.4802,1.642
23.4812,1.642
23.4812,1.643
23.4812,1.643
23.4812,1.645
23.4812,1.642
23.4812,1.643
23.4812,1.644
23.4822,1.643
23.4822,1.643
23.4822,1.644
23.4822,1.641
23.4822,1.643
23.4822,1.642
23.4822,1.643
23.4832,1.641
23.4832,1.642
23.4832,1.643
23.4832,1.643
23.4832,1.646
23.4842,1.643
23.4842,1.643
23.4842,1.643
23.4842,1.643
23.4842,1.643
23.4842,1.645
23.4852,1.642
23.4852,1.64
23.4852,1.642
23.4852,1.641
23.4852,1.642
23.4852,1.643
23.4852,1.642
23.4862,1.642
23.4862,1.648
23.4862,1.642
23.4862,1.643
23.4872,1.644
23.4872,1.643
23.4882,1.642
23.4882,1.642
23.4882,1.642
23.4882,1.641
23.4882,1.641
23.4882,1.642
23.4892,1.642
23.4892,1.643
23.4892,1.642
23.4892,1.643
23.4892,1.646
23.4892,1.643
23.4892,1.644
23.4902,1.644
23.4902,1.642
23.4902,1.641
23.4902,1.643
23.4902,1.639
23.4902,1.642
23.4902,1.642
23.4912,1.641
23.4912,1.642
23.4912,1.642
23.4912,1.643
23.4912,1.643
23.4912,1.648
23.4912,1.643
23.4922,1.643
23.4922,1.642
23.4922,1.641
23.4922,1.643
23.4922,1.645
23.4922,1.642
23.4922,1.641
23.4932,1.641
23.4932,1.642
23.4932,1.641
23.4942,1.644
23.4942,1.642
23.4942,1.643
23.4942,1.643
23.4952,1.643
23.4952,1.643
23.4952,1.643
23.4952,1.641
23.4952,1.642
23.4952,1.647
23.4952,1.641
24.3211,1.641
24.3211,1.641
24.3211,1.642
24.3211,1.645
24.3211,1.642
24.3221,1.641
24.3221,1.643
24.3221,1.642
24.3221,1.642
24.3221,1.643
24.3221,1.642
24.3221,1.641
24.3231,1.643
24.3231,1.641
24.3231,1.641
24.3231,1.643
24.3231,1.64
24.3231,1.642
24.3241,1.644
24.3241,1.644
24.3241,1.642
24.3241,1.643
24.3241,1.643
24.3241,1.64
24.3241,1.643
24.3241,1.643
24.3251,1.64
24.3251,1.64
24.3251,1.641
24.3251,1.641
24.3251,1.643
24.3251,1.643
24.3251,1.642
24.3261,1.642
24.3261,1.643
24.3261,1.643
24.3261,1.643
24.3261,1.642
24.3261,1.643
24.3261,1.64
24.3271,1.641
24.3271,1.641
24.3271,1.642
24.3271,1.641
24.3271,1.642
24.3271,1.642
24.3271,1.642
24.3281,1.644
24.3281,1.642
24.3281,1.643
24.3281,1.643
24.3281,1.642
24.3281,1.642
24.3291,1.644
24.3291,1.642
24.3291,1.641
24.3291,1.64
24.3291,1.64
24.3291,1.641
24.3291,1.642
24.3291,1.642
24.3301,1.643
24.3301,1.644
24.3301,1.646
24.3301,1.643
24.3301,1.642
24.3301,1.643
24.3311,1.643
24.3311,1.641
24.3311,1.637
24.3311,1.643
24.3311,1.641
24.3311,1.641
24.3311,1.64
24.3311,1.642
24.3321,1.645
24.3321,1.643
24.3321,1.642
24.3321,1.643
24.3321,1.643
24.3321,1.643
24.3321,1.643
24.3331,1.641
24.3331,1.641
24.3331,1.646
24.3331,1.642
24.3331,1.64
24.3331,1.643
24.3341,1.642
24.3341,1.643
24.3341,1.642
24.3341,1.645
24.3341,1.644
24.3341,1.643
24.3341,1.643
24.3351,1.643
24.3351,1.64
24.3351,1.642
24.3351,1.645
24.3351,1.64
24.3351,1.641
24.3361,1.641
24.3361,1.641
24.3361,1.642
24.3361,1.642
24.3361,1.641
24.3361,1.648
24.3361,1.643
24.3361,1.643
24.3371,1.643
24.3371,1.642
24.3371,1.639
24.3371,1.642
24.3371,1.647
24.3371,1.641
24.3381,1.64
24.3381,1.642
24.3381,1.641
24.3381,1.641
24.3381,1.644
24.3381,1.647
24.3381,1.644
24.3391,1.642
24.3391,1.643
24.3391,1.642
24.3391,1.642
24.3391,1.643
24.3391,1.64
24.3391,1.639
24.3401,1.641
24.3401,1.64
24.3401,1.641
24.3401,1.642
24.3401,1.642
24.3401,1.642
24.3401,1.646
24.3411,1.642
24.3411,1.642
24.3411,1.643
24.3411,1.642
24.3411,1.642
24.3411,1.641
24.3411,1.647
24.3421,1.639
24.3421,1.64
24.3421,1.641
24.3421,1.641
24.3421,1.641
24.3421,1.642
24.3421,1.64
24.3421,1.642
24.3431,1.643
24.3431,1.643
24.3431,1.641
24.3431,1.643
24.3431,1.643
24.3431,1.64
24.3431,1.64
24.3441,1.644
24.3441,1.641
24.3441,1.641
24.3441,1.642
24.3441,1.64
24.3441,1.641
24.3441,1.643
24.3450,1.642
24.3450,1.643
24.3450,1.643
24.3450,1.642
24.3450,1.64
24.3450,1.639
24.3450,1.641
24.3450,1.641
24.3460,1.641
24.3460,1.641
24.3460,1.64
24.3460,1.642
24.3460,1.642
24.3460,1.642
24.3460,1.641
24.3470,1.643
24.3470,1.643
24.3470,1.642
24.3470,1.642
24.3470,1.642
24.3470,1.641
24.3480,1.639
24.3480,1.641
24.3480,1.64
24.3480,1.641
24.3480,1.641
24.3480,1.641
24.3480,1.643
24.3480,1.64
24.3490,1.643
24.3490,1.643
24.3490,1.643
24.3490,1.642
24.3490,1.641
24.3490,1.639
24.3490,1.646
24.3500,1.64
24.3500,1.64
24.3500,1.64
24.3500,1.641
24.3500,1.64
24.3510,1.642
24.3510,1.642
24.3510,1.642
24.3510,1.642
24.3510,1.643
24.3510,1.642
24.3510,1.642
24.3520,1.643
24.3520,1.641
24.3520,1.64
24.3520,1.643
24.3520,1.641
24.3520,1.64
24.3520,1.641
24.3520,1.641
24.3530,1.64
24.3530,1.644
24.3530,1.642
24.3530,1.643
24.3530,1.642
24.3530,1.641
24.3530,1.639
24.3540,1.641
24.3540,1.642
24.3540,1.641
24.3540,1.641
24.3540,1.64
24.3540,1.641
24.3540,1.641
24.3550,1.642
24.3550,1.638
24.3550,1.648
24.3550,1.643
24.3550,1.643
24.3550,1.641
24.3560,1.642
24.3560,1.64
24.3560,1.638
24.3560,1.645
24.3560,1.643
24.3560,1.64
24.3560,1.641
24.3570,1.64
24.3570,1.641
24.3570,1.641
24.3570,1.646
24.3570,1.643
24.3570,1.641
24.3570,1.644
24.3580,1.642
24.3580,1.64
24.3580,1.639
24.3580,1.642
24.3580,1.641
24.3580,1.639
24.3580,1.64
24.3590,1.64
24.3590,1.64
24.3590,1.643
24.3590,1.642
24.3590,1.643
24.3590,1.64
24.3590,1.641
24.3600,1.641
24.3600,1.64
24.3600,1.643
24.3600,1.641
24.3600,1.639
24.3600,1.642
24.3600,1.641
24.3610,1.64
24.3610,1.64
24.3610,1.643
24.3610,1.641
24.3610,1.642
24.3610,1.645
24.3610,1.641
24.3620,1.642
24.3620,1.641
24.3620,1.642
24.3620,1.639
24.3620,1.641
24.3620,1.647
24.3620,1.64
24.3620,1.64
24.3630,1.64
24.3630,1.641
24.3630,1.64
24.3630,1.646
24.3630,1.645
24.3630,1.642
24.3630,1.642
24.3640,1.642
24.3640,1.64
24.3640,1.64
24.3640,1.642
24.3640,1.641
24.3640,1.641
24.3640,1.64
24.3650,1.64
24.3650,1.641
24.3650,1.641
24.3650,1.643
24.3650,1.641
24.3650,1.643
24.3650,1.642
24.3660,1.642
24.3660,1.642
24.3660,1.642
24.3660,1.639
24.3660,1.642
24.3660,1.645
24.3660,1.639
24.3670,1.64
24.3670,1.64
24.3670,1.641
24.3670,1.641
24.3670,1.645
24.3670,1.643
24.3680,1.641
24.3680,1.642
24.3680,1.641
24.3680,1.641
24.3680,1.643
24.3680,1.642
24.3680,1.64
24.3680,1.638
24.3690,1.64
24.3690,1.64
24.3690,1.64
24.3690,1.641
24.3690,1.641
24.3690,1.643
24.3690,1.645
24.3700,1.641
24.3700,1.643
24.3700,1.641
24.3700,1.641
24.3700,1.641
24.3700,1.638
24.3700,1.646
24.3710,1.64
24.3710,1.64
24.3710,1.64
24.3710,1.641
24.3710,1.641
24.3710,1.645
24.3720,1.644
24.3720,1.64
24.3720,1.642
24.3720,1.642
24.3720,1.642
24.3720,1.641
24.3720,1.642
24.3730,1.641
24.3730,1.641
24.3730,1.64
24.3730,1.64
24.3730,1.641
24.3730,1.641
24.3730,1.643
24.3730,1.641
24.3740,1.641
24.3740,1.643
24.3740,1.642
24.3740,1.642
24.3740,1.641
24.3740,1.644
24.3740,1.637
24.3750,1.641
24.3750,1.643
24.3750,1.64
24.3750,1.64
24.3750,1.641
24.3750,1.641
24.3750,1.64
24.3760,1.647
24.3760,1.642
24.3760,1.643
24.3760,1.643
24.3760,1.642
24.3760,1.64
24.3760,1.641
24.3760,1.645
24.3770,1.639
24.3770,1.641
24.3770,1.64
24.3770,1.64
24.3770,1.641
24.3770,1.642
24.3780,1.641
24.3780,1.643
24.3780,1.643
24.3780,1.643
24.3780,1.642
24.3780,1.642
24.3780,1.644
24.3790,1.64
24.3790,1.639
24.3790,1.643
24.3790,1.64
24.3790,1.639
24.3790,1.642
24.3790,1.64
24.3800,1.641
24.3800,1.643
24.3800,1.648
24.3800,1.642
24.3800,1.642
24.3800,1.641
24.3800,1.641
24.3800,1.64
24.3810,1.643
24.3810,1.643
24.3810,1.64
24.3810,1.64
24.3810,1.641
24.3810,1.641
24.3810,1.642
24.3820,1.643
24.3820,1.642
24.3820,1.642
24.3820,1.644
24.3820,1.642
24.3820,1.642
24.3820,1.643
24.3829,1.641
24.3829,1.641
24.3829,1.639
24.3829,1.641
24.3829,1.641
24.3829,1.643
24.3839,1.642
24.3839,1.642
24.3839,1.642
24.3839,1.644
24.3839,1.643
24.3839,1.643
24.3839,1.642
24.3849,1.642
24.3849,1.639
24.3849,1.639
24.3849,1.646
24.3849,1.641
24.3849,1.64
24.3849,1.641
24.3849,1.641
24.3869,1.641
24.3920,1.642
24.3969,1.642
24.3979,1.643
24.3999,1.643
24.3999,1.643
24.4009,1.641
24.4009,1.642
24.4009,1.643
24.4009,1.639
24.4009,1.64
24.4009,1.64
24.4009,1.641
24.4019,1.641
24.4019,1.643
24.4019,1.641
24.4019,1.643
24.4019,1.644
24.4019,1.645
24.4019,1.642
24.4029,1.642
24.4029,1.643
24.4029,1.64
24.4029,1.643
24.4029,1.648
24.4029,1.642
24.4029,1.64
24.4039,1.641
24.4039,1.642
24.4039,1.642
24.4039,1.639
24.4039,1.646
24.4039,1.644
24.4039,1.643
24.4049,1.643
24.4049,1.642
24.4049,1.642
24.4049,1.642
24.4049,1.642
24.4049,1.643
24.4049,1.642
24.4059,1.642
24.4059,1.641
24.4059,1.643
24.4059,1.64
24.4059,1.646
24.4059,1.643
24.4059,1.643
24.4069,1.643
24.4069,1.641
24.4069,1.64
24.4069,1.647
24.4069,1.64
24.4069,1.641
24.4069,1.641
24.4079,1.641
24.4079,1.642
24.4079,1.643
24.4079,1.645
24.4079,1.642
24.4079,1.643
24.4079,1.643
24.4079,1.643
24.4089,1.642
24.4089,1.646
24.4089,1.641
24.4089,1.642
24.4089,1.64
24.4089,1.641
24.4089,1.64
24.4099,1.643
24.4099,1.642
24.4099,1.642
24.4099,1.643
24.4099,1.647
24.4099,1.643
24.4099,1.644
24.4109,1.643
24.4109,1.643
24.4109,1.641
24.4109,1.647
24.4109,1.643
24.4109,1.641
24.4109,1.641
24.4109,1.642
24.4119,1.641
24.4119,1.642
24.4119,1.647
24.4119,1.644
24.4119,1.644
24.4119,1.643
24.4119,1.645
24.4129,1.642
24.4129,1.642
24.4129,1.644
24.4129,1.645
24.4129,1.64
24.4129,1.642
24.4129,1.641
24.4139,1.643
24.4139,1.643
24.4139,1.644
24.4139,1.643
24.4139,1.642
24.4139,1.644
24.4139,1.643
24.4149,1.642
24.4149,1.643
24.4149,1.644
24.4149,1.643
24.4149,1.647
24.4149,1.642
24.4149,1.642
24.4159,1.642
24.4159,1.643
24.4159,1.644
24.4159,1.643
24.4159,1.651
24.4159,1.645
24.4159,1.644
24.4159,1.645
24.4169,1.642
24.4169,1.641
24.4169,1.643
24.4169,1.649
24.4179,1.641
24.4179,1.641
24.4179,1.641
24.4179,1.642
24.4179,1.643
24.4189,1.643
24.4189,1.644
24.4189,1.643
24.4189,1.643
24.4189,1.644
24.4189,1.643
24.4189,1.643
24.4189,1.644
24.4199,1.641
24.4199,1.641
24.4199,1.643
24.4199,1.642
24.4199,1.642
24.4199,1.642
24.4209,1.643
24.4209,1.642
24.4209,1.646
24.4209,1.647
24.4209,1.644
24.4209,1.643
24.4209,1.643
24.4209,1.641
24.4219,1.642
24.4219,1.643
24.4219,1.648
24.4219,1.641
24.4219,1.642
24.4219,1.643
24.4219,1.642
24.4229,1.643
24.4229,1.645
24.4229,1.648
24.4229,1.644
24.4229,1.644
24.4229,1.644
24.4229,1.642
24.4239,1.641
24.4239,1.643
24.4239,1.639
24.4239,1.642
24.4239,1.642
24.4239,1.642
24.4239,1.643
24.4239,1.643
24.4249,1.644
24.4249,1.642
24.4249,1.643
24.4249,1.644
24.4249,1.644
24.4249,1.643
24.4249,1.644
24.4259,1.642
24.4259,1.642
24.4259,1.643
24.4259,1.644
24.4259,1.642
24.4259,1.644
24.4259,1.643
24.4269,1.643
24.4269,1.641
24.4269,1.646
24.4269,1.651
24.4269,1.643
24.4269,1.644
24.4269,1.643
24.4279,1.643
24.4279,1.641
24.4279,1.646
24.4279,1.641
24.4279,1.641
24.4279,1.642
24.4279,1.643
24.4279,1.642
24.4289,1.643
24.4289,1.649
24.4289,1.642
24.4289,1.644
24.4289,1.645
24.7767,1.644
24.7777,1.644
24.7787,1.642
24.7787,1.646
24.7797,1.64
24.7797,1.642
24.7797,1.642
24.7807,1.643
24.7807,1.643
24.7817,1.643
24.7817,1.646
24.7827,1.643
24.7827,1.644
24.7827,1.644
24.7837,1.644
24.7847,1.643
24.7847,1.643
24.7857,1.645
24.7857,1.64
24.7867,1.644
24.7867,1.642
24.7877,1.642
24.7877,1.643
24.7887,1.642
24.7887,1.644
24.7897,1.643
24.7897,1.642
24.7907,1.645
24.7907,1.644
24.7907,1.643
24.7917,1.643
24.7917,1.644
24.7917,1.642
24.7927,1.643
24.7927,1.641
24.7927,1.642
24.7927,1.641
24.7937,1.641
24.7937,1.643
24.7937,1.643
24.7947,1.642
24.7947,1.644
24.7947,1.645
24.7957,1.644
24.7957,1.643
24.7957,1.645
24.7957,1.643
24.7967,1.642
24.7967,1.644
24.7967,1.646
24.7977,1.642
24.7977,1.641
24.7977,1.642
24.7977,1.642
24.7977,1.643
24.7987,1.644
24.7987,1.643
24.7987,1.644
24.7987,1.644
24.7987,1.643
24.7997,1.642
24.7997,1.647
24.7997,1.642
24.7997,1.642
24.8007,1.643
24.8007,1.643
24.8007,1.642
24.8007,1.643
24.8007,1.643
24.8017,1.642
24.8017,1.644
24.8017,1.643
24.8017,1.645
24.8017,1.643
24.8017,1.644
24.8027,1.645
24.8027,1.643
24.8027,1.64
24.8027,1.642
24.8027,1.642
24.8027,1.642
24.8037,1.643
24.8037,1.644
24.8037,1.643
24.8037,1.644
24.8037,1.646
24.8037,1.644
24.8047,1.644
24.8047,1.644
24.8047,1.643
24.8047,1.643
24.8047,1.648
24.8047,1.641
24.8056,1.642
24.8056,1.642
24.8056,1.642
24.8056,1.644
24.8056,1.645
24.8056,1.643
24.8056,1.643
24.8066,1.645
24.8066,1.645
24.8066,1.643
24.8066,1.645
24.8066,1.642
24.8066,1.642
24.8076,1.646
24.8076,1.642
24.8076,1.643
24.8076,1.642
24.8076,1.643
24.8076,1.643
24.8076,1.644
24.8086,1.644
24.8086,1.644
24.8086,1.645
24.8086,1.643
24.8086,1.644
24.8086,1.643
24.8086,1.643
24.8096,1.644
24.8096,1.642
24.8096,1.644
24.8096,1.642
24.8096,1.642
24.8096,1.643
24.8096,1.644
24.8106,1.644
24.8106,1.649
24.8106,1.643
24.8106,1.644
24.8106,1.643
24.8106,1.643
24.8116,1.644
24.8116,1.645
24.8116,1.64
24.8116,1.642
24.8116,1.643
24.8116,1.643
24.8116,1.643
24.8126,1.643
24.8126,1.643
24.8126,1.648
24.8126,1.647
24.8126,1.644
24.8126,1.643
24.8126,1.643
24.8136,1.643
24.8136,1.645
24.8136,1.64
24.8136,1.644
24.8136,1.641
24.8136,1.642
24.8136,1.642
24.8146,1.644
24.8146,1.643
24.8146,1.646
24.8146,1.647
24.8146,1.645
24.8146,1.645
24.8146,1.644
24.8146,1.643
24.8156,1.643
24.8156,1.644
24.8156,1.647
24.8156,1.643
24.8156,1.642
24.8156,1.644
24.8156,1.643
24.8166,1.644
24.8166,1.643
24.8166,1.644
24.8166,1.648
24.8166,1.643
24.8166,1.645
24.8176,1.644
24.8176,1.643
24.8176,1.643
24.8176,1.647
24.8176,1.643
24.8176,1.642
24.8176,1.642
24.8186,1.644
24.8186,1.643
24.8186,1.644
24.8186,1.645
24.8186,1.64
24.8186,1.643
24.8186,1.645
24.8196,1.643
24.8196,1.644
24.8196,1.646
24.8196,1.64
24.8196,1.643
24.8196,1.643
24.8196,1.642
24.8196,1.642
24.8206,1.643
24.8206,1.643
24.8206,1.643
24.8206,1.648
24.8206,1.648
24.8206,1.645
24.8206,1.645
24.8216,1.644
24.8216,1.642
24.8216,1.644
24.8216,1.648
24.8216,1.643
24.8216,1.641
24.8216,1.642
24.8226,1.643
24.8226,1.642
24.8226,1.644
24.8226,1.647
24.8226,1.645
24.8226,1.641
24.8226,1.645
24.8236,1.644
24.8236,1.643
24.8236,1.644
24.8236,1.644
24.8236,1.637
24.8236,1.642
24.8236,1.642
24.8236,1.643
24.8246,1.643
24.8246,1.644
24.8246,1.643
24.8246,1.646
24.8246,1.648
24.8246,1.644
24.8246,1.643
24.8256,1.643
24.8276,1.642
24.8286,1.643
24.8326,1.646
24.8386,1.644
24.8396,1.641
24.8406,1.643
24.8406,1.643
24.8406,1.643
24.8415,1.643
24.8415,1.646
24.8415,1.645
24.8415,1.647
24.8415,1.644
24.8415,1.644
24.8425,1.643
24.8425,1.645
24.8425,1.644
24.8425,1.639
24.8425,1.643
24.8425,1.642
24.8425,1.642
24.8435,1.643
24.8435,1.643
24.8435,1.644
24.8435,1.647
24.8435,1.646
24.8435,1.643
24.8435,1.645
24.8445,1.645
24.8445,1.641
24.8445,1.644
24.8445,1.647
24.8445,1.644
24.8445,1.642
24.8445,1.641
24.8455,1.642
24.8455,1.642
24.8455,1.645
24.8455,1.643
24.8455,1.648
24.8455,1.644
24.8455,1.645
24.8465,1.645
24.8465,1.643
24.8465,1.644
24.8465,1.641
24.8465,1.642
24.8465,1.643
24.8465,1.642
24.8465,1.642
24.8475,1.642
24.8475,1.643
24.8475,1.645
24.8475,1.65
24.8475,1.643
24.8475,1.644
24.8485,1.645
24.8485,1.644
24.8485,1.644
24.8485,1.645
24.8485,1.647
24.8485,1.638
24.8485,1.643
24.8495,1.642
24.8495,1.642
24.8495,1.643
24.8495,1.644
24.8495,1.643
24.8495,1.646
24.8505,1.647
24.8505,1.644
24.8505,1.645
24.8516,1.644
24.8516,1.643
24.8516,1.642
24.8516,1.643
24.8516,1.641
24.8516,1.642
24.8516,1.642
24.8526,1.643
24.8526,1.642
24.8526,1.645
24.8526,1.644
24.8526,1.645
24.8526,1.644
24.8526,1.644
24.8526,1.643
24.8536,1.645
24.8536,1.644
24.8536,1.642
24.8536,1.639
24.8536,1.645
24.8536,1.643
24.8536,1.644
24.8545,1.643
24.8545,1.643
25.4593,1.643
25.4593,1.645
25.4593,1.644
25.4603,1.646
25.4603,1.643
25.4603,1.643
25.4603,1.645
25.4603,1.646
25.4603,1.64
25.4603,1.642
25.4613,1.642
25.4613,1.642
25.4613,1.643
25.4613,1.643
25.4613,1.649
25.4613,1.647
25.4613,1.643
25.4623,1.645
25.4623,1.643
25.4623,1.644
25.4623,1.645
25.4623,1.641
25.4623,1.642
25.4623,1.644
25.4633,1.642
25.4633,1.643
25.4633,1.643
25.4633,1.643
25.4633,1.643
25.4633,1.648
25.4633,1.643
25.4643,1.643
25.4643,1.644
25.4643,1.644
25.4643,1.642
25.4643,1.643
25.4643,1.641
25.4643,1.642
25.4643,1.643
25.4653,1.643
25.4653,1.642
25.4653,1.643
25.4653,1.644
25.4653,1.643
25.4653,1.64
25.4663,1.643
25.4663,1.644
25.4663,1.642
25.4663,1.644
25.4663,1.644
25.4673,1.642
25.4673,1.64
25.4673,1.646
25.4673,1.642
25.4673,1.642
25.4673,1.643
25.4673,1.643
25.4683,1.642
25.4683,1.648
25.4683,1.644
25.4683,1.644
25.4683,1.644
25.4683,1.644
25.4683,1.644
25.4693,1.642
25.4693,1.638
25.4693,1.645
25.4693,1.642
25.4693,1.642
25.4693,1.642
25.4693,1.644
25.4703,1.644
25.4703,1.64
25.4703,1.646
25.4703,1.646
25.4703,1.644
25.4703,1.642
25.4703,1.644
25.4703,1.644
25.4713,1.641
25.4713,1.641
25.4713,1.643
25.4713,1.641
25.4713,1.643
25.4713,1.644
25.4713,1.644
25.4723,1.643
25.4723,1.643
25.4723,1.644
25.4723,1.645
25.4723,1.643
25.4723,1.643
25.4723,1.644
25.4733,1.64
25.4733,1.644
25.4733,1.644
25.4733,1.641
25.4733,1.641
25.4733,1.642
25.4733,1.643
25.4743,1.642
25.4743,1.647
25.4743,1.644
25.4743,1.643
25.4743,1.643
25.4743,1.644
25.4743,1.642
25.4753,1.643
25.4753,1.644
25.4753,1.642
25.4753,1.64
25.4753,1.642
25.4753,1.642
25.4753,1.642
25.4763,1.644
25.4763,1.643
25.4763,1.644
25.4763,1.647
25.4763,1.644
25.4763,1.643
25.4763,1.643
25.4763,1.644
25.4782,1.644
25.4792,1.639
25.4802,1.645
25.4852,1.641
25.4912,1.641
25.4932,1.641
25.4942,1.643
25.4942,1.642
25.4942,1.645
25.4942,1.649
25.4942,1.641
25.4942,1.644
25.4952,1.643
25.4952,1.642
25.4952,1.644
25.4952,1.644
25.4952,1.638
25.4952,1.644
25.4962,1.642
25.4962,1.642
25.4962,1.642
25.4962,1.643
25.4962,1.642
25.4962,1.641
25.4962,1.649
25.4972,1.644
25.4972,1.643
25.4972,1.642
25.4972,1.642
25.4972,1.642
25.4972,1.643
25.4982,1.646
25.4982,1.642
25.4982,1.642
25.4982,1.641
25.4982,1.642
25.4982,1.643
25.4982,1.642
25.4992,1.642
25.4992,1.648
25.4992,1.643
25.4992,1.644
25.4992,1.643
25.4992,1.642
25.4992,1.642
25.5002,1.648
25.5002,1.639
25.5002,1.641
25.5002,1.641
25.5002,1.642
25.5012,1.642
25.5012,1.643
25.5012,1.642
25.5012,1.641
25.5012,1.644
25.5012,1.643
25.5022,1.643
25.5022,1.642
25.5022,1.642
25.5022,1.641
25.5022,1.641
25.5022,1.646
25.5032,1.641
25.5032,1.641
25.5032,1.641
25.5032,1.644
25.5032,1.643
25.5032,1.644
25.5032,1.641
25.5042,1.644
25.5042,1.644
25.5042,1.644
25.5042,1.643
25.5042,1.643
25.5042,1.64
25.5042,1.643
25.5042,1.643
25.5052,1.642
25.5052,1.641
25.5052,1.642
25.5052,1.643
25.5052,1.642
25.5052,1.64
25.5052,1.644
25.5062,1.643
25.5062,1.644
25.5062,1.643
25.5062,1.645
25.5062,1.641
25.5062,1.64
25.5062,1.642
25.5072,1.641
25.5072,1.642
25.5072,1.641
25.5072,1.641
25.5072,1.642
25.5072,1.644
25.5082,1.641
25.5082,1.644
25.5082,1.644
25.5082,1.644
25.5082,1.643
25.5082,1.644
25.5082,1.641
25.5092,1.64
25.5092,1.644
25.5092,1.641
25.5092,1.641
25.5092,1.642
25.5092,1.642
25.5102,1.642
25.5102,1.647
25.5102,1.645
25.5102,1.643
25.5102,1.644
25.5102,1.643
25.5102,1.642
25.5112,1.643
25.5112,1.644
25.5112,1.642
25.5112,1.641
25.5112,1.641
25.5112,1.642
25.5112,1.644
25.5122,1.643
25.5122,1.643
25.5122,1.648
25.5122,1.644
25.5122,1.643
25.5122,1.644
25.5122,1.643
25.5131,1.642
25.5131,1.647
25.5131,1.643
25.5131,1.641
25.5131,1.641
25.5131,1.642
25.5141,1.643
25.5141,1.643
25.5141,1.643
25.5141,1.643
25.5141,1.644
25.5141,1.645
25.5141,1.642
25.5141,1.642
25.5151,1.645
25.5151,1.64
25.5151,1.639
25.5151,1.644
25.5151,1.642
25.5151,1.641
25.5151,1.642
25.5161,1.643
25.5161,1.643
25.5161,1.643
25.5161,1.649
25.5161,1.644
25.5161,1.644
25.5171,1.643
25.5171,1.644
25.5171,1.641
25.5181,1.647
25.5181,1.643
25.5181,1.64
25.5181,1.64
25.5181,1.641
25.5181,1.643
25.5181,1.643
25.5191,1.643
25.5191,1.644
25.5191,1.642
25.5191,1.644
25.5191,1.644
25.5191,1.642
25.5191,1.644
25.5201,1.642
25.5201,1.64
25.5201,1.647
25.5201,1.641
25.5201,1.642
25.5201,1.642
25.5201,1.642
25.5211,1.643
25.5211,1.644
25.5211,1.643
25.5211,1.642
25.5211,1.643
25.5211,1.643
25.5211,1.642
25.5221,1.643
25.5221,1.642
25.5221,1.641
25.5221,1.641
25.5221,1.642
25.5221,1.641
25.5221,1.642
25.5221,1.642
25.5231,1.643
25.5231,1.643
25.5231,1.649
25.5231,1.643
25.5231,1.644
25.5231,1.643
25.5241,1.643
25.5241,1.644
25.5241,1.643
25.5241,1.642
25.5241,1.641
25.5241,1.641
25.5251,1.643
25.5251,1.643
25.5251,1.643
25.5251,1.643
25.5251,1.65
25.5251,1.646
25.5251,1.643
25.5261,1.644
25.5261,1.644
25.5261,1.641
25.5261,1.643
25.5261,1.648
25.5261,1.641
25.5261,1.641
25.5271,1.641
25.5271,1.642
25.5271,1.643
25.5271,1.644
25.5271,1.642
25.5271,1.642
25.5281,1.645
25.5281,1.644
25.5281,1.645
25.5281,1.644
25.5281,1.643
25.5281,1.64
25.5281,1.649
25.5291,1.643
25.5291,1.642
25.5291,1.643
25.5291,1.643
25.5291,1.642
25.5291,1.642
25.5291,1.648
25.5301,1.643
25.5301,1.643
25.5301,1.643
25.5301,1.644
25.5301,1.642
25.5301,1.644
25.5301,1.644
25.5311,1.64
25.5311,1.642
25.5311,1.642
25.5311,1.641
25.5311,1.642
25.5321,1.643
25.5321,1.643
25.5321,1.642
25.5381,1.643
25.5391,1.644
25.5401,1.644
25.5411,1.644
25.5411,1.644
25.5411,1.644
25.5411,1.642
25.5411,1.641
25.5411,1.641
25.5411,1.641
25.5421,1.643
25.5421,1.643
25.5421,1.643
25.5421,1.643
25.5421,1.647
25.5421,1.643
25.5421,1.643
25.5421,1.643
25.5431,1.643
25.5431,1.644
25.5431,1.647
25.5431,1.646
25.5431,1.641
25.5431,1.642
25.5441,1.642
25.5441,1.643
25.5441,1.643
25.5441,1.643
25.5441,1.643
25.5441,1.645
25.5441,1.644
25.5451,1.643
25.5451,1.644
25.5451,1.643
25.5451,1.64
25.5451,1.641
25.5451,1.645
25.5451,1.642
25.5451,1.642
25.5461,1.642
25.5461,1.641
25.5461,1.644
25.5461,1.642
25.5461,1.644
25.5471,1.644
25.5471,1.644
25.5471,1.644
25.5471,1.643
25.5471,1.642
25.5471,1.64
25.5481,1.645
25.5481,1.642
25.5481,1.642
25.5481,1.642
25.5481,1.643
25.5481,1.643
25.5481,1.644
25.5481,1.648
25.5491,1.644
25.5491,1.642
25.5491,1.642
25.5491,1.642
25.5491,1.64
25.5491,1.642
25.5491,1.645
25.5501,1.643
25.5501,1.642
25.5501,1.64
25.5501,1.641
25.5501,1.644
25.5511,1.643
25.5511,1.64
25.5511,1.645
25.5511,1.644
25.5511,1.644
25.5511,1.643
25.5511,1.643
25.5521,1.642
25.5521,1.64
25.5521,1.646
25.5521,1.641
25.5521,1.641
25.5521,1.641
25.5521,1.642
25.5530,1.643
25.5530,1.64
25.5530,1.645
25.5530,1.647
25.5530,1.643
25.5530,1.643
25.5541,1.643
25.5541,1.642
25.5541,1.639
25.5541,1.641
25.5541,1.644
25.5541,1.64
25.5541,1.642
25.5551,1.642
25.5551,1.642
25.5551,1.643
25.5551,1.646
25.5551,1.641
25.5551,1.643
25.5551,1.645
25.5561,1.641
25.5561,1.642
25.5561,1.645
25.5561,1.641
25.5561,1.644
25.5561,1.642
25.5561,1.641
25.5571,1.642
25.5571,1.643
25.5571,1.642
25.5571,1.642
25.5571,1.644
26.1553,1.651
26.1553,1.643
26.1553,1.642
26.1553,1.639
26.1553,1.642
26.1553,1.642
26.1553,1.64
26.1563,1.639
26.1563,1.642
26.1563,1.641
26.1563,1.641
26.1563,1.644
26.1563,1.642
26.1563,1.642
26.1563,1.643
26.1573,1.643
26.1573,1.642
26.1573,1.643
26.1573,1.642
26.1573,1.641
26.1573,1.642
26.1583,1.64
26.1583,1.64
26.1583,1.641
26.1583,1.641
26.1583,1.642
26.1583,1.642
26.1583,1.641
26.1593,1.643
26.1593,1.642
26.1593,1.642
26.1593,1.642
26.1593,1.642
26.1593,1.642
26.1593,1.64
26.1593,1.643
26.1603,1.641
26.1603,1.641
26.1603,1.64
26.1603,1.642
26.1603,1.641
26.1613,1.647
26.1613,1.645
26.1613,1.642
26.1613,1.642
26.1613,1.642
26.1613,1.639
26.1613,1.64
26.1613,1.646
26.1623,1.641
26.1623,1.64
26.1623,1.64
26.1623,1.641
26.1623,1.641
26.1623,1.641
26.1623,1.643
26.1633,1.643
26.1633,1.64
26.1633,1.643
26.1633,1.642
26.1633,1.641
26.1633,1.642
26.1633,1.641
26.1643,1.643
26.1643,1.644
26.1643,1.641
26.1653,1.639
26.1653,1.64
26.1663,1.643
26.1663,1.641
26.1663,1.641
26.1663,1.647
26.1663,1.642
26.1673,1.641
26.1673,1.642
26.1673,1.641
26.1673,1.639
26.1673,1.642
26.1683,1.646
26.1683,1.638
26.1683,1.639
26.1683,1.639
26.1683,1.641
26.1683,1.639
26.1683,1.642
26.1693,1.641
26.1693,1.641
26.1693,1.641
26.1693,1.642
26.1693,1.641
26.1693,1.641
26.1693,1.641
26.1693,1.637
26.1703,1.64
26.1703,1.639
26.1703,1.639
26.1703,1.64
26.1703,1.641
26.1703,1.64
26.1713,1.642
26.1713,1.645
26.1713,1.641
26.1713,1.642
26.1713,1.64
26.1713,1.64
26.1723,1.64
26.1723,1.641
26.1723,1.64
26.1723,1.638
26.1723,1.64
26.1723,1.639
26.1723,1.64
26.1733,1.641
26.1733,1.641
26.1733,1.639
26.1733,1.639
26.1733,1.64
26.1733,1.641
26.1733,1.64
26.1743,1.641
26.1743,1.639
26.1743,1.644
26.1743,1.636
26.1743,1.638
26.1743,1.639
26.1743,1.639
26.1743,1.639
26.1753,1.639
26.1753,1.64
26.1753,1.639
26.1753,1.641
26.1753,1.641
26.1753,1.64
26.1753,1.64
26.1763,1.641
26.1763,1.639
26.1763,1.636
26.1763,1.639
26.1763,1.638
26.1763,1.638
26.1773,1.638
26.1773,1.639
26.1773,1.64
26.1773,1.638
26.1773,1.645
26.1773,1.642
26.1773,1.641
26.1782,1.64
26.1782,1.638
26.1782,1.639
26.1782,1.637
26.1782,1.645
26.1782,1.639
26.1782,1.637
26.1793,1.638
26.1793,1.637
26.1793,1.639
26.1793,1.64
26.1793,1.64
26.1793,1.638
26.1793,1.64
26.1803,1.64
26.1803,1.64
26.1803,1.64
26.1803,1.641
26.1803,1.637
26.1803,1.639
26.1803,1.638
26.1803,1.638
26.1813,1.637
26.1813,1.639
26.1813,1.638
26.1813,1.639
26.1813,1.646
26.1813,1.64
26.1813,1.639
26.1823,1.641
26.1823,1.637
26.1823,1.639
26.1823,1.639
26.1823,1.637
26.1823,1.637
26.1823,1.637
26.1833,1.638
26.1833,1.638
26.1833,1.639
26.1833,1.638
26.1833,1.639
26.1833,1.637
26.1842,1.639
26.1842,1.639
26.1842,1.638
26.1842,1.639
26.1842,1.638
26.1842,1.636
26.1842,1.643
26.1852,1.637
26.1852,1.637
26.1852,1.637
26.1852,1.637
26.1852,1.638
26.1852,1.64
26.1862,1.64
26.1872,1.638
26.1872,1.638
26.1872,1.639
26.1872,1.638
26.1883,1.637
26.1883,1.639
26.1883,1.638
26.1883,1.635
26.1883,1.636
26.1883,1.636
26.1883,1.636
26.1893,1.638
26.1893,1.638
26.1893,1.637
26.1893,1.637
26.1893,1.639
26.1893,1.638
26.1893,1.638
26.1893,1.637
26.1902,1.637
26.1902,1.634
26.1902,1.641
26.1902,1.636
26.1902,1.636
26.1902,1.635
26.1902,1.637
26.1912,1.636
26.1912,1.637
26.1912,1.644
26.1912,1.637
26.1912,1.637
26.1912,1.638
26.1912,1.636
26.1922,1.636
26.1922,1.638
26.1922,1.639
26.1922,1.637
26.1922,1.635
26.1922,1.636
26.1932,1.636
26.1932,1.636
26.1932,1.637
26.1932,1.636
26.1932,1.636
26.1932,1.639
26.1932,1.638
26.1942,1.637
26.1942,1.636
26.1952,1.638
26.1952,1.636
26.1952,1.637
26.1952,1.637
26.1952,1.635
26.1952,1.635
26.1952,1.636
26.1962,1.638
26.1962,1.636
26.1962,1.642
26.1962,1.641
26.1962,1.637
26.1962,1.637
26.1962,1.636
26.1972,1.635
26.1972,1.635
26.1972,1.642
26.1972,1.636
26.1972,1.634
26.1982,1.634
26.1982,1.636
26.1982,1.636
26.1982,1.636
26.1982,1.639
26.1982,1.635
26.1982,1.637
26.1982,1.637
26.1992,1.636
26.1992,1.635
26.1992,1.638
26.1992,1.637
26.1992,1.632
26.1992,1.635
26.2002,1.635
26.2002,1.635
26.2002,1.635
26.2002,1.637
26.2002,1.636
26.2012,1.636
26.2012,1.643
26.2012,1.637
26.2012,1.637
26.2012,1.636
26.2012,1.635
26.2012,1.634
26.2012,1.636
26.2022,1.641
26.2022,1.634
26.2022,1.634
26.2022,1.636
26.2022,1.636
26.2022,1.635
26.2022,1.638
26.2032,1.639
26.2032,1.637
26.2032,1.638
26.2032,1.637
26.2032,1.635
26.2032,1.634
26.2032,1.636
26.2042,1.634
26.2042,1.635
26.2042,1.633
26.2042,1.634
26.2042,1.635
26.2042,1.636
26.2042,1.636
26.2042,1.635
26.2052,1.64
26.2052,1.637
26.2052,1.636
26.2052,1.636
26.2052,1.637
26.2052,1.633
26.2052,1.633
26.2062,1.637
26.2062,1.635
26.2062,1.634
26.2062,1.635
26.2062,1.634
26.2062,1.634
26.2062,1.637
26.2062,1.634
26.2072,1.636
26.2072,1.636
26.2072,1.636
26.2072,1.635
26.2072,1.637
26.2082,1.636
26.2082,1.632
26.2082,1.636
26.2082,1.633
26.2082,1.635
26.2082,1.635
26.2092,1.635
26.2092,1.636
26.2092,1.635
26.2092,1.639
26.2092,1.636
26.2092,1.636
26.2092,1.635
26.2102,1.634
26.2102,1.634
26.2102,1.637
26.2102,1.64
26.2102,1.633
26.2102,1.635
26.2102,1.636
26.2112,1.635
26.2112,1.636
26.2112,1.636
26.2112,1.637
26.2112,1.635
26.2112,1.636
26.2112,1.635
26.2112,1.635
26.2122,1.636
26.2122,1.636
26.2122,1.634
26.2122,1.631
26.2122,1.634
26.2122,1.634
26.2122,1.633
26.2131,1.635
26.2131,1.634
26.2131,1.635
26.2131,1.638
26.2131,1.636
26.2131,1.635
26.2131,1.635
26.2141,1.636
26.2141,1.633
26.2141,1.633
26.2141,1.638
26.2141,1.633
26.2141,1.634
26.2141,1.633
26.2151,1.634
26.2151,1.634
26.2151,1.635
26.2171,1.641
26.2171,1.634
26.2171,1.635
26.2171,1.635
26.2171,1.635
26.2171,1.634
26.2181,1.635
26.2181,1.633
26.2181,1.633
26.2181,1.633
26.2181,1.633
26.2181,1.633
26.2181,1.635
26.2191,1.634
26.2191,1.636
26.2191,1.633
26.2191,1.635
26.2191,1.635
26.2191,1.635
26.2191,1.636
26.2201,1.635
26.2201,1.632
26.2201,1.632
26.2201,1.637
26.2201,1.633
26.2201,1.634
26.2201,1.634
26.2201,1.635
26.2211,1.635
26.2211,1.639
26.2211,1.634
26.2211,1.635
26.2211,1.634
26.2211,1.634
26.2211,1.633
26.2221,1.635
26.2221,1.633
26.2221,1.631
26.2221,1.633
26.2221,1.633
26.2221,1.634
26.2221,1.634
26.2231,1.634
26.2231,1.634
26.2231,1.638
26.2231,1.637
26.2231,1.635
26.2231,1.634
26.2231,1.634
26.2241,1.633
26.2241,1.633
26.2241,1.636
26.2241,1.632
26.2241,1.633
26.2241,1.633
26.2251,1.633
26.2251,1.635
26.2251,1.635
26.2251,1.633
26.2251,1.635
26.2251,1.635
26.2251,1.634
26.2261,1.634
26.2261,1.634
26.2261,1.633
26.2261,1.635
26.2261,1.633
26.2261,1.632
26.2261,1.633
26.2261,1.633
26.2271,1.632
26.2271,1.635
26.2271,1.634
26.2271,1.634
26.2271,1.634
26.2271,1.635
26.2281,1.634
26.2281,1.635
26.2281,1.633
26.2281,1.632
26.2281,1.638
26.2281,1.636
26.2281,1.633
26.2291,1.633
26.2291,1.633
26.2291,1.634
26.2291,1.634
26.2291,1.639
26.2291,1.634
26.2291,1.635
26.2301,1.634
26.2301,1.634
26.2301,1.634
26.2301,1.633
26.2301,1.631
26.2301,1.633
26.2301,1.633
26.2311,1.632
26.2311,1.632
26.2311,1.633
26.2311,1.633
26.2311,1.632
26.2311,1.639
26.2321,1.636
26.2321,1.634
26.2321,1.634
26.2321,1.633
26.2321,1.634
26.2321,1.633
26.2321,1.632
26.2321,1.633
26.2331,1.631
26.2331,1.633
26.2331,1.633
26.2331,1.634
26.8366,1.632
26.8386,1.638
26.8386,1.633
26.8386,1.634
26.8386,1.633
26.8386,1.634
26.8396,1.63
26.8396,1.632
26.8396,1.637
26.8396,1.632
26.8396,1.632
26.8396,1.632
26.8396,1.634
26.8406,1.633
26.8406,1.637
26.8406,1.634
26.8406,1.634
26.8406,1.634
26.8406,1.634
26.8406,1.633
26.8406,1.632
26.8416,1.634
26.8416,1.634
26.8416,1.632
26.8416,1.631
26.8416,1.632
26.8416,1.632
26.8426,1.633
26.8426,1.634
26.8426,1.633
26.8426,1.635
26.8426,1.634
26.8426,1.634
26.8426,1.633
26.8435,1.634
26.8435,1.632
26.8435,1.628
26.8435,1.635
26.8435,1.634
26.8435,1.631
26.8435,1.631
26.8445,1.632
26.8445,1.634
26.8445,1.636
26.8445,1.638
26.8445,1.635
26.8445,1.634
26.8445,1.634
26.8455,1.633
26.8455,1.632
26.8455,1.634
26.8455,1.632
26.8455,1.631
26.8455,1.631
26.8455,1.631
26.8465,1.633
26.8465,1.632
26.8465,1.634
26.8465,1.634
26.8465,1.633
26.8465,1.634
26.8465,1.635
26.8465,1.634
26.8475,1.632
26.8475,1.633
26.8475,1.633
26.8475,1.629
26.8475,1.633
26.8475,1.632
26.8485,1.631
26.8485,1.633
26.8485,1.632
26.8485,1.634
26.8485,1.638
26.8485,1.635
26.8485,1.633
26.8495,1.634
26.8495,1.632
26.8495,1.63
26.8495,1.633
26.8495,1.632
26.8495,1.63
26.8505,1.632
26.8505,1.631
26.8505,1.632
26.8505,1.632
26.8505,1.634
26.8505,1.631
26.8505,1.637
26.8515,1.633
26.8515,1.633
26.8515,1.633
26.8515,1.633
26.8515,1.631
26.8515,1.628
26.8515,1.634
26.8515,1.632
26.8525,1.632
26.8525,1.631
26.8525,1.632
26.8525,1.632
26.8525,1.633
26.8525,1.638
26.8525,1.632
26.8535,1.632
26.8535,1.634
26.8535,1.632
26.8535,1.63
26.8535,1.633
26.8535,1.634
26.8535,1.63
26.8545,1.631
26.8545,1.631
26.8545,1.632
26.8545,1.632
26.8545,1.634
26.8545,1.633
26.8545,1.633
26.8555,1.633
26.8555,1.633
26.8555,1.633
26.8555,1.633
26.8555,1.633
26.8555,1.632
26.8555,1.631
26.8555,1.632
26.8565,1.631
26.8565,1.631
26.8565,1.632
26.8565,1.633
26.8565,1.633
26.8565,1.631
26.8565,1.637
26.8575,1.633
26.8575,1.633
26.8575,1.633
26.8575,1.633
26.8575,1.631
26.8575,1.629
26.8585,1.633
26.8585,1.635
26.8585,1.63
26.8585,1.632
26.8585,1.632
26.8585,1.632
26.8595,1.631
26.8595,1.637
26.8595,1.633
26.8595,1.633
26.8595,1.634
26.8595,1.631
26.8595,1.63
26.8605,1.631
26.8605,1.629
26.8605,1.631
26.8605,1.63
26.8605,1.631
26.8605,1.632
26.8605,1.631
26.8615,1.632
26.8615,1.633
26.8615,1.631
26.8615,1.634
26.8615,1.633
26.8615,1.632
26.8615,1.633
26.8615,1.632
26.8625,1.629
26.8625,1.632
26.8625,1.633
26.8625,1.631
26.8625,1.631
26.8625,1.632
26.8625,1.632
26.8635,1.631
26.8635,1.64
26.8635,1.632
26.8635,1.633
26.8635,1.634
26.8635,1.632
26.8635,1.631
26.8645,1.631
26.8645,1.635
26.8645,1.63
26.8645,1.63
26.8645,1.631
26.8645,1.631
26.8645,1.631
26.8645,1.631
26.8655,1.634
26.8655,1.632
26.8655,1.632
26.8655,1.633
26.8655,1.632
26.8655,1.632
26.8655,1.632
26.8665,1.63
26.8665,1.63
26.8665,1.634
26.8665,1.631
26.8665,1.63
26.8675,1.631
26.8675,1.631
26.8675,1.631
26.8675,1.635
26.8675,1.637
26.8675,1.632
26.8675,1.631
26.8685,1.632
26.8685,1.631
26.8685,1.629
26.8685,1.633
26.8685,1.632
26.8685,1.63
26.8685,1.631
26.8695,1.631
26.8695,1.631
26.8695,1.631
26.8695,1.631
26.8695,1.63
26.8695,1.633
26.8695,1.632
26.8705,1.632
26.8705,1.631
26.8705,1.632
26.8705,1.629
26.8705,1.63
26.8705,1.633
26.8705,1.63
26.8705,1.63
26.8715,1.631
26.8715,1.632
26.8715,1.631
26.8715,1.636
26.8715,1.631
26.8715,1.632
26.8715,1.633
26.8725,1.631
26.8725,1.632
26.8725,1.633
26.8725,1.631
26.8725,1.633
26.8725,1.63
26.8735,1.629
26.8735,1.63
26.8735,1.631
26.8735,1.631
26.8735,1.633
26.8735,1.638
26.8735,1.633
26.8735,1.632
26.8745,1.632
26.8745,1.632
26.8745,1.631
26.8745,1.633
26.8745,1.63
26.8745,1.63
26.8755,1.629
26.8755,1.63
26.8755,1.63
26.8755,1.631
26.8755,1.632
26.8755,1.631
26.8755,1.632
26.8765,1.633
26.8765,1.632
26.8765,1.631
26.8765,1.632
26.8765,1.632
26.8765,1.628
26.8765,1.637
26.8765,1.63
26.8775,1.63
26.8775,1.63
26.8775,1.63
26.8775,1.63
26.8775,1.635
26.8775,1.635
26.8775,1.631
26.8785,1.632
26.8785,1.633
26.8785,1.631
26.8785,1.631
26.8785,1.632
26.8785,1.63
26.8785,1.63
26.8795,1.629
26.8795,1.629
26.8795,1.629
26.8795,1.631
26.8795,1.632
26.8795,1.632
26.8795,1.63
26.8805,1.633
26.8805,1.631
26.8805,1.63
26.8805,1.631
26.8805,1.631
26.8805,1.628
26.8805,1.635
26.8814,1.63
26.8814,1.629
26.8814,1.629
26.8814,1.63
26.8814,1.63
26.8814,1.633
26.8814,1.634
26.8814,1.628
26.8824,1.63
26.8824,1.631
26.8824,1.63
26.8824,1.632
26.8824,1.63
26.8824,1.63
26.8834,1.628
26.8834,1.63
26.8834,1.63
26.8834,1.63
26.8834,1.631
26.8834,1.63
26.8834,1.63
26.8844,1.633
26.8844,1.629
26.8844,1.631
26.8844,1.63
26.8844,1.63
26.8844,1.631
26.8844,1.628
26.8854,1.63
26.8854,1.628
26.8854,1.628
26.8854,1.629
26.8854,1.63
26.8854,1.629
26.8854,1.632
26.8864,1.629
26.8864,1.631
26.8864,1.631
26.8864,1.63
26.8864,1.63
26.8864,1.632
26.8864,1.631
26.8864,1.628
26.8874,1.628
26.8874,1.63
26.8874,1.628
26.8874,1.629
26.8874,1.63
26.8884,1.629
26.8884,1.63
26.8884,1.629
26.8884,1.631
26.8884,1.631
26.8884,1.631
26.8884,1.63
26.8894,1.628
26.8894,1.629
26.8894,1.63
26.8894,1.629
26.8894,1.629
26.8894,1.63
26.8894,1.63
26.8894,1.629
26.8904,1.632
26.8904,1.63
26.8904,1.63
26.8904,1.631
26.8904,1.631
26.8904,1.63
26.8914,1.63
26.8914,1.631
26.8914,1.627
26.8914,1.629
26.8914,1.627
26.8914,1.629
26.8914,1.628
26.8924,1.63
26.8924,1.631
26.8924,1.63
26.8924,1.63
26.8924,1.631
26.8924,1.63
26.8924,1.631
26.8924,1.631
26.8934,1.63
26.8934,1.629
26.8934,1.634
26.8934,1.629
26.8934,1.629
26.8934,1.628
26.8934,1.629
26.8944,1.629
26.8944,1.631
26.8944,1.636
26.8944,1.629
26.8944,1.63
26.8944,1.631
26.8944,1.629
26.8954,1.628
26.8954,1.63
26.8954,1.631
26.8954,1.627
26.8954,1.627
26.8954,1.628
26.8954,1.629
26.8964,1.628
26.8964,1.629
26.8964,1.63
26.8964,1.628
26.8964,1.631
26.8964,1.63
26.8964,1.63
26.8964,1.629
26.8974,1.631
26.8974,1.629
26.8974,1.626
26.8974,1.63
26.8974,1.628
26.8974,1.628
26.8984,1.628
26.8984,1.629
26.8984,1.629
26.8984,1.629
26.8984,1.635
26.8984,1.632
26.8984,1.63
26.8994,1.63
26.8994,1.628
26.8994,1.627
26.8994,1.629
26.8994,1.634
26.8994,1.628
26.8994,1.627
26.9004,1.629
26.9004,1.629
26.9004,1.628
26.9004,1.629
26.9004,1.636
26.9004,1.629
26.9004,1.63
26.9014,1.63
26.9014,1.628
26.9014,1.627
26.9014,1.63
26.9014,1.626
26.9014,1.626
26.9014,1.628
26.9024,1.628
26.9024,1.627
26.9024,1.629
26.9024,1.629
26.9024,1.628
26.9024,1.629
26.9024,1.63
26.9034,1.63
26.9034,1.629
26.9034,1.63
26.9034,1.63
26.9034,1.629
26.9034,1.629
26.9034,1.63
26.9034,1.628
26.9044,1.628
26.9044,1.629
26.9044,1.628
26.9044,1.628
26.9044,1.634
26.9044,1.631
26.9044,1.63
26.9054,1.63
26.9054,1.629
26.9054,1.628
26.9054,1.63
26.9054,1.631
26.9054,1.626
26.9054,1.626
26.9064,1.628
26.9084,1.628
26.9094,1.628
26.9134,1.63
26.9183,1.63
26.9193,1.629
26.9213,1.629
26.9213,1.63
26.9213,1.628
26.9213,1.628
26.9223,1.631
26.9223,1.629
26.9223,1.628
26.9223,1.627
26.9223,1.628
26.9223,1.629
26.9223,1.629
26.9233,1.629
26.9233,1.632
27.5199,1.63
27.5199,1.629
27.5199,1.629
27.5199,1.629
27.5199,1.629
27.5210,1.625
27.5210,1.63
27.5210,1.633
27.5210,1.627
27.5210,1.627
27.5210,1.629
27.5210,1.628
27.5210,1.628
27.5220,1.632
27.5220,1.635
27.5220,1.629
27.5220,1.631
27.5220,1.628
27.5220,1.628
27.5220,1.627
27.5229,1.627
27.5229,1.628
27.5229,1.628
27.5229,1.627
27.5229,1.628
27.5229,1.627
27.5229,1.628
27.5240,1.633
27.5240,1.631
27.5240,1.628
27.5240,1.628
27.5240,1.629
27.5240,1.629
27.5249,1.628
27.5249,1.63
27.5249,1.63
27.5259,1.628
27.5259,1.627
27.5259,1.628
27.5270,1.628
27.5270,1.627
27.5270,1.63
27.5270,1.629
27.5270,1.629
27.5270,1.629
27.5270,1.63
27.5280,1.628
27.5280,1.627
27.5280,1.63
27.5280,1.628
27.5280,1.625
27.5280,1.627
27.5290,1.626
27.5290,1.627
27.5290,1.627
27.5290,1.628
27.5290,1.626
27.5290,1.634
27.5290,1.631
27.5300,1.628
27.5300,1.629
27.5300,1.628
27.5300,1.626
27.5300,1.628
27.5300,1.628
27.5300,1.626
27.5310,1.627
27.5310,1.626
27.5310,1.627
27.5310,1.629
27.5310,1.628
27.5310,1.629
27.5310,1.633
27.5310,1.628
27.5320,1.629
27.5320,1.629
27.5320,1.627
27.5320,1.627
27.5320,1.626
27.5320,1.632
27.5330,1.628
27.5330,1.626
27.5330,1.628
27.5330,1.628
27.5330,1.629
27.5340,1.627
27.5340,1.633
27.5340,1.629
27.5340,1.629
27.5340,1.629
27.5340,1.629
27.5340,1.625
27.5340,1.626
27.5349,1.629
27.5349,1.632
27.5349,1.627
27.5349,1.625
27.5349,1.628
27.5349,1.626
27.5349,1.627
27.5359,1.628
27.5359,1.634
27.5359,1.627
27.5359,1.628
27.5359,1.628
27.5359,1.627
27.5359,1.626
27.5369,1.627
27.5369,1.63
27.5369,1.626
27.5369,1.625
27.5369,1.626
27.5369,1.625
27.5369,1.627
27.5379,1.627
27.5379,1.634
27.5379,1.63
27.5379,1.628
27.5379,1.628
27.5379,1.628
27.5379,1.627
27.5389,1.627
27.5389,1.632
27.5389,1.628
27.5389,1.627
27.5389,1.626
27.5389,1.626
27.5389,1.627
27.5399,1.626
27.5399,1.629
27.5399,1.634
27.5399,1.627
27.5399,1.628
27.5399,1.629
27.5399,1.628
27.5409,1.627
27.5409,1.629
27.5409,1.627
27.5409,1.622
27.5409,1.627
27.5409,1.625
27.5409,1.627
27.5409,1.628
27.5419,1.627
27.5419,1.627
27.5419,1.632
27.5419,1.629
27.5419,1.628
27.5419,1.628
27.5419,1.627
27.5429,1.625
27.5429,1.632
27.5429,1.624
27.5429,1.626
27.5429,1.625
27.5429,1.625
27.5429,1.625
27.5429,1.627
27.5439,1.626
27.5439,1.625
27.5439,1.629
27.5439,1.628
27.5439,1.628
27.5439,1.628
27.5449,1.627
27.5449,1.626
27.5449,1.627
27.5449,1.633
27.5449,1.624
27.5449,1.626
27.5449,1.627
27.5459,1.627
27.5459,1.626
27.5459,1.628
27.5459,1.626
27.5459,1.627
27.5459,1.628
27.5469,1.628
27.5469,1.627
27.5469,1.63
27.5469,1.627
27.5469,1.629
27.5469,1.627
27.5469,1.625
27.5479,1.626
27.5479,1.626
27.5479,1.627
27.5479,1.627
27.5479,1.633
27.5479,1.629
27.5479,1.628
27.5489,1.628
27.5489,1.628
27.5489,1.628
27.5489,1.628
27.5489,1.628
27.5499,1.625
27.5499,1.627
27.5499,1.626
27.5499,1.627
27.5499,1.627
27.5499,1.628
27.5509,1.628
27.5509,1.629
27.5509,1.628
27.5509,1.628
27.5509,1.628
27.5509,1.627
27.5509,1.626
27.5519,1.626
27.5519,1.631
27.5519,1.629
27.5519,1.626
27.5519,1.626
27.5519,1.628
27.5519,1.627
27.5519,1.628
27.5529,1.633
27.5529,1.631
27.5529,1.628
27.5529,1.629
27.5529,1.629
27.5529,1.628
27.5529,1.629
27.5539,1.631
27.5539,1.625
27.5539,1.627
27.5539,1.627
27.5539,1.626
27.5539,1.627
27.5549,1.627
27.5549,1.628
27.5549,1.629
27.5549,1.629
27.5549,1.63
27.5549,1.629
27.5549,1.628
27.5549,1.628
27.5559,1.63
27.5559,1.625
27.5559,1.625
27.5559,1.627
27.5559,1.627
27.5559,1.627
27.5559,1.627
27.5569,1.628
27.5569,1.629
27.5589,1.626
27.5628,1.629
27.5638,1.631
27.5668,1.628
27.5688,1.628
27.5698,1.63
27.5718,1.627
27.5718,1.624
27.5718,1.629
27.5718,1.628
27.5718,1.628
27.5728,1.627
27.5728,1.63
27.5728,1.628
27.5728,1.628
27.5728,1.629
27.5728,1.631
27.5728,1.629
27.5738,1.628
27.5738,1.629
27.5738,1.63
27.5738,1.623
27.5738,1.629
27.5738,1.628
27.5738,1.627
27.5748,1.627
27.5748,1.628
27.5748,1.628
27.5748,1.631
27.5748,1.633
27.5748,1.631
27.5748,1.629
27.5748,1.629
27.5758,1.628
27.5758,1.626
27.5758,1.627
27.5758,1.632
27.5758,1.63
27.5758,1.626
27.5768,1.628
27.5768,1.629
27.5768,1.629
27.5768,1.628
27.5768,1.63
27.5768,1.628
27.5768,1.629
27.5778,1.629
27.5778,1.63
27.5778,1.627
27.5778,1.627
27.5778,1.633
27.5778,1.629
27.5778,1.628
27.5788,1.628
27.5788,1.629
27.5788,1.629
27.5788,1.63
27.5788,1.634
27.5788,1.631
27.5788,1.629
27.5798,1.631
27.5798,1.629
27.5798,1.628
27.5798,1.628
27.5798,1.629
27.5798,1.632
27.5798,1.629
27.5808,1.628
27.5808,1.628
27.5808,1.628
27.5808,1.628
27.5808,1.63
27.5808,1.629
27.5808,1.631
27.5808,1.63
27.5818,1.631
27.5818,1.631
27.5818,1.63
27.5818,1.631
27.5818,1.63
27.5818,1.625
27.5818,1.628
27.5828,1.628
27.5828,1.628
27.5828,1.629
27.5828,1.63
27.5838,1.632
27.5838,1.631
27.5838,1.631
27.5838,1.631
27.5838,1.629
27.5848,1.63
27.5848,1.63
27.5848,1.63
27.5848,1.629
27.5848,1.624
27.5848,1.629
27.5848,1.628
27.5858,1.628
27.5858,1.629
27.5858,1.631
27.5858,1.628
27.5858,1.631
27.5858,1.632
27.5858,1.631
27.5858,1.63
27.5868,1.631
27.5868,1.628
27.5868,1.629
27.5868,1.63
27.5868,1.629
27.5868,1.628
27.5868,1.628
27.5878,1.63
27.5878,1.629
27.5878,1.631
27.5878,1.634
27.5878,1.631
27.5878,1.63
27.5878,1.631
27.5888,1.629
27.5888,1.629
27.5888,1.631
27.5888,1.632
27.5888,1.629
27.5888,1.629
27.5888,1.629
27.5888,1.629
27.5898,1.631
27.5898,1.631
27.5898,1.634
27.5898,1.635
27.5898,1.631
27.5898,1.631
27.5898,1.631
27.5908,1.63
27.5908,1.63
27.5908,1.634
27.5908,1.632
27.5908,1.628
27.5908,1.63
27.5908,1.629
27.5918,1.629
27.5918,1.63
27.5918,1.632
27.5918,1.631
27.5918,1.63
27.5918,1.632
27.5918,1.631
27.5928,1.631
27.5928,1.631
27.5928,1.63
27.5928,1.63
27.5928,1.629
27.5928,1.629
27.5928,1.63
27.5938,1.63
27.5938,1.631
27.5938,1.631
27.5938,1.632
27.5938,1.635
27.5938,1.631
27.5938,1.632
27.5948,1.632
27.5948,1.631
27.5948,1.631
27.5948,1.632
27.5948,1.629
27.5948,1.63
27.5948,1.629
27.5958,1.63
27.5958,1.631
27.5958,1.632
27.5958,1.631
27.5958,1.631
27.5958,1.63
27.5958,1.632
27.5958,1.631
27.5968,1.63
27.5968,1.632
27.5968,1.631
27.5968,1.629
27.5968,1.632
27.5968,1.629
27.5968,1.629
27.5978,1.631
27.5978,1.631
27.5978,1.63
27.5978,1.635
27.5978,1.633
27.5978,1.631
27.5978,1.632
27.5988,1.632
27.5988,1.631
27.5988,1.632
27.5988,1.632
27.5988,1.63
27.5988,1.63
27.5988,1.629
27.5997,1.631
27.5997,1.631
27.5997,1.633
27.5997,1.63
27.5997,1.634
27.6008,1.638
27.6008,1.632
27.6008,1.632
27.6008,1.632
27.6008,1.633
27.6008,1.63
27.6008,1.63
27.6018,1.633
27.6018,1.63
27.6018,1.629
27.6018,1.631
27.6018,1.631
27.6018,1.631
27.6018,1.638
27.6028,1.63
27.6028,1.632
27.6028,1.631
27.6028,1.633
27.6028,1.63
27.6028,1.632
27.6028,1.632
27.6028,1.628
27.6038,1.631
27.6038,1.631
27.6038,1.631
27.6038,1.633
27.6038,1.632
27.6038,1.632
27.6038,1.63
27.6048,1.634
27.6048,1.632
27.6048,1.633
27.6048,1.632
27.6048,1.631
27.6048,1.629
27.6048,1.631
27.6048,1.631
27.6058,1.631
27.6058,1.631
27.6058,1.632
27.6058,1.632
27.6058,1.637
27.6058,1.632
27.6058,1.631
27.6068,1.633
28.4295,1.632
28.4295,1.631
28.4295,1.633
28.4305,1.63
28.4305,1.629
28.4305,1.629
28.4335,1.63
28.4345,1.631
28.4355,1.632
28.4355,1.631
28.4355,1.632
28.4365,1.637
28.4365,1.634
28.4365,1.632
28.4375,1.632
28.4445,1.631
28.4475,1.631
28.4535,1.633
28.4535,1.635
28.4535,1.629
28.4535,1.63
28.4535,1.63
28.4545,1.631
28.4545,1.631
28.4545,1.633
28.4545,1.634
28.4554,1.632
28.4554,1.632
28.4554,1.634
28.4554,1.632
28.4564,1.631
28.4564,1.632
28.4564,1.632
28.4564,1.63
28.4574,1.628
28.4574,1.63
28.4574,1.63
28.4584,1.632
28.4584,1.631
28.4594,1.633
28.4624,1.635
28.4624,1.632
28.4624,1.632
28.4634,1.633
28.4634,1.632
28.4634,1.631
28.4634,1.635
28.4644,1.635
28.4644,1.631
28.4644,1.631
28.4654,1.632
28.4654,1.631
28.4654,1.631
28.4654,1.634
28.4664,1.633
28.4674,1.634
28.4674,1.633
28.4674,1.633
28.4684,1.632
28.4684,1.631
28.4684,1.632
28.4694,1.632
28.4694,1.63
28.4694,1.629
28.4694,1.631
28.4704,1.63
28.4704,1.631
28.4704,1.633
28.4704,1.632
28.4714,1.633
28.4714,1.634
28.4714,1.633
28.4724,1.633
28.4724,1.632
28.4724,1.633
28.4724,1.629
28.4734,1.629
28.4734,1.635
28.4734,1.631
28.4734,1.631
28.4744,1.631
28.4744,1.631
28.4744,1.633
28.4744,1.634
28.4744,1.639
28.4754,1.632
28.4754,1.634
28.4754,1.632
28.4754,1.632
28.4764,1.631
28.4764,1.633
28.4764,1.638
28.4764,1.63
28.4774,1.631
28.4774,1.631
28.4774,1.632
28.4774,1.632
28.4784,1.632
28.4784,1.637
28.4784,1.633
28.4784,1.633
28.4784,1.634
28.4794,1.633
28.4794,1.631
28.4794,1.632
28.4794,1.63
28.4804,1.632
28.4804,1.631
28.4804,1.631
28.4804,1.632
28.4814,1.631
28.4814,1.632
28.4814,1.633
28.4814,1.63
28.4814,1.635
28.4824,1.634
28.4824,1.633
28.4824,1.632
28.4834,1.631
28.4834,1.63
28.4844,1.633
28.4844,1.634
28.4844,1.632
28.4854,1.632
28.4854,1.632
28.4864,1.632
28.4864,1.633
28.4864,1.635
28.4874,1.635
28.4874,1.634
28.4874,1.634
28.4874,1.633
28.4884,1.632
28.4884,1.634
28.4884,1.634
28.4884,1.632
28.4884,1.632
28.4894,1.631
28.4894,1.632
28.4894,1.632
28.4894,1.633
28.4904,1.631
28.4904,1.639
28.4904,1.635
28.4904,1.634
28.4914,1.634
28.4914,1.635
28.4914,1.63
28.4914,1.635
28.4924,1.637
28.4924,1.631
28.4924,1.631
28.4933,1.632
28.4933,1.632
28.4933,1.632
28.4933,1.633
28.4943,1.633
28.4943,1.633
28.4943,1.634
28.4943,1.634
28.4953,1.634
28.4953,1.634
28.4953,1.635
28.4953,1.633
28.4963,1.634
28.4963,1.633
28.4963,1.632
28.4963,1.632
28.4973,1.633
28.4973,1.634
28.4973,1.637
28.4973,1.637
28.4983,1.634
28.4983,1.635
28.4983,1.635
28.4983,1.635
28.4993,1.632
28.5003,1.634
28.5003,1.633
28.5013,1.634
28.5013,1.631
28.5013,1.633
28.5023,1.633
28.5023,1.634
28.5033,1.634
28.5033,1.635
28.5043,1.634
28.5043,1.634
28.5043,1.634
28.5053,1.634
28.5053,1.634
28.5053,1.635
28.5053,1.634
28.5063,1.63
28.5063,1.633
28.5063,1.632
28.5063,1.633
28.5063,1.634
28.5073,1.633
28.5073,1.634
28.5073,1.638
28.5083,1.634
28.5083,1.635
28.5083,1.634
28.5083,1.635
28.5093,1.634
28.5093,1.634
28.5093,1.633
28.5093,1.632
28.5093,1.633
28.5103,1.633
28.5103,1.633
28.5103,1.635
28.5113,1.635
28.5113,1.635
28.5113,1.633
28.5113,1.639
28.5113,1.635
28.5123,1.635
28.5123,1.634
28.5123,1.633
28.5123,1.632
28.5133,1.639
28.5133,1.633
28.5133,1.634
28.5133,1.633
28.5143,1.633
28.5143,1.634
28.5143,1.635
28.5153,1.634
28.5153,1.635
28.5153,1.636
28.5153,1.636
28.5163,1.635
28.5163,1.635
28.5173,1.634
28.5173,1.635
28.5183,1.631
28.5183,1.634
28.5183,1.633
28.5193,1.633
28.5193,1.635
28.5193,1.634
28.5203,1.633
28.5203,1.635
28.5213,1.638
28.5213,1.634
28.5213,1.635
28.5223,1.635
28.5223,1.634
28.5223,1.634
28.5223,1.639
28.5233,1.633
28.5233,1.634
28.5233,1.633
28.5243,1.634
28.5243,1.634
28.5243,1.636
28.5243,1.635
28.5243,1.635
28.5253,1.636
28.5253,1.636
28.5253,1.635
28.5253,1.636
28.5263,1.634
28.5263,1.632
28.5263,1.635
28.5263,1.635
28.5273,1.633
28.5273,1.634
28.5273,1.635
28.5283,1.634
28.5283,1.637
28.5283,1.637
28.5293,1.635
28.5293,1.637
28.5562,1.635
28.5602,1.635
28.5602,1.637
28.5602,1.635
28.5612,1.634
28.5612,1.635
28.5612,1.634
28.5622,1.633
28.5622,1.634
28.5632,1.635
28.5662,1.634
28.5672,1.637
28.5672,1.635
28.5672,1.635
28.5672,1.636
28.5681,1.636
28.5681,1.634
28.5691,1.635
28.5691,1.636
28.5691,1.633
28.5701,1.636
28.5701,1.635
28.5701,1.635
28.5711,1.635
28.5711,1.636
28.5711,1.634
28.5711,1.642
28.5721,1.639
28.5721,1.636
28.5721,1.636
28.5731,1.635
28.5731,1.634
28.5731,1.637
28.5731,1.635
28.5731,1.633
28.5741,1.634
28.5741,1.635
28.5741,1.635
28.5741,1.635
28.5751,1.637
28.5751,1.637
28.5751,1.637
28.5761,1.637
28.5761,1.637
28.5761,1.636
28.5771,1.637
28.5771,1.637
28.5781,1.63
28.5781,1.636
28.5781,1.639
28.5791,1.635
28.5791,1.635
28.5791,1.635
28.5791,1.635
28.5801,1.637
28.5801,1.638
28.5801,1.637
28.5811,1.637
28.5811,1.636
28.5811,1.636
28.5811,1.636
28.5821,1.637
28.5821,1.636
28.5821,1.637
28.5821,1.635
28.5831,1.636
28.5831,1.636
28.5831,1.636
28.5841,1.636
28.5841,1.638
28.5841,1.641
28.5851,1.637
28.5851,1.637
28.5851,1.638
28.5861,1.634
28.5861,1.634
28.5861,1.637
28.5881,1.637
28.5881,1.633
28.5881,1.635
28.5881,1.636
28.5891,1.636
28.5891,1.637
28.5891,1.637
28.5891,1.637
28.5901,1.636
28.5901,1.638
28.5901,1.637
28.5901,1.638
28.5901,1.637
28.5911,1.635
28.5911,1.636
28.5911,1.637
28.5911,1.635
28.5921,1.635
28.5921,1.635
28.5921,1.637
28.5921,1.636
28.5921,1.637
28.5931,1.637
28.5931,1.637
28.5931,1.637
28.5931,1.637
28.5931,1.638
28.5941,1.637
28.5941,1.634
28.5941,1.636
28.5941,1.64
28.5951,1.635
28.5951,1.636
28.5951,1.637
28.5951,1.636
28.5961,1.637
28.5961,1.638
28.5961,1.637
28.5961,1.639
28.5961,1.638
28.5971,1.637
28.5971,1.637
28.5971,1.638
28.5971,1.636
28.5981,1.639
28.5981,1.637
28.5981,1.635
28.5981,1.637
28.5991,1.637
28.5991,1.637
28.5991,1.639
28.5991,1.636
28.6001,1.636
28.6001,1.638
28.6001,1.639
28.6011,1.639
28.6021,1.638
28.6021,1.635
28.6021,1.634
28.6031,1.641
28.6031,1.636
28.6031,1.637
28.6031,1.637
28.6041,1.637
28.6041,1.637
28.6041,1.641
28.6041,1.638
28.6041,1.639
28.6050,1.639
28.6050,1.638
28.6050,1.637
28.6050,1.637
28.6060,1.638
28.6060,1.636
28.6060,1.638
28.6060,1.637
28.6070,1.638
28.6070,1.637
28.6070,1.637
28.6070,1.634
28.6070,1.644
28.6080,1.64
28.6080,1.638
28.6080,1.638
28.6080,1.638
28.6090,1.636
28.6090,1.64
28.6090,1.642
28.6090,1.637
28.6090,1.636
28.6100,1.638
28.6100,1.638
28.6100,1.636
28.6100,1.639
28.6110,1.638
28.6110,1.64
28.6110,1.639
28.6110,1.64
28.6110,1.639
28.6120,1.638
28.6120,1.64
28.6120,1.634
28.6120,1.638
28.6130,1.638
28.6130,1.637
28.6130,1.637
28.6130,1.638
28.6130,1.638
28.6140,1.638
28.6140,1.645
28.6140,1.639
28.6140,1.639
28.6150,1.639
28.6150,1.638
28.6150,1.637
28.6150,1.64
28.6150,1.639
28.6160,1.637
28.6160,1.637
28.6160,1.638
28.6170,1.638
28.6170,1.639
28.6180,1.638
28.6180,1.639
28.6180,1.637
28.6190,1.639
28.6190,1.639
28.6190,1.639
28.6190,1.639
28.6190,1.64
28.6200,1.636
28.6200,1.64
28.6200,1.637
28.6200,1.638
28.6210,1.637
28.6210,1.639
28.6210,1.641
28.6210,1.64
28.6220,1.64
28.6220,1.639
28.6220,1.64
28.6220,1.638
28.6220,1.639
28.6230,1.639
28.6230,1.64
28.6230,1.638
28.6240,1.637
28.6240,1.639
28.6240,1.638
28.6240,1.64
28.6240,1.639
28.6250,1.637
28.6250,1.645
28.6250,1.639
28.6250,1.64
28.6260,1.64
28.6260,1.639
28.6260,1.637
28.6260,1.644
28.6260,1.641
28.6270,1.638
28.6270,1.637
28.6270,1.638
28.6270,1.638
28.6280,1.639
28.6280,1.639
28.6280,1.64
28.6280,1.643
28.6290,1.641
28.6290,1.64
28.6290,1.64
28.6290,1.64
28.6290,1.638
28.6300,1.636
28.6300,1.64
28.6300,1.637
28.6300,1.638
28.6310,1.638
28.6310,1.639
28.6310,1.639
28.6310,1.642
28.6320,1.641
28.6320,1.64
28.6320,1.641
28.6320,1.64
28.6330,1.639
28.6330,1.64
28.6330,1.639
28.6340,1.637
28.6340,1.638
28.6340,1.638
28.6340,1.639
28.6350,1.639
28.6350,1.639
28.6350,1.64
28.6350,1.637
28.6360,1.644
28.6360,1.64
28.6360,1.64
28.6360,1.639
28.6360,1.64
28.6370,1.637
28.6370,1.643
28.6370,1.639
28.6370,1.639
28.6380,1.64
28.6380,1.64
28.6380,1.638
28.6380,1.639
28.6390,1.642
28.6390,1.637
28.6390,1.641
28.6390,1.64
28.6400,1.639
28.6400,1.64
28.6400,1.639
28.6400,1.637
28.6400,1.637
28.6410,1.641
28.6410,1.638
28.6410,1.638
28.6410,1.64
28.6420,1.639
28.6420,1.638
28.6420,1.644
28.6420,1.644
28.6420,1.64
28.6429,1.64
28.6429,1.641
28.6429,1.637
28.6429,1.639
28.6429,1.64
28.6439,1.637
28.6439,1.638
28.6439,1.637
28.6439,1.637
28.6449,1.64
28.6449,1.64
28.6449,1.638
28.6449,1.643
28.6449,1.64
28.6459,1.639
28.6459,1.64
28.6459,1.64
28.6459,1.638
28.6469,1.636
28.6469,1.642
28.6469,1.641
28.6469,1.639
28.6469,1.639
28.6479,1.639
28.6479,1.639
28.6479,1.64
28.6479,1.645
28.6489,1.64
28.6489,1.64
28.6489,1.641
28.6489,1.639
28.6489,1.638
28.6499,1.638
28.6529,1.641
28.6599,1.637
28.6649,1.637
28.6689,1.638
28.6699,1.638
28.6709,1.639
28.6729,1.638
28.6729,1.64
28.6739,1.64
28.6739,1.64
28.6739,1.641
28.6749,1.64
28.6749,1.639
28.6749,1.641
28.6749,1.637
28.6749,1.638
28.6759,1.638
28.6759,1.638
28.6759,1.638
28.6759,1.638
28.6769,1.638
28.6769,1.639
28.6769,1.636
28.6769,1.645
28.6769,1.641
28.6779,1.64
28.6779,1.639
28.6779,1.64
28.6779,1.637
28.6968,1.637
28.6978,1.643
28.6978,1.639
28.6978,1.637
28.6988,1.639
28.6988,1.639
28.6988,1.64
28.6988,1.639
28.6988,1.645
28.6998,1.64
28.6998,1.639
28.6998,1.64
28.7008,1.64
28.7008,1.638
28.7008,1.64
28.7008,1.639
28.7018,1.637
28.7018,1.638
28.7018,1.637
28.8853,1.637
28.8853,1.639
28.8853,1.639
28.8863,1.64
28.8863,1.639
28.8863,1.641
28.8863,1.64
28.8873,1.64
28.8873,1.639
28.8873,1.639
28.8873,1.637
28.8873,1.635
28.8883,1.644
28.8883,1.637
28.8883,1.638
28.8883,1.638
28.8893,1.638
28.8893,1.638
28.8893,1.643
28.8893,1.642
28.8893,1.64
28.8903,1.64
28.8903,1.638
28.8903,1.637
28.8903,1.638
28.8903,1.642
28.8913,1.637
28.8913,1.638
28.8913,1.637
28.8913,1.638
28.8923,1.639
28.8923,1.639
28.8923,1.639
28.8923,1.639
28.8933,1.642
28.8933,1.639
28.8933,1.639
28.8933,1.638
28.8943,1.637
28.8943,1.637
28.8943,1.642
28.8943,1.639
28.8943,1.638
28.8953,1.637
28.8953,1.638
28.8953,1.638
28.8953,1.639
28.8963,1.64
28.8963,1.64
28.8963,1.639
28.8963,1.638
28.8973,1.639
28.8973,1.638
28.8973,1.638
28.8973,1.636
28.8973,1.641
28.8983,1.636
28.8983,1.637
28.8983,1.637
28.8983,1.637
28.8993,1.637
28.8993,1.641
28.8993,1.641
28.8993,1.637
28.9003,1.639
28.9003,1.639
28.9003,1.637
28.9013,1.639
28.9013,1.637
28.9013,1.637
28.9013,1.636
28.9023,1.637
28.9023,1.635
28.9023,1.637
28.9023,1.639
28.9023,1.638
28.9033,1.636
28.9033,1.643
28.9033,1.639
28.9033,1.638
28.9033,1.638
28.9042,1.637
28.9042,1.637
28.9042,1.637
28.9042,1.637
28.9052,1.636
28.9052,1.637
28.9052,1.635
28.9052,1.637
28.9052,1.638
28.9062,1.637
28.9062,1.638
28.9062,1.641
28.9062,1.64
28.9072,1.639
28.9072,1.638
28.9072,1.637
28.9072,1.635
28.9082,1.637
28.9082,1.641
28.9082,1.636
28.9082,1.636
28.9082,1.637
28.9092,1.637
28.9092,1.637
28.9092,1.64
28.9092,1.636
28.9102,1.639
28.9102,1.639
28.9102,1.637
28.9102,1.637
28.9102,1.638
28.9112,1.636
28.9112,1.635
28.9112,1.637
28.9112,1.636
28.9112,1.636
28.9122,1.636
28.9122,1.638
28.9122,1.638
28.9122,1.642
28.9122,1.636
28.9132,1.637
28.9132,1.638
28.9132,1.638
28.9132,1.635
28.9142,1.638
28.9142,1.637
28.9142,1.635
28.9142,1.636
28.9152,1.637
28.9152,1.636
28.9152,1.637
28.9152,1.637
28.9162,1.638
28.9162,1.636
28.9162,1.638
28.9172,1.638
28.9172,1.638
28.9172,1.637
28.9172,1.636
28.9182,1.639
28.9182,1.637
28.9182,1.635
28.9182,1.636
28.9182,1.636
28.9192,1.636
28.9192,1.638
28.9192,1.639
28.9192,1.637
28.9202,1.635
28.9202,1.638
28.9202,1.637
28.9202,1.637
28.9202,1.637
28.9212,1.636
28.9212,1.635
28.9212,1.636
28.9212,1.635
28.9222,1.635
28.9222,1.636
28.9222,1.636
28.9222,1.636
28.9232,1.636
28.9232,1.636
28.9232,1.636
28.9232,1.638
28.9242,1.637
28.9242,1.636
28.9242,1.635
28.9242,1.639
28.9242,1.636
28.9252,1.634
28.9252,1.635
28.9252,1.636
28.9252,1.636
28.9262,1.637
28.9262,1.637
28.9262,1.636
28.9262,1.637
28.9262,1.638
28.9272,1.637
28.9272,1.636
28.9272,1.638
28.9272,1.637
28.9282,1.631
28.9282,1.637
28.9282,1.635
28.9282,1.635
28.9292,1.635
28.9292,1.636
28.9292,1.635
28.9302,1.638
28.9302,1.636
28.9302,1.636
28.9302,1.636
28.9312,1.637
28.9312,1.635
28.9312,1.634
28.9312,1.636
28.9312,1.635
28.9322,1.633
28.9322,1.634
28.9322,1.636
28.9322,1.635
28.9332,1.636
28.9332,1.636
28.9332,1.633
28.9342,1.639
28.9342,1.636
28.9342,1.635
28.9342,1.636
28.9352,1.636
28.9352,1.634
28.9352,1.633
28.9352,1.64
28.9352,1.633
28.9362,1.634
28.9362,1.635
28.9362,1.636
28.9372,1.635
28.9372,1.637
28.9372,1.636
28.9372,1.635
28.9382,1.636
28.9382,1.636
28.9382,1.636
28.9382,1.634
28.9382,1.634
28.9392,1.635
28.9392,1.632
28.9392,1.634
28.9392,1.634
28.9402,1.634
28.9402,1.635
28.9402,1.635
28.9402,1.632
28.9402,1.64
28.9411,1.636
28.9411,1.635
28.9411,1.634
28.9411,1.634
28.9441,1.634
28.9451,1.631
28.9451,1.637
28.9451,1.633
28.9451,1.634
28.9461,1.635
28.9461,1.635
28.9461,1.634
28.9461,1.635
28.9461,1.636
28.9471,1.636
28.9471,1.636
28.9471,1.635
28.9471,1.634
28.9481,1.633
28.9481,1.634
28.9481,1.637
28.9481,1.633
28.9481,1.634
28.9491,1.634
28.9491,1.634
28.9491,1.636
28.9501,1.635
28.9501,1.635
28.9501,1.638
28.9501,1.638
28.9511,1.635
28.9511,1.635
28.9511,1.634
28.9511,1.633
28.9521,1.638
28.9521,1.637
28.9521,1.633
28.9521,1.634
28.9521,1.634
28.9531,1.633
28.9531,1.635
28.9531,1.635
28.9531,1.634
28.9541,1.636
28.9541,1.636
28.9541,1.634
28.9541,1.634
28.9551,1.635
28.9551,1.631
28.9551,1.634
28.9551,1.638
28.9551,1.633
28.9561,1.633
28.9561,1.634
28.9561,1.634
28.9561,1.634
28.9571,1.639
28.9571,1.634
28.9571,1.634
28.9571,1.635
28.9581,1.635
28.9581,1.634
28.9581,1.635
28.9591,1.634
28.9591,1.632
28.9591,1.633
28.9591,1.634
28.9591,1.632
28.9601,1.634
28.9601,1.634
28.9601,1.634
28.9601,1.639
28.9611,1.635
28.9611,1.635
28.9611,1.635
28.9611,1.634
28.9611,1.633
28.9621,1.637
28.9621,1.635
28.9621,1.634
28.9621,1.632
28.9631,1.633
28.9631,1.633
28.9631,1.634
28.9631,1.634
28.9631,1.631
28.9641,1.635
28.9641,1.635
28.9641,1.635
28.9651,1.635
28.9651,1.634
28.9651,1.632
29.5675,1.636
29.5685,1.633
29.5685,1.632
29.5685,1.633
29.5685,1.633
29.5695,1.633
29.5695,1.637
29.5695,1.634
29.5705,1.635
29.5705,1.635
29.5705,1.635
29.5705,1.635
29.5705,1.635
29.5715,1.635
29.5715,1.634
29.5715,1.632
29.5715,1.633
29.5715,1.632
29.5725,1.633
29.5725,1.635
29.5725,1.635
29.5725,1.632
29.5735,1.639
29.5735,1.636
29.5735,1.637
29.5735,1.636
29.5735,1.635
29.5745,1.632
29.5745,1.635
29.5745,1.632
29.5745,1.633
29.5745,1.634
29.5755,1.634
29.5755,1.634
29.5755,1.634
29.5755,1.634
29.5765,1.635
29.5765,1.635
29.5765,1.636
29.5774,1.635
29.5774,1.634
29.5774,1.635
29.5774,1.633
29.5784,1.631
29.5784,1.64
29.5784,1.633
29.5784,1.634
29.5784,1.634
29.5794,1.634
29.5794,1.633
29.5794,1.637
29.5794,1.639
29.5804,1.635
29.5804,1.635
29.5804,1.636
29.5804,1.634
29.5814,1.633
29.5814,1.635
29.5814,1.633
29.5814,1.633
29.5814,1.634
29.5824,1.634
29.5824,1.633
29.5824,1.635
29.5824,1.636
29.5834,1.633
29.5834,1.635
29.5834,1.636
29.5844,1.636
29.5844,1.635
29.5844,1.635
29.5844,1.634
29.5844,1.63
29.5854,1.638
29.5854,1.633
29.5854,1.632
29.5854,1.634
29.5864,1.635
29.5864,1.634
29.5864,1.639
29.5864,1.637
29.5864,1.636
29.5874,1.636
29.5874,1.635
29.5874,1.635
29.5874,1.635
29.5884,1.634
29.5884,1.634
29.5884,1.633
29.5884,1.634
29.5884,1.634
29.5894,1.633
29.5894,1.635
29.5894,1.635
29.5894,1.634
29.5904,1.64
29.5904,1.635
29.5904,1.636
29.5904,1.636
29.5904,1.634
29.5914,1.634
29.5914,1.639
29.5914,1.634
29.5914,1.633
29.5924,1.633
29.5924,1.634
29.5924,1.635
29.5924,1.635
29.5934,1.636
29.5934,1.635
29.5934,1.635
29.5934,1.637
29.5944,1.636
29.5944,1.634
29.5944,1.635
29.5944,1.634
29.5954,1.634
29.5954,1.637
29.5954,1.633
29.5954,1.634
29.5964,1.635
29.5964,1.634
29.5964,1.634
29.5964,1.64
29.5964,1.638
29.5974,1.636
29.5974,1.637
29.5974,1.637
29.5974,1.635
29.5984,1.635
29.5984,1.641
29.5984,1.634
29.5994,1.634
29.5994,1.633
29.5994,1.634
29.5994,1.634
29.6004,1.636
29.6004,1.636
29.6004,1.636
29.6004,1.635
29.6004,1.636
29.6014,1.635
29.6014,1.636
29.6014,1.637
29.6014,1.635
29.6024,1.632
29.6024,1.636
29.6024,1.635
29.6024,1.635
29.6024,1.635
29.6034,1.635
29.6034,1.636
29.6034,1.637
29.6034,1.637
29.6044,1.637
29.6044,1.637
29.6044,1.636
29.6044,1.636
29.6054,1.634
29.6054,1.635
29.6054,1.635
29.6054,1.634
29.6064,1.635
29.6064,1.634
29.6064,1.636
29.6064,1.635
29.6074,1.637
29.6074,1.637
29.6074,1.639
29.6074,1.637
29.6084,1.637
29.6084,1.637
29.6084,1.636
29.6084,1.634
29.6084,1.635
29.6094,1.641
29.6094,1.635
29.6094,1.635
29.6094,1.636
29.6104,1.635
29.6104,1.634
29.6104,1.637
29.6104,1.641
29.6114,1.636
29.6114,1.637
29.6114,1.637
29.6114,1.636
29.6114,1.635
29.6124,1.639
29.6124,1.636
29.6124,1.633
29.6124,1.636
29.6124,1.636
29.6134,1.635
29.6134,1.638
29.6134,1.637
29.6134,1.637
29.6143,1.637
29.6143,1.639
29.6143,1.637
29.6143,1.636
29.6153,1.637
29.6153,1.637
29.6153,1.633
29.6153,1.638
29.6163,1.637
29.6163,1.634
29.6163,1.637
29.6163,1.636
29.6173,1.637
29.6173,1.636
29.6173,1.643
29.6173,1.637
29.6183,1.638
29.6183,1.638
29.6183,1.636
29.6183,1.636
29.6183,1.639
29.6193,1.636
29.6193,1.635
29.6193,1.636
29.6193,1.635
29.6193,1.635
29.6203,1.636
29.6203,1.638
29.6203,1.638
29.6203,1.637
29.6213,1.638
29.6213,1.638
29.6213,1.637
29.6213,1.637
29.6213,1.638
29.6223,1.637
29.6223,1.634
29.6223,1.64
29.6223,1.636
29.6233,1.636
29.6233,1.638
29.6233,1.637
29.6233,1.638
29.6243,1.636
29.6243,1.639
29.6243,1.638
29.6243,1.638
29.6253,1.637
29.6253,1.638
29.6253,1.64
29.6253,1.639
29.6263,1.637
29.6263,1.637
29.6263,1.637
29.6263,1.637
29.6263,1.638
29.6273,1.638
29.6273,1.639
29.6273,1.636
29.6273,1.64
29.6283,1.638
29.6283,1.637
29.6283,1.639
29.6283,1.639
29.6283,1.635
29.6293,1.635
29.6293,1.643
29.6293,1.637
29.6293,1.637
29.6303,1.638
29.6303,1.638
29.6303,1.638
29.6303,1.639
29.6303,1.64
29.6313,1.638
29.6313,1.639
29.6313,1.639
29.6313,1.637
29.6323,1.639
29.6323,1.636
29.6323,1.638
29.6323,1.637
29.6323,1.638
29.6333,1.637
29.6333,1.639
29.6333,1.638
29.6343,1.64
29.6343,1.635
29.6343,1.641
29.6353,1.639
29.6353,1.638
29.6353,1.639
29.6363,1.639
29.6363,1.637
29.6363,1.636
29.6373,1.636
29.6383,1.638
29.6403,1.637
29.6413,1.639
29.6483,1.639
29.6532,1.64
29.6582,1.645
29.6602,1.639
29.6602,1.639
29.6612,1.64
29.6612,1.64
29.6612,1.638
29.6612,1.64
29.6612,1.642
29.6622,1.638
29.6622,1.637
29.6622,1.638
29.6622,1.639
29.6632,1.638
29.6632,1.639
29.6632,1.639
29.6632,1.64
29.6642,1.638
29.6642,1.64
29.6642,1.64
29.6652,1.64
29.6652,1.64
29.6652,1.64
29.6652,1.637
29.6662,1.639
29.6662,1.638
29.6662,1.638
29.6672,1.639
29.6672,1.638
29.6672,1.639
29.6682,1.644
29.6682,1.641
29.6682,1.64
29.6682,1.64
29.6682,1.64
29.6692,1.637
29.6692,1.641
29.6692,1.644
29.6692,1.639
29.6702,1.638
29.6702,1.639
29.6702,1.64
29.6702,1.639
29.6702,1.642
29.6712,1.64
29.6712,1.641
29.6712,1.638
29.6722,1.641
29.6722,1.64
29.6722,1.64
29.6732,1.642
29.6732,1.64
29.6732,1.639
29.6732,1.639
29.6742,1.639
29.6742,1.639
29.6742,1.64
29.6742,1.64
29.6752,1.641
29.6752,1.642
29.6752,1.644
29.6752,1.641
29.6752,1.64
29.6762,1.641
29.6762,1.64
29.6762,1.64
29.6762,1.644
29.6772,1.642
29.6772,1.638
29.6772,1.639
29.6772,1.639
29.6782,1.639
29.6782,1.641
29.6782,1.642
29.6792,1.64
29.6792,1.64
29.6792,1.641
29.6792,1.641
29.6792,1.641
29.6802,1.642
29.6802,1.641
29.6802,1.64
29.6802,1.641
29.6812,1.64
29.6812,1.64
29.6812,1.64
29.6812,1.641
29.6822,1.642
29.6822,1.645
29.6822,1.643
29.6822,1.642
29.6832,1.642
29.6832,1.641
29.6832,1.64
29.6842,1.643
29.6842,1.642
29.6842,1.641
29.6852,1.64
29.6852,1.64
29.6852,1.64
29.6852,1.641
29.6862,1.643
29.6862,1.641
29.6862,1.641
29.6862,1.644
29.6862,1.643
29.6872,1.641
29.6872,1.642
29.6872,1.642
29.6872,1.64
29.6881,1.641
29.6881,1.64
29.6881,1.64
29.6881,1.642
29.6891,1.641
29.6891,1.641
29.6891,1.642
29.6891,1.64
29.6901,1.643
29.6901,1.644
29.6901,1.643
29.6901,1.642
29.6901,1.642
29.6911,1.64
29.6911,1.641
29.6911,1.645
29.6911,1.641
29.6921,1.64
29.6921,1.642
29.6921,1.641
29.6921,1.642
29.6931,1.644
29.6931,1.642
29.6931,1.644
29.6931,1.643
29.6941,1.644
29.6941,1.643
29.6941,1.642
29.6941,1.64
29.6941,1.646
29.6951,1.64
29.6951,1.641
29.6951,1.642
29.6951,1.641
29.6981,1.642
29.6981,1.644
29.6981,1.642
29.6981,1.645
29.6991,1.643
29.6991,1.644
29.6991,1.644
29.7001,1.643
29.7001,1.643
29.7001,1.642
29.7011,1.643
29.7011,1.644
29.7011,1.641
29.7011,1.643
29.7011,1.642
29.7021,1.643
29.7021,1.644
29.7021,1.643
29.7021,1.643
29.7021,1.643
29.7031,1.643
29.7031,1.642
29.7031,1.643
29.7031,1.643
29.7041,1.64
29.7041,1.643
29.7041,1.641
29.7051,1.642
29.7051,1.642
29.7051,1.643
29.7051,1.643
29.7061,1.649
29.7061,1.646
29.7061,1.644
29.7061,1.644
29.7061,1.644
29.7071,1.641
29.7071,1.643
29.7071,1.645
29.7081,1.641
29.7081,1.642
29.7081,1.641
29.7081,1.643
29.7091,1.643
29.7091,1.644
29.7091,1.643
29.7091,1.641
29.7091,1.645
29.7101,1.644
29.7101,1.645
29.7101,1.643
29.7101,1.639
29.7111,1.646
29.7111,1.646
29.7111,1.643
30.2506,1.642
30.2506,1.643
30.2516,1.643
30.2516,1.644
30.2516,1.646
30.2516,1.645
30.2516,1.644
30.2526,1.645
30.2526,1.644
30.2526,1.644
30.2536,1.644
30.2536,1.643
30.2536,1.642
30.2536,1.643
30.2536,1.643
30.2546,1.642
30.2546,1.643
30.2546,1.646
30.2546,1.644
30.2556,1.646
30.2556,1.646
30.2556,1.645
30.2556,1.644
30.2556,1.643
30.2566,1.644
30.2566,1.641
30.2566,1.647
30.2566,1.643
30.2566,1.643
30.2576,1.643
30.2576,1.643
30.2576,1.643
30.2576,1.643
30.2586,1.649
30.2586,1.643
30.2586,1.645
30.2586,1.645
30.2586,1.644
30.2596,1.645
30.2596,1.644
30.2596,1.643
30.2596,1.643
30.2606,1.643
30.2606,1.643
30.2606,1.642
30.2606,1.644
30.2616,1.644
30.2616,1.645
30.2616,1.646
30.2616,1.648
30.2626,1.645
30.2626,1.645
30.2626,1.644
30.2626,1.645
30.2626,1.644
30.2636,1.648
30.2636,1.642
30.2636,1.643
30.2636,1.643
30.2646,1.643
30.2646,1.643
30.2646,1.647
30.2646,1.645
30.2656,1.646
30.2656,1.645
30.2656,1.646
30.2656,1.645
30.2666,1.644
30.2666,1.645
30.2676,1.645
30.2676,1.643
30.2676,1.644
30.2676,1.643
30.2686,1.643
30.2686,1.643
30.2686,1.644
30.2686,1.645
30.2696,1.646
30.2696,1.645
30.2696,1.646
30.2696,1.646
30.2706,1.645
30.2706,1.646
30.2706,1.646
30.2706,1.642
30.2706,1.642
30.2716,1.643
30.2716,1.644
30.2716,1.644
30.2716,1.645
30.2726,1.645
30.2726,1.646
30.2726,1.645
30.2726,1.649
30.2736,1.645
30.2736,1.644
30.2736,1.645
30.2736,1.645
30.2736,1.643
30.2746,1.648
30.2746,1.644
30.2746,1.643
30.2746,1.644
30.2756,1.645
30.2756,1.646
30.2756,1.645
30.2756,1.645
30.2766,1.645
30.2766,1.648
30.2766,1.646
30.2766,1.645
30.2766,1.645
30.2776,1.645
30.2776,1.645
30.2776,1.643
30.2776,1.644
30.2786,1.645
30.2786,1.644
30.2786,1.645
30.2786,1.646
30.2796,1.643
30.2796,1.649
30.2796,1.648
30.2796,1.647
30.2796,1.646
30.2806,1.646
30.2806,1.647
30.2806,1.643
30.2806,1.643
30.2806,1.649
30.2816,1.644
30.2816,1.646
30.2816,1.645
30.2826,1.645
30.2826,1.645
30.2826,1.649
30.2836,1.646
30.2836,1.647
30.2836,1.647
30.2836,1.646
30.2846,1.645
30.2846,1.644
30.2846,1.644
30.2846,1.646
30.2856,1.643
30.2856,1.645
30.2856,1.645
30.2856,1.644
30.2866,1.645
30.2866,1.647
30.2866,1.643
30.2866,1.649
30.2875,1.646
30.2875,1.647
30.2875,1.646
30.2875,1.646
30.2875,1.645
30.2885,1.641
30.2885,1.649
30.2885,1.644
30.2885,1.645
30.2896,1.645
30.2896,1.647
30.2896,1.646
30.2896,1.65
30.2905,1.647
30.2905,1.646
30.2905,1.647
30.2905,1.646
30.2915,1.646
30.2915,1.646
30.2915,1.648
30.2915,1.644
30.2925,1.645
30.2925,1.645
30.2925,1.645
30.2925,1.644
30.2925,1.647
30.2935,1.647
30.2935,1.645
30.2935,1.65
30.2935,1.648
30.2945,1.646
30.2945,1.648
30.2945,1.647
30.2945,1.644
30.2955,1.642
30.2955,1.648
30.2955,1.647
30.2955,1.645
30.2965,1.646
30.2965,1.645
30.2965,1.646
30.2965,1.649
30.2975,1.652
30.2995,1.646
30.3015,1.647
30.3075,1.647
30.3085,1.646
30.3135,1.644
30.3165,1.647
30.3205,1.647
30.3205,1.646
30.3225,1.645
30.3225,1.645
30.3235,1.646
30.3235,1.646
30.3235,1.648
30.3235,1.649
30.3235,1.645
30.3245,1.648
30.3245,1.647
30.3245,1.646
30.3245,1.648
30.3254,1.647
30.3254,1.645
30.3254,1.645
30.3254,1.649
30.3264,1.645
30.3264,1.647
30.3274,1.647
30.3274,1.647
30.3274,1.648
30.3274,1.652
30.3284,1.647
30.3284,1.648
30.3284,1.647
30.3284,1.646
30.3294,1.644
30.3294,1.648
30.3294,1.647
30.3294,1.645
30.3304,1.646
30.3304,1.645
30.3304,1.645
30.3304,1.647
30.3314,1.646
30.3314,1.648
30.3314,1.646
30.3314,1.649
30.3314,1.647
30.3324,1.648
30.3324,1.649
30.3334,1.647
30.3334,1.647
30.3334,1.643
30.3354,1.647
30.3354,1.646
30.3354,1.646
30.3354,1.648
30.3364,1.647
30.3364,1.647
30.3364,1.645
30.3364,1.653
30.3374,1.647
30.3374,1.648
30.3374,1.647
30.3374,1.646
30.3384,1.646
30.3384,1.649
30.3384,1.648
30.3384,1.645
30.3384,1.647
30.3394,1.646
30.3394,1.647
30.3394,1.648
30.3394,1.653
30.3404,1.646
30.3404,1.647
30.3404,1.649
30.3414,1.648
30.3414,1.648
30.3414,1.648
30.3424,1.647
30.3424,1.643
30.3424,1.647
30.3424,1.647
30.3434,1.646
30.3434,1.649
30.3434,1.648
30.3434,1.648
30.3444,1.644
30.3444,1.648
30.3444,1.648
30.3444,1.648
30.3454,1.648
30.3454,1.648
30.3454,1.647
30.3454,1.648
30.3464,1.65
30.3464,1.646
30.3464,1.647
30.3464,1.647
30.3464,1.648
30.3474,1.648
30.3474,1.652
30.3474,1.65
30.3484,1.649
30.3484,1.649
30.3494,1.648
30.3504,1.646
30.3504,1.646
30.3504,1.651
30.3504,1.648
30.3514,1.644
30.3514,1.646
30.3514,1.646
30.3514,1.647
30.3524,1.647
30.3524,1.648
30.3524,1.651
30.3524,1.65
30.3524,1.649
30.3534,1.648
30.3534,1.648
30.3534,1.648
30.3534,1.647
30.3544,1.645
30.3544,1.651
30.3544,1.646
30.3544,1.646
30.3554,1.647
30.3554,1.647
30.3554,1.648
30.3564,1.651
30.3564,1.652
30.3564,1.648
30.3574,1.649
30.3574,1.648
30.3574,1.647
30.3574,1.646
30.3574,1.651
30.3584,1.65
30.3584,1.645
30.3584,1.647
30.3584,1.647
30.3594,1.648
30.3594,1.646
30.3594,1.65
30.3594,1.647
30.3604,1.648
30.3604,1.648
30.3604,1.648
30.3604,1.648
30.3604,1.649
30.3614,1.648
30.3614,1.646
30.3614,1.647
30.3614,1.647
30.3623,1.647
30.3623,1.646
30.3623,1.648
