55.1169,1.666
55.1229,1.724
55.1259,1.713
55.1269,1.671
55.1269,1.669
55.1269,1.654
55.1279,1.643
55.1279,1.612
55.1279,1.601
55.1279,1.6
55.1279,1.623
55.1289,1.62
55.1289,1.653
55.1289,1.663
55.1289,1.686
55.1299,1.702
55.1299,1.73
55.1299,1.719
55.1299,1.675
55.1299,1.658
55.1309,1.651
55.1309,1.623
55.1309,1.595
55.1309,1.589
55.1309,1.626
55.1319,1.621
55.1319,1.628
55.1319,1.654
55.1319,1.659
55.1329,1.68
55.1329,1.701
55.1329,1.711
55.1329,1.675
55.1329,1.654
55.1329,1.652
55.1339,1.633
55.1339,1.586
55.1339,1.577
55.1339,1.613
55.1339,1.611
55.1339,1.614
55.1349,1.619
55.1349,1.651
55.1349,1.668
55.1349,1.693
55.1349,1.709
55.1349,1.7
55.1349,1.664
55.1358,1.645
55.1358,1.627
55.1358,1.622
55.1358,1.594
55.1358,1.577
55.1358,1.617
55.1368,1.604
55.1368,1.616
55.1368,1.634
55.1368,1.649
55.1368,1.67
55.1368,1.693
55.1378,1.687
55.1378,1.678
55.1378,1.647
55.1378,1.632
55.1378,1.627
55.1388,1.591
55.1388,1.573
55.1388,1.596
55.1388,1.616
55.1398,1.607
55.1398,1.617
55.1398,1.637
55.1398,1.647
55.1398,1.663
55.1398,1.709
55.1398,1.726
55.1408,1.647
55.1408,1.644
55.1408,1.629
55.1408,1.611
55.1408,1.6
55.1408,1.586
55.1408,1.592
55.1418,1.599
55.1418,1.606
55.1418,1.625
55.1418,1.643
55.1418,1.664
55.1418,1.687
55.1418,1.7
55.1428,1.688
55.1428,1.661
55.1428,1.649
55.1428,1.631
55.1428,1.599
55.1428,1.586
55.1428,1.601
55.1438,1.624
55.1438,1.605
55.1438,1.613
55.1438,1.641
55.1438,1.656
55.1438,1.686
55.1438,1.722
55.1448,1.718
55.1448,1.681
55.1448,1.664
55.1448,1.646
55.1448,1.625
55.1448,1.599
55.1458,1.59
55.1458,1.594
55.1458,1.583
55.1458,1.599
55.1458,1.641
55.1458,1.649
55.1458,1.653
55.1468,1.684
55.1468,1.695
55.1468,1.687
55.1468,1.67
55.1468,1.652
55.1468,1.631
55.1468,1.625
55.1478,1.584
55.1478,1.59
55.1478,1.615
55.1478,1.607
55.1478,1.61
55.1478,1.624
55.1478,1.652
55.1488,1.68
55.1488,1.702
55.1488,1.703
55.1488,1.691
55.1488,1.662
55.1488,1.644
55.1488,1.625
55.1488,1.601
55.1498,1.572
55.1498,1.58
55.1498,1.613
55.1498,1.615
55.1498,1.633
55.1498,1.647
55.1508,1.66
55.1508,1.682
55.1508,1.706
55.1508,1.691
55.1508,1.669
55.1508,1.655
55.1508,1.645
55.1518,1.625
55.1518,1.597
55.1518,1.573
55.1518,1.58
55.1518,1.587
55.1518,1.588
55.1518,1.599
55.1528,1.605
55.1528,1.627
55.1528,1.646
55.1528,1.67
55.1528,1.634
55.1528,1.613
55.1528,1.615
55.1528,1.578
55.1538,1.548
55.1538,1.531
55.1538,1.531
55.1538,1.562
55.1538,1.565
55.1538,1.589
55.1538,1.609
55.1548,1.616
55.1548,1.646
55.1548,1.676
55.1548,1.681
55.1558,1.647
55.1558,1.651
55.1558,1.63
55.1558,1.614
55.1558,1.593
55.1568,1.577
55.1568,1.601
55.1568,1.601
55.1568,1.607
55.1568,1.628
55.1568,1.647
55.1568,1.65
55.1578,1.702
55.1578,1.713
55.1578,1.69
55.1578,1.661
55.1578,1.652
55.1578,1.643
55.1578,1.61
55.1588,1.586
55.1588,1.589
55.1588,1.592
55.1588,1.599
55.1588,1.603
55.1588,1.63
55.1588,1.672
55.1588,1.697
55.1598,1.691
55.1598,1.7
55.1598,1.677
55.1598,1.66
55.1598,1.656
55.1598,1.638
55.1598,1.61
55.1608,1.582
55.1608,1.61
55.1608,1.609
55.1608,1.604
55.1608,1.635
55.1608,1.657
55.1618,1.651
55.1618,1.703
55.1618,1.72
55.1618,1.699
55.1618,1.676
55.1618,1.67
55.1618,1.65
55.1628,1.621
55.1628,1.6
55.1628,1.601
55.1628,1.61
55.1628,1.613
55.1628,1.628
55.1628,1.639
55.1638,1.651
55.1638,1.669
55.1638,1.679
55.1638,1.699
55.1638,1.656
55.1638,1.65
55.1638,1.644
55.1648,1.627
55.1648,1.62
55.1648,1.589
55.1648,1.59
55.1648,1.611
55.1648,1.616
55.1648,1.625
55.1658,1.651
55.1658,1.672
55.1658,1.688
55.1658,1.7
55.1658,1.703
55.1658,1.667
55.1658,1.656
55.1658,1.628
55.1668,1.601
55.1668,1.567
55.1668,1.551
55.1668,1.512
55.1668,1.466
55.1668,1.369
55.1668,1.349
55.1678,1.364
55.1678,1.357
55.1678,1.32
55.1678,1.292
55.1678,1.271
55.1678,1.274
55.1678,1.279
55.1688,1.49
55.1688,1.699
55.1688,1.739
55.1688,1.662
55.1688,1.632
55.1688,1.712
55.1688,1.848
55.1698,2.032
55.1698,2.259
55.1698,2.46
55.1698,2.427
55.1698,2.369
55.1698,2.299
55.1698,2.253
55.1708,2.225
55.1708,2.17
55.1708,2.135
55.1708,2.086
55.1708,2.039
55.1708,1.989
55.1718,1.963
55.1718,1.917
55.1718,1.898
55.1718,1.895
55.1718,1.897
55.1728,1.862
55.1728,1.759
55.1728,1.706
55.1728,1.669
55.1728,1.651
55.1728,1.621
55.1728,1.584
55.1737,1.583
55.1737,1.593
55.1737,1.585
55.1737,1.594
55.1737,1.607
55.1737,1.606
55.1737,1.648
55.1747,1.662
55.1747,1.667
55.1747,1.632
55.1747,1.604
55.1747,1.584
55.1747,1.546
55.1747,1.529
55.1757,1.513
55.1757,1.535
55.1757,1.523
55.1757,1.534
55.1757,1.537
55.1757,1.556
55.1767,1.59
55.1767,1.607
55.1767,1.615
55.1767,1.604
55.1767,1.577
55.1767,1.564
55.1767,1.551
55.1777,1.529
55.1777,1.505
55.1777,1.516
55.1777,1.503
55.1777,1.517
55.1777,1.525
55.1777,1.532
55.1787,1.555
55.1787,1.6
55.1787,1.607
55.1787,1.599
55.1787,1.595
55.1787,1.571
55.1787,1.546
55.1797,1.526
55.1797,1.502
55.1797,1.486
55.1797,1.484
55.1797,1.505
55.1797,1.518
55.1807,1.526
55.1807,1.55
55.1807,1.568
55.1807,1.582
55.1807,1.586
55.1807,1.592
55.1807,1.563
55.1817,1.541
55.1817,1.519
55.1817,1.52
55.1817,1.478
55.1817,1.486
55.1817,1.508
55.1817,1.486
55.1817,1.496
55.1827,1.511
55.1827,1.537
55.1827,1.563
55.1827,1.582
55.1827,1.583
55.1827,1.579
55.1827,1.533
55.1837,1.516
55.1837,1.498
55.1837,1.472
55.1837,1.459
55.1837,1.476
55.1837,1.48
55.1837,1.485
55.1847,1.503
55.1847,1.508
55.1847,1.52
55.1847,1.538
55.1847,1.549
55.1847,1.542
55.1847,1.501
55.1857,1.482
55.1857,1.467
55.1857,1.457
55.1857,1.412
55.1857,1.426
55.1857,1.442
55.1857,1.435
55.1867,1.439
55.1867,1.448
55.1867,1.47
55.1867,1.5
55.1867,1.503
55.1867,1.488
55.1867,1.483
55.1877,1.461
55.1877,1.425
55.1877,1.396
55.1877,1.388
55.1877,1.347
55.1877,1.343
55.1887,1.372
55.1887,1.357
55.1887,1.357
55.1887,1.373
55.1887,1.379
55.1887,1.397
55.1897,1.399
55.1897,1.39
55.1897,1.344
55.1897,1.33
55.1897,1.327
55.1897,1.297
55.1897,1.28
55.1907,1.264
55.1907,1.265
55.1907,1.268
55.1907,1.267
55.1907,1.271
55.1907,1.277
55.1907,1.301
55.1917,1.29
55.1917,1.295
55.1917,1.306
55.1917,1.279
55.1917,1.268
55.1917,1.25
55.1927,1.249
55.1927,1.242
55.1927,1.244
55.1927,1.25
55.1927,1.248
55.1927,1.25
55.1927,1.256
55.1937,1.262
55.1937,1.271
55.1937,1.274
55.1937,1.291
55.1937,1.263
55.1937,1.259
55.1937,1.258
55.1947,1.255
55.1947,1.252
55.1947,1.247
55.1947,1.263
55.1947,1.258
55.1947,1.261
55.1947,1.272
55.1957,1.284
55.1957,1.302
55.1957,1.347
55.1957,1.385
55.1957,1.374
55.1957,1.35
55.1957,1.339
55.1967,1.34
55.1967,1.322
55.1967,1.322
55.1967,1.335
55.1967,1.356
55.1967,1.352
55.1967,1.389
55.1967,1.434
55.1977,1.45
55.1977,1.489
55.1977,1.52
55.1977,1.533
55.1977,1.525
55.1977,1.505
55.1987,1.5
55.1987,1.498
55.1987,1.49
55.1987,1.475
55.1987,1.47
55.1987,1.511
55.1987,1.52
55.1987,1.539
55.1997,1.56
55.1997,1.577
55.1997,1.599
55.1997,1.649
55.1997,1.658
55.1997,1.613
55.1997,1.608
55.2007,1.598
55.2007,1.588
55.2007,1.548
55.2007,1.551
55.2007,1.565
55.2007,1.558
55.2007,1.576
55.2017,1.605
55.2017,1.641
55.2017,1.652
55.8110,1.671
55.8120,1.653
55.8120,1.626
55.8120,1.609
55.8120,1.589
55.8120,1.587
55.8131,1.573
55.8131,1.563
55.8131,1.584
55.8131,1.583
55.8131,1.596
55.8131,1.607
55.8131,1.638
55.8141,1.658
55.8141,1.688
55.8141,1.656
55.8141,1.641
55.8141,1.629
55.8141,1.585
55.8141,1.569
55.8150,1.553
55.8150,1.54
55.8150,1.556
55.8150,1.568
55.8150,1.569
55.8150,1.591
55.8160,1.598
55.8160,1.598
55.8160,1.625
55.8160,1.64
55.8160,1.623
55.8160,1.597
55.8160,1.591
55.8170,1.573
55.8170,1.556
55.8170,1.522
55.8170,1.527
55.8170,1.538
55.8170,1.549
55.8170,1.555
55.8180,1.566
55.8180,1.588
55.8180,1.61
55.8180,1.62
55.8180,1.616
55.8190,1.607
55.8200,1.579
55.8200,1.562
55.8200,1.55
55.8200,1.52
55.8200,1.502
55.8200,1.508
55.8210,1.54
55.8210,1.53
55.8210,1.544
55.8210,1.552
55.8210,1.575
55.8210,1.586
55.8220,1.605
55.8220,1.58
55.8220,1.566
55.8220,1.559
55.8220,1.545
55.8220,1.529
55.8220,1.502
55.8230,1.516
55.8230,1.503
55.8230,1.517
55.8230,1.538
55.8230,1.551
55.8230,1.56
55.8230,1.603
55.8240,1.603
55.8240,1.598
55.8240,1.579
55.8240,1.569
55.8240,1.559
55.8240,1.522
55.8240,1.506
55.8250,1.49
55.8250,1.491
55.8250,1.526
55.8260,1.527
55.8260,1.551
55.8260,1.566
55.8270,1.585
55.8270,1.598
55.8270,1.603
55.8270,1.606
55.8270,1.573
55.8270,1.558
55.8270,1.545
55.8270,1.533
55.8280,1.509
55.8280,1.526
55.8280,1.519
55.8280,1.526
55.8280,1.544
55.8280,1.552
55.8280,1.57
55.8290,1.607
55.8290,1.619
55.8290,1.618
55.8290,1.602
55.8290,1.585
55.8290,1.572
55.8290,1.558
55.8300,1.527
55.8300,1.502
55.8300,1.51
55.8300,1.53
55.8300,1.53
55.8300,1.545
55.8310,1.565
55.8310,1.582
55.8310,1.59
55.8310,1.615
55.8310,1.634
55.8310,1.58
55.8310,1.569
55.8320,1.55
55.8320,1.53
55.8320,1.52
55.8320,1.502
55.8320,1.521
55.8320,1.524
55.8320,1.536
55.8330,1.543
55.8330,1.557
55.8330,1.568
55.8340,1.622
55.8340,1.61
55.8340,1.615
55.8340,1.59
55.8350,1.576
55.8350,1.553
55.8350,1.52
55.8350,1.507
55.8350,1.501
55.8350,1.523
55.8360,1.536
55.8360,1.538
55.8360,1.56
55.8360,1.573
55.8360,1.587
55.8360,1.595
55.8360,1.599
55.8370,1.602
55.8370,1.558
55.8370,1.532
55.8370,1.514
55.8370,1.497
55.8370,1.471
55.8370,1.475
55.8379,1.482
55.8379,1.484
55.8379,1.501
55.8379,1.52
55.8379,1.525
55.8379,1.538
55.8389,1.574
55.8389,1.557
55.8389,1.533
55.8389,1.521
55.8389,1.508
55.8389,1.488
55.8389,1.465
55.8399,1.46
55.8399,1.472
55.8399,1.488
55.8399,1.5
55.8409,1.514
55.8409,1.532
55.8409,1.568
55.8409,1.583
55.8419,1.597
55.8419,1.592
55.8419,1.568
55.8419,1.554
55.8419,1.532
55.8419,1.521
55.8429,1.49
55.8429,1.49
55.8429,1.506
55.8429,1.525
55.8429,1.536
55.8429,1.555
55.8429,1.574
55.8439,1.599
55.8439,1.606
55.8439,1.618
55.8439,1.584
55.8439,1.573
55.8439,1.553
55.8439,1.538
55.8439,1.52
55.8449,1.506
55.8449,1.521
55.8449,1.518
55.8449,1.53
55.8449,1.541
55.8449,1.554
55.8449,1.572
55.8459,1.61
55.8459,1.626
55.8459,1.605
55.8459,1.589
55.8459,1.578
55.8459,1.552
55.8459,1.528
55.8469,1.508
55.8469,1.499
55.8469,1.508
55.8469,1.53
55.8469,1.542
55.8479,1.554
55.8479,1.562
55.8479,1.607
55.8489,1.62
55.8489,1.618
55.8489,1.605
55.8489,1.586
55.8489,1.571
55.8489,1.557
55.8499,1.538
55.8499,1.503
55.8499,1.529
55.8499,1.537
55.8499,1.532
55.8499,1.546
55.8509,1.561
55.8509,1.58
55.8509,1.604
55.8509,1.625
55.8509,1.614
55.8509,1.579
55.8509,1.557
55.8519,1.544
55.8519,1.53
55.8519,1.516
55.8519,1.524
55.8519,1.513
55.8519,1.544
55.8519,1.563
55.8529,1.571
55.8529,1.571
55.8529,1.588
55.8529,1.593
55.8529,1.597
55.8529,1.582
55.8529,1.568
55.8539,1.548
55.8539,1.52
55.8539,1.488
55.8539,1.344
55.8539,1.313
55.8549,1.289
55.8549,1.26
55.8549,1.261
55.8559,1.247
55.8559,1.237
55.8559,1.237
55.8559,1.246
55.8559,1.242
55.8559,1.241
55.8569,1.333
55.8569,1.643
55.8569,1.594
55.8569,1.529
55.8569,1.501
55.8569,1.558
55.8569,1.709
55.8579,2.063
55.8579,2.211
55.8579,2.259
55.8579,2.253
55.8579,2.223
55.8579,2.187
55.8579,2.156
55.8589,2.123
55.8589,2.088
55.8589,2.041
55.8589,1.997
55.8589,1.894
55.8589,1.872
55.8589,1.847
55.8599,1.827
55.8599,1.812
55.8599,1.793
55.8599,1.764
55.8599,1.75
55.8599,1.707
55.8609,1.681
55.8609,1.638
55.8609,1.602
55.8609,1.548
55.8609,1.529
55.8609,1.502
55.8609,1.485
55.8619,1.505
55.8619,1.498
55.8619,1.517
55.8629,1.535
55.8629,1.541
55.8629,1.552
55.8629,1.568
55.8629,1.57
55.8629,1.564
55.8629,1.537
55.8639,1.519
55.8639,1.504
55.8639,1.486
55.8639,1.443
55.8639,1.447
55.8639,1.456
55.8639,1.462
55.8649,1.471
55.8649,1.483
55.8649,1.511
55.8649,1.523
55.8649,1.535
55.8649,1.544
55.8649,1.537
55.8659,1.506
55.8659,1.478
55.8659,1.465
55.8659,1.44
55.8659,1.426
55.8659,1.45
55.8659,1.452
55.8669,1.465
55.8669,1.476
55.8669,1.488
55.8669,1.494
55.8669,1.516
55.8669,1.528
55.8669,1.517
55.8679,1.498
55.8679,1.492
55.8679,1.477
55.8679,1.459
55.8679,1.425
55.8679,1.422
55.8679,1.437
55.8689,1.449
55.8689,1.453
55.8689,1.469
55.8689,1.494
55.8689,1.508
55.8699,1.514
55.8699,1.531
55.8709,1.528
55.8709,1.487
55.8709,1.468
55.8709,1.457
55.8719,1.43
55.8719,1.415
55.8719,1.424
55.8729,1.438
55.8729,1.45
55.8729,1.457
55.8729,1.468
55.8729,1.482
55.8729,1.501
55.8739,1.515
55.8739,1.502
55.8739,1.476
55.8739,1.469
55.8739,1.457
55.8739,1.442
55.8739,1.41
55.8748,1.403
55.8748,1.412
55.8748,1.412
55.8748,1.426
55.8748,1.439
55.8748,1.465
55.8748,1.493
55.8758,1.499
55.8758,1.501
55.8758,1.489
55.8758,1.46
55.8758,1.439
55.8758,1.423
55.8758,1.401
55.8768,1.376
55.8768,1.37
55.8768,1.398
55.8768,1.4
55.8778,1.413
55.8778,1.421
55.8778,1.431
55.8778,1.454
55.8788,1.455
55.8788,1.459
55.8788,1.426
55.8788,1.402
55.8788,1.382
55.8788,1.37
55.8788,1.322
55.8798,1.318
55.8798,1.331
55.8818,1.341
55.8828,1.342
55.8868,1.349
55.8928,1.367
55.8938,1.378
55.8958,1.387
55.8958,1.384
55.8958,1.369
55.8968,1.344
55.8968,1.305
55.8968,1.288
55.8968,1.268
55.8978,1.259
55.8978,1.259
55.8978,1.26
55.8978,1.261
55.8978,1.264
55.8978,1.27
55.8988,1.273
55.8988,1.29
55.8988,1.295
55.8998,1.29
55.8998,1.274
55.8998,1.265
55.8998,1.258
55.8998,1.253
55.8998,1.247
55.8998,1.243
55.9008,1.244
55.9008,1.249
55.9008,1.247
55.9008,1.249
55.9008,1.254
55.9008,1.26
55.9008,1.277
55.9018,1.288
55.9018,1.283
55.9018,1.269
55.9018,1.262
55.9018,1.258
55.9018,1.249
55.9018,1.247
55.9028,1.251
55.9028,1.256
55.9028,1.256
55.9028,1.262
55.9028,1.285
55.9028,1.298
55.9028,1.325
55.9038,1.349
55.9038,1.367
55.9038,1.368
55.9038,1.343
55.9038,1.338
55.9038,1.33
55.9038,1.326
55.9048,1.317
55.9048,1.318
55.9048,1.363
55.9058,1.371
55.9058,1.387
55.9068,1.406
55.9068,1.428
55.9078,1.462
55.9078,1.509
55.9078,1.516
55.9078,1.489
55.9078,1.481
55.9078,1.476
55.9088,1.469
55.9088,1.441
55.9088,1.449
55.9088,1.463
55.9088,1.474
55.9088,1.484
55.9088,1.502
55.9098,1.531
55.9098,1.564
55.9098,1.583
55.9098,1.594
55.9098,1.594
55.9098,1.559
55.9098,1.55
55.9108,1.546
55.9108,1.533
55.9108,1.508
55.9108,1.505
55.9108,1.525
55.9108,1.532
55.9108,1.545
55.9118,1.559
55.9118,1.58
55.9118,1.603
55.9118,1.622
55.9118,1.618
55.9118,1.592
55.9118,1.577
55.9127,1.552
55.9127,1.523
55.9137,1.511
55.9137,1.525
55.9137,1.547
55.9137,1.562
55.9147,1.573
56.4933,1.581
56.4933,1.592
56.4933,1.614
56.4943,1.64
56.4943,1.608
56.4943,1.587
56.4943,1.572
56.4953,1.561
56.4953,1.546
56.4953,1.522
56.4953,1.523
56.4963,1.526
56.4963,1.536
56.4963,1.545
56.4963,1.555
56.4973,1.571
56.4973,1.596
56.4973,1.609
56.4973,1.627
56.4973,1.6
56.4983,1.577
56.4983,1.559
56.4983,1.534
56.4983,1.504
56.4983,1.499
56.4993,1.514
56.4993,1.514
56.4993,1.528
56.4993,1.541
56.5003,1.551
56.5003,1.568
56.5003,1.604
56.5003,1.616
56.5013,1.583
56.5013,1.57
56.5013,1.557
56.5013,1.541
56.5023,1.531
56.5023,1.51
56.5023,1.488
56.5023,1.51
56.5033,1.518
56.5033,1.528
56.5033,1.539
56.5033,1.565
56.5043,1.581
56.5043,1.592
56.5043,1.612
56.5053,1.586
56.5053,1.557
56.5053,1.537
56.5053,1.527
56.5053,1.502
56.5063,1.493
56.5063,1.501
56.5063,1.505
56.5063,1.533
56.5073,1.546
56.5073,1.559
56.5073,1.569
56.5073,1.592
56.5083,1.606
56.5083,1.601
56.5083,1.57
56.5083,1.558
56.5083,1.552
56.5093,1.532
56.5093,1.493
56.5093,1.515
56.5093,1.517
56.5103,1.519
56.5103,1.532
56.5103,1.551
56.5113,1.571
56.5113,1.597
56.5113,1.617
56.5113,1.622
56.5113,1.6
56.5123,1.581
56.5123,1.55
56.5123,1.537
56.5123,1.524
56.5133,1.509
56.5133,1.512
56.5133,1.526
56.5133,1.531
56.5143,1.552
56.5143,1.572
56.5143,1.59
56.5143,1.609
56.5152,1.611
56.5152,1.623
56.5152,1.594
56.5152,1.571
56.5152,1.555
56.5162,1.552
56.5162,1.54
56.5162,1.53
56.5162,1.537
56.5172,1.534
56.5172,1.542
56.5182,1.553
56.5182,1.571
56.5182,1.606
56.5192,1.63
56.5192,1.638
56.5192,1.609
56.5192,1.586
56.5192,1.581
56.5202,1.557
56.5202,1.54
56.5202,1.516
56.5202,1.518
56.5212,1.521
56.5212,1.531
56.5212,1.565
56.5222,1.568
56.5222,1.584
56.5222,1.616
56.5222,1.635
56.5232,1.629
56.5232,1.596
56.5232,1.583
56.5232,1.566
56.5232,1.552
56.5242,1.545
56.5242,1.515
56.5242,1.531
56.5242,1.542
56.5242,1.544
56.5252,1.555
56.5252,1.574
56.5252,1.587
56.5252,1.629
56.5262,1.643
56.5262,1.626
56.5262,1.605
56.5262,1.59
56.5272,1.575
56.5272,1.538
56.5272,1.52
56.5272,1.529
56.5282,1.529
56.5282,1.54
56.5282,1.546
56.5282,1.582
56.5292,1.598
56.5292,1.627
56.5292,1.628
56.5292,1.642
56.5302,1.634
56.5302,1.592
56.5302,1.584
56.5302,1.577
56.5302,1.55
56.5312,1.524
56.5312,1.525
56.5312,1.52
56.5312,1.529
56.5312,1.54
56.5322,1.543
56.5322,1.548
56.5322,1.57
56.5322,1.61
56.5332,1.596
56.5332,1.575
56.5332,1.561
56.5332,1.542
56.5332,1.52
56.5342,1.487
56.5342,1.487
56.5342,1.493
56.5342,1.509
56.5342,1.513
56.5352,1.527
56.5352,1.552
56.5352,1.586
56.5352,1.597
56.5352,1.607
56.5362,1.608
56.5362,1.591
56.5362,1.556
56.5362,1.544
56.5372,1.526
56.5372,1.507
56.5372,1.518
56.5372,1.515
56.5372,1.537
56.5382,1.55
56.5382,1.577
56.5382,1.592
56.5382,1.61
56.5392,1.633
56.5392,1.631
56.5392,1.613
56.5392,1.599
56.5422,1.582
56.5432,1.572
56.5472,1.536
56.5512,1.542
56.5581,1.55
56.5601,1.566
56.5621,1.571
56.5621,1.577
56.5621,1.606
56.5631,1.625
56.5631,1.646
56.5631,1.661
56.5631,1.642
56.5641,1.622
56.5641,1.599
56.5641,1.587
56.5641,1.575
56.5641,1.547
56.5651,1.533
56.5651,1.548
56.5651,1.576
56.5651,1.577
56.5661,1.588
56.5661,1.606
56.5661,1.627
56.5661,1.655
56.5661,1.664
56.5671,1.641
56.5671,1.62
56.5671,1.607
56.5671,1.591
56.5671,1.551
56.5681,1.547
56.5681,1.555
56.5681,1.556
56.5681,1.568
56.5681,1.582
56.5691,1.611
56.5691,1.629
56.5691,1.645
56.5691,1.659
56.5701,1.659
56.5701,1.638
56.5701,1.619
56.5701,1.605
56.5711,1.584
56.5711,1.564
56.5711,1.55
56.5721,1.57
56.5721,1.574
56.5721,1.581
56.5731,1.597
56.5731,1.619
56.5731,1.635
56.5741,1.691
56.5741,1.671
56.5741,1.636
56.5741,1.6
56.5741,1.58
56.5751,1.571
56.5751,1.54
56.5751,1.521
56.5751,1.517
56.5761,1.507
56.5761,1.464
56.5761,1.42
56.5761,1.321
56.5771,1.296
56.5771,1.276
56.5771,1.253
56.5771,1.249
56.5781,1.236
56.5781,1.231
56.5781,1.23
56.5781,1.23
56.5781,1.23
56.5791,1.243
56.5791,1.394
56.5791,1.518
56.5791,1.521
56.5791,1.553
56.5801,1.704
56.5801,1.846
56.5801,1.967
56.5801,2.286
56.5811,2.322
56.5811,2.32
56.5811,2.266
56.5811,2.222
56.5821,2.208
56.5821,2.077
56.5821,2.056
56.5821,2.045
56.5821,2.034
56.5821,2.006
56.5831,1.965
56.5831,1.948
56.5831,1.935
56.5831,1.916
56.5841,1.909
56.5841,1.867
56.5841,1.751
56.5841,1.696
56.5841,1.669
56.5851,1.64
56.5851,1.619
56.5851,1.61
56.5851,1.612
56.5861,1.614
56.5861,1.61
56.5861,1.629
56.5861,1.643
56.5861,1.652
56.5871,1.667
56.5871,1.64
56.5871,1.628
56.5871,1.601
56.5881,1.582
56.5881,1.54
56.5881,1.52
56.5891,1.525
56.5891,1.531
56.5891,1.534
56.5891,1.542
56.5901,1.566
56.5901,1.586
56.5901,1.601
56.5901,1.615
56.5910,1.619
56.5910,1.599
56.5910,1.56
56.5910,1.545
56.5920,1.54
56.5920,1.517
56.5920,1.504
56.5920,1.506
56.5930,1.515
56.5930,1.529
56.5930,1.547
56.5930,1.55
56.5930,1.564
56.5930,1.6
56.5940,1.605
56.5940,1.608
56.5940,1.574
56.5940,1.565
56.5950,1.555
56.5950,1.514
56.5950,1.496
56.5950,1.504
56.5960,1.514
56.5960,1.508
56.5960,1.522
56.5960,1.554
56.5960,1.566
56.5970,1.6
56.5970,1.612
56.5970,1.603
56.5970,1.589
56.5980,1.562
56.5980,1.549
56.5980,1.537
56.5980,1.52
56.5990,1.494
56.5990,1.494
56.5990,1.523
56.5990,1.52
56.6000,1.539
56.6000,1.556
56.6000,1.565
56.6000,1.6
56.6000,1.613
56.6010,1.599
56.6010,1.571
56.6010,1.561
56.6010,1.546
56.6020,1.511
56.6020,1.489
56.6020,1.492
56.6020,1.501
56.6030,1.503
56.6030,1.516
56.6030,1.543
56.6030,1.559
56.6030,1.587
56.6040,1.585
56.6040,1.592
56.6040,1.586
56.6050,1.547
56.6050,1.53
56.6050,1.513
56.6050,1.499
56.6060,1.469
56.6060,1.481
56.6060,1.496
56.6060,1.485
56.6060,1.496
56.6070,1.51
56.6070,1.519
56.6070,1.555
56.6070,1.569
56.6070,1.55
56.6080,1.521
56.6080,1.507
56.6080,1.492
56.6080,1.459
56.6090,1.433
56.6090,1.421
56.6090,1.428
56.6090,1.44
56.6100,1.449
56.6100,1.461
56.6100,1.468
56.6100,1.48
56.6100,1.487
56.6110,1.502
56.6110,1.454
56.6110,1.432
56.6110,1.414
56.6110,1.394
56.6120,1.374
56.6120,1.346
56.6120,1.339
56.6120,1.338
56.6130,1.344
56.6130,1.356
56.6130,1.364
56.6130,1.365
56.6140,1.401
56.6140,1.403
56.6140,1.386
56.6140,1.364
56.6150,1.347
56.6150,1.328
56.6150,1.298
56.6150,1.275
56.6150,1.27
56.6160,1.283
56.6160,1.284
56.6160,1.286
56.6160,1.313
56.6160,1.322
56.6170,1.335
56.6170,1.357
56.6170,1.379
56.6170,1.366
56.6180,1.344
56.6180,1.32
56.6180,1.304
56.6180,1.295
56.6180,1.282
56.6190,1.284
56.6190,1.286
56.6190,1.306
56.6190,1.324
56.6200,1.337
56.6200,1.354
56.6200,1.388
56.6200,1.393
56.6210,1.426
56.6210,1.413
56.6210,1.398
56.6210,1.391
56.6220,1.388
56.6220,1.381
56.6220,1.362
56.6220,1.391
56.6230,1.41
56.6230,1.417
56.6230,1.445
56.6230,1.46
56.6230,1.512
56.6240,1.53
56.6240,1.568
56.6240,1.577
56.6240,1.559
56.6250,1.55
56.6250,1.532
56.6250,1.525
56.6250,1.507
56.6260,1.501
56.6260,1.521
56.6260,1.549
56.6260,1.565
56.6270,1.58
56.6270,1.604
56.6270,1.619
56.6270,1.645
56.6270,1.688
56.6279,1.661
56.6279,1.645
56.6279,1.619
56.6279,1.592
56.6289,1.575
56.6289,1.593
56.6289,1.603
56.6289,1.611
56.6299,1.641
56.6299,1.655
57.4030,1.675
57.4048,1.695
57.4048,1.706
57.4058,1.719
57.4058,1.684
57.4068,1.672
57.4068,1.659
57.4078,1.645
57.4078,1.617
57.4088,1.598
57.4088,1.626
57.4088,1.634
57.4098,1.643
57.4098,1.65
57.4108,1.666
57.4108,1.692
57.4108,1.715
57.4118,1.739
57.4118,1.701
57.4128,1.684
57.4128,1.67
57.4128,1.662
57.4138,1.62
57.4138,1.604
57.4148,1.606
57.4148,1.62
57.4148,1.632
57.4158,1.645
57.4158,1.664
57.4158,1.675
57.4168,1.698
57.4168,1.716
57.4178,1.724
57.4178,1.688
57.4178,1.68
57.4187,1.668
57.4187,1.65
57.4187,1.626
57.4207,1.609
57.4257,1.617
57.4347,1.625
57.4417,1.64
57.4427,1.656
57.4437,1.669
57.4437,1.687
57.4437,1.713
57.4437,1.725
57.4437,1.714
57.4437,1.689
57.4447,1.673
57.4447,1.654
57.4447,1.625
57.4447,1.613
57.4447,1.611
57.4447,1.615
57.4457,1.625
57.4457,1.649
57.4457,1.668
57.4457,1.684
57.4457,1.71
57.4457,1.72
57.4457,1.717
57.4466,1.686
57.4466,1.668
57.4466,1.664
57.4466,1.644
57.4466,1.625
57.4466,1.603
57.4466,1.614
57.4466,1.626
57.4476,1.637
57.4476,1.645
57.4476,1.658
57.4476,1.673
57.4476,1.708
57.4476,1.718
57.4486,1.691
57.4486,1.676
57.4486,1.667
57.4486,1.657
57.4486,1.617
57.4486,1.603
57.4486,1.606
57.4496,1.614
57.4496,1.621
57.4496,1.65
57.4496,1.663
57.4496,1.676
57.4496,1.694
57.4496,1.701
57.4506,1.716
57.4506,1.683
57.4506,1.672
57.4506,1.657
57.4506,1.64
57.4506,1.62
57.4516,1.617
57.4516,1.624
57.4516,1.638
57.4516,1.644
57.4516,1.652
57.4516,1.666
57.4516,1.683
57.4516,1.709
57.4526,1.721
57.4526,1.703
57.4526,1.684
57.4526,1.675
57.4526,1.659
57.4526,1.629
57.4526,1.616
57.4536,1.601
57.4536,1.616
57.4536,1.63
57.4536,1.647
57.4536,1.664
57.4536,1.691
57.4536,1.705
57.4546,1.706
57.4546,1.721
57.4546,1.725
57.4556,1.697
57.4556,1.676
57.4556,1.659
57.4556,1.643
57.4556,1.626
57.4556,1.633
57.4567,1.637
57.4567,1.655
57.4567,1.669
57.4567,1.682
57.4567,1.698
57.4567,1.718
57.4567,1.721
57.4567,1.712
57.4577,1.699
57.4577,1.695
57.4577,1.675
57.4577,1.662
57.4577,1.637
57.4577,1.623
57.4577,1.652
57.4587,1.638
57.4587,1.652
57.4587,1.665
57.4587,1.679
57.4587,1.723
57.4587,1.73
57.4587,1.73
57.4596,1.715
57.4596,1.699
57.4596,1.691
57.4596,1.668
57.4596,1.644
57.4596,1.623
57.4606,1.626
57.4606,1.634
57.4606,1.652
57.4606,1.668
57.4606,1.685
57.4616,1.699
57.4616,1.718
57.4616,1.726
57.4616,1.726
57.4616,1.705
57.4616,1.688
57.4616,1.681
57.4626,1.666
57.4626,1.648
57.4626,1.624
57.4626,1.635
57.4626,1.643
57.4626,1.659
57.4626,1.671
57.4636,1.687
57.4636,1.696
57.4636,1.73
57.4636,1.725
57.4636,1.719
57.4636,1.709
57.4636,1.689
57.4636,1.67
57.4646,1.649
57.4646,1.622
57.4646,1.618
57.4646,1.625
57.4646,1.63
57.4646,1.626
57.4646,1.645
57.4656,1.651
57.4656,1.667
57.4656,1.692
57.4656,1.701
57.4656,1.656
57.4656,1.652
57.4656,1.642
57.4666,1.632
57.4666,1.618
57.4666,1.581
57.4666,1.594
57.4666,1.617
57.4666,1.62
57.4676,1.629
57.4676,1.647
57.4676,1.661
57.4676,1.7
57.4676,1.72
57.4676,1.717
57.4676,1.687
57.4686,1.669
57.4686,1.666
57.4686,1.646
57.4686,1.627
57.4686,1.623
57.4686,1.624
57.4686,1.635
57.4696,1.651
57.4696,1.683
57.4696,1.7
57.4696,1.713
57.4696,1.721
57.4696,1.74
57.4696,1.72
57.4696,1.695
57.4706,1.685
57.4706,1.677
57.4706,1.651
57.4706,1.633
57.4706,1.632
57.4716,1.645
57.4716,1.662
57.4716,1.673
57.4716,1.684
57.4726,1.696
57.4726,1.739
57.4726,1.734
57.4726,1.737
57.4726,1.729
57.4726,1.718
57.4736,1.679
57.4736,1.668
57.4736,1.648
57.4736,1.644
57.4736,1.647
57.4736,1.655
57.4736,1.683
57.4746,1.697
57.4746,1.706
57.4746,1.733
57.4746,1.751
57.4746,1.752
57.4746,1.746
57.4746,1.722
57.4756,1.713
57.4756,1.695
57.4756,1.673
57.4756,1.654
57.4756,1.652
57.4756,1.661
57.4766,1.673
57.4766,1.68
57.4766,1.699
57.4766,1.729
57.4766,1.738
57.4766,1.74
57.4776,1.749
57.4776,1.741
57.4776,1.719
57.4776,1.698
57.4776,1.678
57.4776,1.654
57.4776,1.652
57.4776,1.646
57.4786,1.662
57.4786,1.698
57.4786,1.713
57.4786,1.724
57.4786,1.728
57.4786,1.73
57.4786,1.727
57.4796,1.707
57.4796,1.703
57.4796,1.7
57.4796,1.682
57.4796,1.665
57.4796,1.531
57.4796,1.471
57.4806,1.428
57.4806,1.381
57.4806,1.343
57.4806,1.312
57.4806,1.259
57.4806,1.251
57.4816,1.246
57.4816,1.243
57.4816,1.239
57.4816,1.237
57.4816,1.24
57.4816,1.529
57.4816,1.616
57.4826,1.58
57.4826,1.568
57.4826,1.624
57.4826,1.922
57.4826,2.061
57.4826,2.283
57.4835,2.419
57.4835,2.469
57.4835,2.469
57.4835,2.408
57.4835,2.372
57.4835,2.321
57.4835,2.256
57.4845,2.218
57.4845,2.156
57.4845,2.082
57.4845,2.067
57.4845,2.037
57.4845,2.011
57.4845,1.993
57.4855,1.988
57.4855,1.949
57.4855,1.93
57.4855,1.905
57.4855,1.863
57.4855,1.815
57.4855,1.794
57.4865,1.744
57.4865,1.706
57.4865,1.685
57.4865,1.673
57.4865,1.697
57.4865,1.691
57.4865,1.701
57.4875,1.718
57.4875,1.726
57.4875,1.749
57.4875,1.751
57.4875,1.726
57.4875,1.705
57.4885,1.678
57.4885,1.659
57.4885,1.651
57.4885,1.64
57.4885,1.619
57.4885,1.619
57.4885,1.624
57.4895,1.637
57.4895,1.64
57.4895,1.655
57.4895,1.679
57.4895,1.697
57.4895,1.71
57.4895,1.687
57.4905,1.662
57.4905,1.635
57.4905,1.616
57.4905,1.611
57.4905,1.588
57.4905,1.58
57.4905,1.59
57.4915,1.611
57.4915,1.62
57.4915,1.634
57.4915,1.651
57.4915,1.674
57.4915,1.676
57.4925,1.703
57.4925,1.673
57.4925,1.655
57.4925,1.634
57.4925,1.616
57.4925,1.61
57.4925,1.572
57.4935,1.598
57.4935,1.61
57.4935,1.619
57.4935,1.624
57.4935,1.633
57.4935,1.664
57.4935,1.673
57.4945,1.689
57.4945,1.69
57.4945,1.661
57.4945,1.621
57.4945,1.61
57.4945,1.598
57.4945,1.577
57.4955,1.577
57.4955,1.597
57.4955,1.616
57.4955,1.618
57.4955,1.632
57.4955,1.636
57.4955,1.66
57.4955,1.674
57.4965,1.684
57.4965,1.643
57.4965,1.632
57.4965,1.621
57.4965,1.606
57.4965,1.59
57.4965,1.564
57.4975,1.588
57.4975,1.586
57.4975,1.583
57.4975,1.603
57.4975,1.617
57.4975,1.639
57.4985,1.648
57.4985,1.67
57.4985,1.658
57.4985,1.638
57.4985,1.598
57.4985,1.58
57.4995,1.562
57.4995,1.54
57.4995,1.539
57.4995,1.544
57.4995,1.555
57.4995,1.562
57.4995,1.568
57.5005,1.582
57.5005,1.611
57.5005,1.619
57.5005,1.607
57.5005,1.586
57.5005,1.569
57.5015,1.547
57.5015,1.527
57.5015,1.489
57.5015,1.478
57.5015,1.481
57.5015,1.491
57.5025,1.489
57.5025,1.49
57.5025,1.506
57.5025,1.529
57.5025,1.534
57.5025,1.532
57.5025,1.51
57.5035,1.501
57.5035,1.464
57.5035,1.428
57.5035,1.407
57.5035,1.391
57.5035,1.379
57.5035,1.375
57.5045,1.387
57.5045,1.39
57.5045,1.398
57.5045,1.402
57.5045,1.422
57.5055,1.441
57.5055,1.435
57.5055,1.415
57.5055,1.39
57.5055,1.376
57.5055,1.363
57.5055,1.334
57.5065,1.307
57.5065,1.31
57.5065,1.333
57.5065,1.333
57.5065,1.336
57.5065,1.35
57.5075,1.39
57.5075,1.403
57.5075,1.419
57.5075,1.423
57.5075,1.417
57.5075,1.392
57.5075,1.368
57.5085,1.361
57.5085,1.343
57.5085,1.322
57.5085,1.342
57.5085,1.365
57.5085,1.375
57.5085,1.395
57.5085,1.421
57.5095,1.445
57.5095,1.469
57.5095,1.507
57.5095,1.501
57.5095,1.484
57.5095,1.48
57.5095,1.479
57.5105,1.45
57.5105,1.468
57.5105,1.504
57.5105,1.504
57.5105,1.521
57.5105,1.573
57.5115,1.6
57.5115,1.625
57.5115,1.649
57.5115,1.674
57.5115,1.664
57.5115,1.63
57.5115,1.624
57.5125,1.615
57.5125,1.595
57.5125,1.585
57.5125,1.625
57.5125,1.628
57.5125,1.639
57.5125,1.655
57.5135,1.682
57.5135,1.708
57.5135,1.747
57.5145,1.769
57.5145,1.757
57.5145,1.729
57.5155,1.715
57.5155,1.701
57.5155,1.664
57.5155,1.652
57.5155,1.673
57.5155,1.695
57.5165,1.686
57.5165,1.7
57.5165,1.727
57.5165,1.735
57.5165,1.765
57.5165,1.789
57.5165,1.801
57.5175,1.78
57.5175,1.74
57.5175,1.727
57.5175,1.709
57.5175,1.691
57.5175,1.671
57.5175,1.68
57.5185,1.694
57.5185,1.712
57.5185,1.725
57.5185,1.739
57.5185,1.75
57.5185,1.779
57.5185,1.807
57.5195,1.788
57.5195,1.768
57.5195,1.753
57.5195,1.742
57.5195,1.706
57.5195,1.682
57.5195,1.688
57.5205,1.687
57.5205,1.687
57.5224,1.704
57.5234,1.725
57.5234,1.738
57.5255,1.769
57.5284,1.788
57.5334,1.804
57.5344,1.779
57.5364,1.748
57.5374,1.73
57.5374,1.713
57.5374,1.691
57.5374,1.672
57.5384,1.684
57.5384,1.691
57.5384,1.7
57.5394,1.713
57.5394,1.731
57.5394,1.739
57.5394,1.792
57.5394,1.805
57.5394,1.785
57.5394,1.76
57.5394,1.75
57.5404,1.73
57.5404,1.695
57.5404,1.68
57.5404,1.679
57.5404,1.683
57.5404,1.684
57.5404,1.697
57.5414,1.727
57.5414,1.731
57.5414,1.762
57.5414,1.791
57.5414,1.79
57.5414,1.775
57.5414,1.748
57.5424,1.728
57.5424,1.713
57.5424,1.698
57.5424,1.68
57.5424,1.678
57.5434,1.694
57.5434,1.7
57.5434,1.706
57.5444,1.725
57.5444,1.736
57.5444,1.764
57.5444,1.793
57.5444,1.788
57.5444,1.759
57.5454,1.735
57.5454,1.726
57.5454,1.708
57.5454,1.677
57.5454,1.668
57.5454,1.699
57.5454,1.695
57.5464,1.695
57.5464,1.706
57.5464,1.733
57.5464,1.752
57.5464,1.782
57.5464,1.815
57.5464,1.802
57.5474,1.765
57.5474,1.733
57.5474,1.712
57.5474,1.697
57.5474,1.673
57.5474,1.673
57.5474,1.687
57.5484,1.703
57.5484,1.72
57.5484,1.738
57.5484,1.752
57.5484,1.775
57.5484,1.797
57.5484,1.784
57.5494,1.773
57.5494,1.756
57.5494,1.741
57.5494,1.724
57.5494,1.707
57.5494,1.676
57.5504,1.699
57.5504,1.692
57.5504,1.695
57.5520,1.706
57.5520,1.726
57.5520,1.777
57.5520,1.782
57.5520,1.794
57.5520,1.795
57.5530,1.769
57.5530,1.748
57.5530,1.721
57.5530,1.704
57.5530,1.683
57.5530,1.673
57.5530,1.695
57.5540,1.716
57.5540,1.719
57.5540,1.737
57.5540,1.749
57.5540,1.763
57.5540,1.779
57.5550,1.797
57.5550,1.785
57.5550,1.764
57.5560,1.745
57.5560,1.726
58.3124,1.718
58.3124,1.695
58.3124,1.693
58.3135,1.712
58.3135,1.709
58.3135,1.719
58.3135,1.733
58.3135,1.739
58.3144,1.784
58.3144,1.805
58.3164,1.817
58.3204,1.782
58.3214,1.759
58.3214,1.744
58.3224,1.71
58.3224,1.674
58.3224,1.673
58.3235,1.702
58.3235,1.714
58.3235,1.701
58.3235,1.731
58.3235,1.741
58.3235,1.763
58.3235,1.791
58.3244,1.794
58.3244,1.807
58.3244,1.76
58.3244,1.742
58.3244,1.726
58.3244,1.712
58.3244,1.683
58.3254,1.679
58.3254,1.704
58.3254,1.711
58.3254,1.727
58.3254,1.725
58.3254,1.743
58.3254,1.764
58.3264,1.808
58.3264,1.801
58.3264,1.781
58.3264,1.764
58.3264,1.754
58.3264,1.726
58.3264,1.709
58.3274,1.685
58.3274,1.684
58.3274,1.698
58.3274,1.691
58.3274,1.709
58.3274,1.726
58.3274,1.75
58.3284,1.763
58.3284,1.766
58.3284,1.752
58.3314,1.722
58.3384,1.705
58.3384,1.684
58.3414,1.664
58.3454,1.648
58.3464,1.625
58.3474,1.661
58.3474,1.658
58.3474,1.67
58.3474,1.683
58.3474,1.689
58.3474,1.729
58.3483,1.77
58.3483,1.759
58.3483,1.737
58.3483,1.72
58.3483,1.709
58.3483,1.697
58.3483,1.669
58.3493,1.663
58.3493,1.664
58.3493,1.682
58.3493,1.699
58.3493,1.718
58.3493,1.729
58.3503,1.754
58.3503,1.777
58.3503,1.787
58.3503,1.793
58.3513,1.759
58.3524,1.749
58.3573,1.731
58.3583,1.722
58.3593,1.693
58.3593,1.699
58.3593,1.704
58.3593,1.7
58.3593,1.717
58.3604,1.733
58.3604,1.749
58.3604,1.77
58.3604,1.796
58.3604,1.794
58.3604,1.772
58.3604,1.759
58.3613,1.757
58.3613,1.733
58.3613,1.702
58.3613,1.676
58.3613,1.69
58.3613,1.716
58.3613,1.727
58.3623,1.739
58.3623,1.757
58.3623,1.777
58.3623,1.787
58.3623,1.786
58.3623,1.8
58.3623,1.763
58.3633,1.757
58.3633,1.748
58.3633,1.724
58.3633,1.706
58.3633,1.701
58.3633,1.716
58.3633,1.717
58.3643,1.728
58.3643,1.741
58.3643,1.752
58.3643,1.796
58.3643,1.802
58.3643,1.803
58.3643,1.802
58.3653,1.774
58.3653,1.761
58.3653,1.729
58.3713,1.709
58.3723,1.69
58.3723,1.699
58.3733,1.723
58.3733,1.721
58.3743,1.731
58.3743,1.738
58.3743,1.759
58.3743,1.796
58.3743,1.81
58.3743,1.808
58.3743,1.774
58.3753,1.733
58.3753,1.722
58.3753,1.713
58.3753,1.691
58.3753,1.675
58.3753,1.683
58.3753,1.674
58.3763,1.664
58.3763,1.629
58.3763,1.575
58.3763,1.514
58.3763,1.499
58.3763,1.507
58.3773,1.484
58.3773,1.385
58.3773,1.337
58.3773,1.297
58.3773,1.271
58.3773,1.264
58.3773,1.399
58.3783,1.677
58.3783,1.833
58.3783,1.763
58.3783,1.763
58.3783,1.803
58.3783,1.994
58.3783,2.168
58.3793,2.39
58.3793,2.602
58.3793,2.557
58.3793,2.48
58.3793,2.412
58.3803,2.361
58.3803,2.296
58.3843,2.301
58.3892,2.278
58.3902,2.243
58.3922,2.207
58.3972,2.175
58.3972,2.119
58.3972,2.103
58.4002,2.087
58.4012,2.052
58.4062,1.997
58.4082,1.944
58.4092,1.832
58.4142,1.798
58.4142,1.749
58.4152,1.723
58.4162,1.729
58.4162,1.722
58.4182,1.726
58.4231,1.737
58.4241,1.754
58.4241,1.777
58.4251,1.794
58.4251,1.794
58.4251,1.766
58.4251,1.736
58.4251,1.72
58.4251,1.701
58.4251,1.67
58.4262,1.632
58.4262,1.648
58.4262,1.662
58.4262,1.673
58.4262,1.664
58.4262,1.671
58.4272,1.728
58.4272,1.728
58.4272,1.747
58.4272,1.748
58.4272,1.72
58.4272,1.691
58.4272,1.661
58.4282,1.655
58.4282,1.625
58.4282,1.621
58.4282,1.642
58.4282,1.63
58.4282,1.646
58.4282,1.659
58.4282,1.68
58.4292,1.708
58.4292,1.733
58.4292,1.727
58.4292,1.699
58.4292,1.688
58.4292,1.675
58.4292,1.642
58.4301,1.629
58.4301,1.612
58.4301,1.634
58.4301,1.642
58.4321,1.621
58.4361,1.64
58.4371,1.655
58.4381,1.682
58.4391,1.711
58.4391,1.737
58.4391,1.714
58.4391,1.692
58.4391,1.664
58.4401,1.646
58.4401,1.636
58.4401,1.605
58.4401,1.594
58.4401,1.608
58.4401,1.621
58.4411,1.629
58.4411,1.652
58.4411,1.664
58.4411,1.677
58.4411,1.684
58.4411,1.711
58.4411,1.682
58.4421,1.667
58.4421,1.657
58.4421,1.638
58.4421,1.616
58.4421,1.575
58.4421,1.589
58.4421,1.607
58.4431,1.6
58.4431,1.605
58.4431,1.623
58.4431,1.661
58.4431,1.672
58.4431,1.68
58.4441,1.684
58.4441,1.665
58.4441,1.621
58.4441,1.606
58.4441,1.586
58.4441,1.564
58.4451,1.544
58.4451,1.57
58.4451,1.568
58.4451,1.578
58.4461,1.587
58.4491,1.588
58.4521,1.612
58.4531,1.64
58.4531,1.643
58.4541,1.616
58.4541,1.59
58.4541,1.565
58.4541,1.548
58.4551,1.536
58.4551,1.484
58.4551,1.493
58.4551,1.495
58.4561,1.49
58.4561,1.497
58.4561,1.519
58.4561,1.517
58.4561,1.537
58.4561,1.547
58.4561,1.55
58.4571,1.515
58.4571,1.486
58.4571,1.45
58.4571,1.434
58.4571,1.403
58.4571,1.383
58.4571,1.382
58.4571,1.382
58.4581,1.385
58.4581,1.395
58.4581,1.403
58.4581,1.418
58.4581,1.441
58.4581,1.434
58.4581,1.417
58.4591,1.385
58.4591,1.368
58.4591,1.351
58.4591,1.327
58.4591,1.304
58.4601,1.324
58.4601,1.321
58.4620,1.323
58.4691,1.351
58.4691,1.379
58.4700,1.396
58.4700,1.4
58.4700,1.414
58.4710,1.4
58.4710,1.35
58.4710,1.342
58.4720,1.338
58.4720,1.314
58.4720,1.292
58.4720,1.305
58.4720,1.325
58.4730,1.336
58.4730,1.357
58.4730,1.374
58.4730,1.39
58.4730,1.425
58.4730,1.482
58.4730,1.466
58.4730,1.45
58.4740,1.454
58.4740,1.433
58.4740,1.421
58.4740,1.411
58.4750,1.415
58.4790,1.433
58.4830,1.448
58.4840,1.478
58.4910,1.507
58.4920,1.551
58.4920,1.586
58.4930,1.599
58.4930,1.621
58.4930,1.632
58.4930,1.603
58.4930,1.599
58.4940,1.594
58.4940,1.581
58.4940,1.567
58.4940,1.578
58.4940,1.61
58.4940,1.619
58.4940,1.642
58.4950,1.671
58.4950,1.694
58.4950,1.729
58.4950,1.775
58.4950,1.751
58.4950,1.73
58.4950,1.715
58.4960,1.7
58.4960,1.698
58.4960,1.666
58.4989,1.658
58.4999,1.678
58.5069,1.698
58.5079,1.706
58.5109,1.725
58.5119,1.76
58.5169,1.786
58.5199,1.805
58.5209,1.814
58.5239,1.793
58.5299,1.763
58.5309,1.748
58.5368,1.738
58.5388,1.723
58.5428,1.709
58.5458,1.697
58.5458,1.724
58.5468,1.734
58.5468,1.742
58.5468,1.758
58.5468,1.765
58.5468,1.791
58.5478,1.818
58.5478,1.819
58.5478,1.777
58.5478,1.755
58.5488,1.748
58.5488,1.742
58.5488,1.698
58.5488,1.702
58.5488,1.717
58.5488,1.713
58.5498,1.718
58.5498,1.747
58.5498,1.764
58.5498,1.778
58.5498,1.798
58.5498,1.814
58.5498,1.793
58.5508,1.763
58.5508,1.744
58.5508,1.728
58.5508,1.7
58.5508,1.693
58.5508,1.672
58.5518,1.698
58.5518,1.7
58.5518,1.713
58.5518,1.745
58.5518,1.754
58.5518,1.759
58.5518,1.769
58.5518,1.799
58.5528,1.761
58.5528,1.746
58.5528,1.719
58.5528,1.722
58.5528,1.697
58.5528,1.661
58.5528,1.677
58.5538,1.688
58.5538,1.698
58.5538,1.705
58.5538,1.72
58.5548,1.755
58.5548,1.753
58.5638,1.773
58.5638,1.776
58.5648,1.747
58.5648,1.738
58.5648,1.71
58.5648,1.694
58.5648,1.67
58.5648,1.663
58.5648,1.684
58.5658,1.683
58.5658,1.702
58.5658,1.718
58.5658,1.734
58.5658,1.752
58.5658,1.769
58.5658,1.794
58.5668,1.759
58.5668,1.745
58.5668,1.727
58.5668,1.714
58.5668,1.701
58.5668,1.671
58.5678,1.688
58.5678,1.7
58.5678,1.697
58.5678,1.706
58.5678,1.717
58.5678,1.74
58.5678,1.767
58.5688,1.771
58.5688,1.776
58.5688,1.752
58.5688,1.736
58.5757,1.733
58.5757,1.707
58.5767,1.673
58.5767,1.68
58.5767,1.705
58.5777,1.712
58.5777,1.699
58.5777,1.726
58.5777,1.733
58.5777,1.749
58.5777,1.776
58.5777,1.788
58.5787,1.781
58.5787,1.744
58.5787,1.731
58.5787,1.717
58.5787,1.713
58.5787,1.691
58.5787,1.68
58.5797,1.712
58.5797,1.713
58.5797,1.719
58.5797,1.739
58.5797,1.75
58.5797,1.767
58.5797,1.8
58.5807,1.807
58.5807,1.785
58.5807,1.754
58.5807,1.729
58.5807,1.719
58.5807,1.697
58.5807,1.696
58.5817,1.72
58.5817,1.704
58.5817,1.715
58.5817,1.72
58.5817,1.746
58.5817,1.769
58.5817,1.795
58.5827,1.8
58.5827,1.8
58.5827,1.79
58.5827,1.742
58.5837,1.732
58.5837,1.721
58.5837,1.69
58.5837,1.686
58.5837,1.693
58.5837,1.708
58.5837,1.723
58.5847,1.74
58.5847,1.751
58.5847,1.766
58.5847,1.781
58.5847,1.807
58.5847,1.778
58.5847,1.758
58.5857,1.736
58.5857,1.714
58.5857,1.67
58.5857,1.649
58.5857,1.664
58.5857,1.68
58.5857,1.681
58.5857,1.673
58.5867,1.697
58.5867,1.712
58.5867,1.739
58.5867,1.757
58.5867,1.768
58.5867,1.751
58.5867,1.708
58.5877,1.692
58.5877,1.681
58.5877,1.653
58.5887,1.638
58.5887,1.662
58.5887,1.673
58.5887,1.691
58.5887,1.707
58.5887,1.722
58.5897,1.745
58.5897,1.767
58.5897,1.782
58.5897,1.781
58.5897,1.756
58.5897,1.75
58.5897,1.72
58.5907,1.688
58.5907,1.677
58.5907,1.701
58.5907,1.694
58.5907,1.704
58.5907,1.719
58.5907,1.743
58.5917,1.764
58.5917,1.788
58.5917,1.803
58.5917,1.793
58.5917,1.788
58.5917,1.733
58.5917,1.74
58.5927,1.724
58.5927,1.706
58.5927,1.69
58.5927,1.698
58.5927,1.705
58.5927,1.72
58.5927,1.733
58.5927,1.754
58.5937,1.751
58.5937,1.808
58.5937,1.808
58.5937,1.79
58.5947,1.763
58.5947,1.75
58.5947,1.733
58.5947,1.709
58.5947,1.7
58.5957,1.694
58.5957,1.708
58.5957,1.714
58.5957,1.722
58.5957,1.746
58.5957,1.776
58.5957,1.795
58.5957,1.805
58.5967,1.828
58.5967,1.821
58.5967,1.766
58.5967,1.754
58.5967,1.731
58.5967,1.714
58.5967,1.704
58.5977,1.694
58.5977,1.712
58.5977,1.72
58.5977,1.736
58.5977,1.749
58.5987,1.763
58.5987,1.791
58.5987,1.803
58.5987,1.798
58.5987,1.769
58.5987,1.756
58.5987,1.746
58.5987,1.706
58.5997,1.69
58.5997,1.697
58.5997,1.702
58.5997,1.712
58.5997,1.737
58.5997,1.77
58.6007,1.769
58.6007,1.781
58.6007,1.787
58.6007,1.801
58.6007,1.797
58.6007,1.761
58.6007,1.741
58.6017,1.717
58.6017,1.681
58.6017,1.642
58.6017,1.594
58.6017,1.518
58.6017,1.472
58.6017,1.454
58.6017,1.456
58.6027,1.426
58.6027,1.415
58.6027,1.382
58.6027,1.368
58.6027,1.388
58.6027,1.412
58.6027,1.629
58.6037,1.83
58.6037,1.774
58.6037,1.736
58.6037,1.729
58.6037,1.81
58.6037,1.932
58.6047,2.316
58.6047,2.459
58.6047,2.506
58.6047,2.503
58.6057,2.454
58.6057,2.388
58.6057,2.321
58.6057,2.278
58.6057,2.262
58.6057,2.233
58.6057,2.16
58.6067,2.111
58.6067,2.069
58.6067,2.037
58.6067,2.009
58.6067,1.991
58.6067,1.985
58.6067,1.981
58.6077,1.922
58.6077,1.884
58.6077,1.834
58.6077,1.802
58.6077,1.764
58.6077,1.727
58.6077,1.675
58.6087,1.671
58.6087,1.684
58.6087,1.7
58.6087,1.703
58.6087,1.709
58.6087,1.741
58.6087,1.75
58.6097,1.755
58.6097,1.776
58.6097,1.758
58.6097,1.715
58.6097,1.7
58.6097,1.671
58.6097,1.657
58.6097,1.63
58.6107,1.622
58.6107,1.647
58.6107,1.65
58.6107,1.661
58.6107,1.673
58.6107,1.683
58.6117,1.712
58.6117,1.724
58.6117,1.736
58.6117,1.71
58.6117,1.687
58.6117,1.671
58.6117,1.662
58.6126,1.616
58.6126,1.619
58.6126,1.63
58.6126,1.628
58.6126,1.641
58.6126,1.662
58.6126,1.675
58.6137,1.701
58.6156,1.711
58.6216,1.721
58.6226,1.714
58.6226,1.677
58.6236,1.658
58.6316,1.641
58.6326,1.629
58.6326,1.609
58.6336,1.607
58.6336,1.609
58.6336,1.615
58.6336,1.634
58.6336,1.649
58.6346,1.657
58.6346,1.7
58.6346,1.722
58.6346,1.701
58.6346,1.686
58.6346,1.672
58.6346,1.653
58.6356,1.63
58.6356,1.602
58.6356,1.587
58.6356,1.598
58.6356,1.622
58.6356,1.624
58.6356,1.639
58.6356,1.651
58.6366,1.665
58.6366,1.681
58.6366,1.705
58.6366,1.71
58.6366,1.664
58.6366,1.646
58.6366,1.62
58.6376,1.615
58.6376,1.586
58.6376,1.586
58.6376,1.601
58.6386,1.605
58.6386,1.617
58.6386,1.628
58.6386,1.636
58.6386,1.662
58.6396,1.685
58.6396,1.668
58.6396,1.65
58.6396,1.636
58.6396,1.623
58.6396,1.585
58.6396,1.564
58.6406,1.551
58.6406,1.548
58.6406,1.551
58.6406,1.56
58.6406,1.585
58.6406,1.603
58.6406,1.609
58.6416,1.619
58.6416,1.637
58.6416,1.64
58.6416,1.592
58.6416,1.58
58.6416,1.561
58.6416,1.539
58.6426,1.502
58.6426,1.494
58.6426,1.49
58.6426,1.497
58.6426,1.501
58.6426,1.511
58.6426,1.516
58.6436,1.535
58.6436,1.545
58.6436,1.548
58.6436,1.529
58.6436,1.502
58.6436,1.478
58.6436,1.435
58.6446,1.404
58.6446,1.385
58.6446,1.386
58.6446,1.382
58.6446,1.392
58.6446,1.406
58.6446,1.415
58.6456,1.418
58.6456,1.435
58.6456,1.448
58.6456,1.452
58.6456,1.401
58.6456,1.387
58.6456,1.368
58.6466,1.351
58.6466,1.329
58.6466,1.312
58.6466,1.34
58.6466,1.35
58.6466,1.361
58.6466,1.404
58.6476,1.412
58.6476,1.434
58.6476,1.436
58.6476,1.411
58.6476,1.399
59.2230,1.378
59.2240,1.366
59.2240,1.337
59.2250,1.325
59.2250,1.331
59.2250,1.356
59.2250,1.387
59.2250,1.406
59.2250,1.427
59.2250,1.45
59.2260,1.479
59.2260,1.517
59.2260,1.513
59.2260,1.511
59.2260,1.503
59.2260,1.495
59.2260,1.487
59.2270,1.474
59.2270,1.475
59.2270,1.497
59.2270,1.521
59.2270,1.534
59.2270,1.554
59.2270,1.582
59.2280,1.635
59.2280,1.656
59.2280,1.68
59.2280,1.672
59.2280,1.657
59.2280,1.647
59.2280,1.633
59.2290,1.623
59.2290,1.607
59.2290,1.61
59.2290,1.621
59.2290,1.642
59.2290,1.679
59.2290,1.698
59.2300,1.718
59.2300,1.757
59.2300,1.774
59.2300,1.77
59.2300,1.755
59.2300,1.743
59.2300,1.717
59.2310,1.703
59.2310,1.689
59.2310,1.682
59.2310,1.691
59.2310,1.708
59.2310,1.722
59.2310,1.735
59.2320,1.754
59.2320,1.805
59.2320,1.805
59.2320,1.816
59.2320,1.818
59.2320,1.785
59.2320,1.763
59.2320,1.754
59.2330,1.737
59.2330,1.717
59.2330,1.712
59.2330,1.709
59.2330,1.732
59.2330,1.748
59.2330,1.765
59.2340,1.776
59.2340,1.799
59.2340,1.804
59.2340,1.801
59.2340,1.784
59.2340,1.775
59.2350,1.751
59.2350,1.732
59.2350,1.715
59.2350,1.685
59.2350,1.706
59.2350,1.725
59.2350,1.72
59.2350,1.732
59.2360,1.751
59.2360,1.772
59.2360,1.781
59.2360,1.793
59.2360,1.79
59.2360,1.755
59.2360,1.73
59.2370,1.714
59.2370,1.7
59.2370,1.678
59.2370,1.676
59.2370,1.695
59.2370,1.707
59.2380,1.721
59.2380,1.732
59.2380,1.737
59.2380,1.762
59.2380,1.784
59.2380,1.771
59.2380,1.749
59.2390,1.741
59.2390,1.726
59.2390,1.708
59.2390,1.692
59.2390,1.655
59.2390,1.667
59.2390,1.678
59.2400,1.696
59.2400,1.702
59.2400,1.714
59.2400,1.768
59.2400,1.769
59.2400,1.775
59.2400,1.783
59.2410,1.758
59.2410,1.74
59.2410,1.709
59.2410,1.693
59.2410,1.667
59.2410,1.661
59.2410,1.675
59.2420,1.675
59.2420,1.7
59.2420,1.712
59.2420,1.725
59.2420,1.751
59.2420,1.769
59.2420,1.772
59.2430,1.757
59.2430,1.739
59.2430,1.73
59.2430,1.72
59.2430,1.708
59.2430,1.686
59.2430,1.694
59.2440,1.692
59.2440,1.697
59.2440,1.709
59.2440,1.726
59.2440,1.738
59.2440,1.778
59.2440,1.792
59.2440,1.771
59.2449,1.757
59.2449,1.75
59.2449,1.739
59.2449,1.703
59.2449,1.683
59.2449,1.672
59.2449,1.681
59.2459,1.693
59.2459,1.719
59.2459,1.732
59.2459,1.747
59.2459,1.776
59.2459,1.787
59.2459,1.793
59.2469,1.782
59.2469,1.751
59.2469,1.742
59.2469,1.735
59.2469,1.72
59.2469,1.692
59.2469,1.671
59.2479,1.708
59.2479,1.705
59.2479,1.717
59.2479,1.733
59.2479,1.741
59.2479,1.778
59.2479,1.804
59.2489,1.799
59.2489,1.771
59.2489,1.754
59.2489,1.745
59.2489,1.729
59.2489,1.703
59.2489,1.686
59.2499,1.692
59.2499,1.697
59.2499,1.708
59.2499,1.73
59.2499,1.745
59.2499,1.764
59.2509,1.788
59.2509,1.801
59.2509,1.789
59.2509,1.759
59.2509,1.75
59.2509,1.738
59.2509,1.715
59.2519,1.689
59.2519,1.67
59.2519,1.693
59.2519,1.692
59.2519,1.696
59.2519,1.711
59.2519,1.718
59.2529,1.73
59.2529,1.754
59.2529,1.757
59.2529,1.752
59.2529,1.719
59.2529,1.705
59.2529,1.678
59.2539,1.655
59.2539,1.631
59.2539,1.659
59.2539,1.659
59.2539,1.658
59.2539,1.691
59.2549,1.709
59.2549,1.72
59.2549,1.749
59.2549,1.779
59.2549,1.781
59.2549,1.745
59.2549,1.731
59.2559,1.718
59.2559,1.716
59.2559,1.703
59.2559,1.678
59.2559,1.692
59.2559,1.698
59.2559,1.711
59.2569,1.73
59.2569,1.746
59.2569,1.766
59.2569,1.803
59.2569,1.826
59.2569,1.804
59.2579,1.77
59.2579,1.755
59.2579,1.733
59.2579,1.712
59.2579,1.685
59.2579,1.703
59.2579,1.694
59.2579,1.698
59.2589,1.729
59.2589,1.746
59.2589,1.764
59.2589,1.8
59.2589,1.82
59.2589,1.819
59.2589,1.765
59.2599,1.758
59.2599,1.747
59.2599,1.741
59.2599,1.721
59.2599,1.697
59.2599,1.721
59.2599,1.727
59.2609,1.726
59.2609,1.742
59.2609,1.757
59.2609,1.791
59.2609,1.819
59.2609,1.845
59.2609,1.816
59.2619,1.792
59.2619,1.778
59.2619,1.746
59.2619,1.724
59.2619,1.702
59.2619,1.713
59.2619,1.716
59.2629,1.721
59.2629,1.74
59.2629,1.754
59.2629,1.765
59.2629,1.799
59.2629,1.813
59.2629,1.808
59.2629,1.78
59.2639,1.769
59.2639,1.752
59.2639,1.735
59.2639,1.72
59.2639,1.696
59.2639,1.706
59.2639,1.715
59.2649,1.72
59.2649,1.741
59.2649,1.758
59.2649,1.805
59.2649,1.818
59.2649,1.835
59.2659,1.834
59.2659,1.772
59.2659,1.745
59.2659,1.718
59.2659,1.694
59.2659,1.676
59.2659,1.661
59.2669,1.675
59.2669,1.633
59.2669,1.55
59.2669,1.504
59.2669,1.458
59.2669,1.453
59.2669,1.445
59.2679,1.334
59.2679,1.283
59.2679,1.265
59.2679,1.261
59.2679,1.242
59.2679,1.249
59.2679,1.49
59.2689,1.692
59.2689,1.747
59.2689,1.704
59.2689,1.705
59.2689,1.737
59.2689,2.066
59.2689,2.226
59.2689,2.415
59.2699,2.484
59.2719,2.46
59.2739,2.421
59.2769,2.358
59.2779,2.326
59.2789,2.283
59.2789,2.229
59.2799,2.225
59.2799,2.212
59.2799,2.16
59.2799,2.136
59.2799,2.102
59.2809,2.1
59.2809,2.096
59.2809,2.09
59.2809,1.99
59.2809,1.933
59.2809,1.876
59.2809,1.821
59.2818,1.784
59.2818,1.743
59.2818,1.738
59.2818,1.724
59.2818,1.73
59.2818,1.742
59.2818,1.755
59.2818,1.793
59.2828,1.811
59.2828,1.813
59.2828,1.815
59.2828,1.793
59.2828,1.766
59.2828,1.712
59.2828,1.704
59.2838,1.668
59.2838,1.647
59.2838,1.657
59.2838,1.668
59.2838,1.678
59.2838,1.693
59.2838,1.711
59.2848,1.735
59.2848,1.745
59.2848,1.759
59.2848,1.75
59.2848,1.722
59.2848,1.704
59.2848,1.685
59.2858,1.663
59.2858,1.64
59.2858,1.657
59.2858,1.653
59.2858,1.657
59.2858,1.672
59.2858,1.689
59.2858,1.717
59.2868,1.742
59.2868,1.773
59.2868,1.765
59.2868,1.738
59.2868,1.719
59.2868,1.685
59.2878,1.67
59.2878,1.641
59.2878,1.625
59.2878,1.63
59.2878,1.652
59.2889,1.653
59.2889,1.681
59.2889,1.694
59.2889,1.715
59.2889,1.731
59.2889,1.757
59.2889,1.739
59.2899,1.708
59.2899,1.691
59.2899,1.675
59.2899,1.664
59.2899,1.625
59.2899,1.639
59.2909,1.656
59.2909,1.646
59.2909,1.654
59.2909,1.669
59.2918,1.706
59.2918,1.729
59.2918,1.763
59.2918,1.753
59.2928,1.73
59.2928,1.707
59.2928,1.673
59.2928,1.651
59.2928,1.628
59.2928,1.618
59.2928,1.62
59.2938,1.632
59.2938,1.65
59.2938,1.662
59.2938,1.677
59.2938,1.699
59.2938,1.724
59.2938,1.734
59.2948,1.72
59.2948,1.696
59.2948,1.674
59.2948,1.66
59.2958,1.647
59.2958,1.594
59.2968,1.603
59.2968,1.626
59.2968,1.616
59.2978,1.627
59.2978,1.64
59.2978,1.667
59.2988,1.682
59.2988,1.698
59.2998,1.705
59.2998,1.698
59.3008,1.667
59.3008,1.62
59.3018,1.605
59.3018,1.578
59.3018,1.556
59.3028,1.571
59.3028,1.563
59.3028,1.561
59.3038,1.577
59.3038,1.591
59.3038,1.601
59.3038,1.628
59.3048,1.643
59.3048,1.617
59.3058,1.591
59.3058,1.567
59.3058,1.541
59.3058,1.518
59.3058,1.466
59.3068,1.467
59.3068,1.469
59.3078,1.474
59.3078,1.477
59.3088,1.488
59.3088,1.512
59.3098,1.537
59.3098,1.544
59.3108,1.544
59.3108,1.537
59.3108,1.493
59.3118,1.447
59.3118,1.43
59.3118,1.41
59.3118,1.385
59.3118,1.389
59.3128,1.411
59.3128,1.413
59.3128,1.43
59.3138,1.439
59.3138,1.45
59.3138,1.475
59.3138,1.508
59.3138,1.51
59.3148,1.472
59.3148,1.457
59.3148,1.439
59.3148,1.428
59.3158,1.382
59.3158,1.39
59.3158,1.416
59.3158,1.412
59.3168,1.421
59.3168,1.484
59.3168,1.515
59.3168,1.541
59.3178,1.574
59.3178,1.565
59.3178,1.531
59.3188,1.515
60.1316,1.504
60.1326,1.491
60.1326,1.481
60.1326,1.509
60.1326,1.52
60.1326,1.538
60.1326,1.564
60.1326,1.588
60.1336,1.604
60.1336,1.678
60.1336,1.711
60.1336,1.682
60.1336,1.663
60.1336,1.658
60.1336,1.653
60.1336,1.628
60.1346,1.614
60.1346,1.621
60.1346,1.627
60.1346,1.641
60.1346,1.659
60.1346,1.702
60.1346,1.722
60.1356,1.763
60.1356,1.772
60.1356,1.791
60.1356,1.793
60.1356,1.759
60.1356,1.742
60.1366,1.732
60.1366,1.727
60.1366,1.683
60.1366,1.701
60.1366,1.711
60.1366,1.714
60.1366,1.729
60.1376,1.745
60.1376,1.756
60.1376,1.821
60.1376,1.857
60.1376,1.839
60.1376,1.805
60.1386,1.787
60.1386,1.776
60.1386,1.737
60.1386,1.708
60.1386,1.717
60.1386,1.709
60.1386,1.717
60.1396,1.727
60.1396,1.755
60.1396,1.768
60.1396,1.811
60.1396,1.82
60.1396,1.837
60.1396,1.798
60.1396,1.779
60.1406,1.762
60.1406,1.742
60.1406,1.725
60.1406,1.699
60.1406,1.717
60.1406,1.709
60.1406,1.71
60.1415,1.725
60.1415,1.747
60.1415,1.765
60.1415,1.809
60.1415,1.827
60.1415,1.812
60.1415,1.793
60.1425,1.783
60.1425,1.766
60.1425,1.725
60.1425,1.695
60.1425,1.687
60.1425,1.699
60.1425,1.711
60.1435,1.711
60.1435,1.747
60.1435,1.761
60.1435,1.783
60.1435,1.815
60.1435,1.835
60.1435,1.792
60.1445,1.772
60.1445,1.753
60.1445,1.745
60.1445,1.714
60.1445,1.685
60.1445,1.701
60.1445,1.709
60.1455,1.708
60.1455,1.723
60.1455,1.739
60.1455,1.753
60.1455,1.793
60.1455,1.821
60.1455,1.809
60.1455,1.785
60.1465,1.763
60.1465,1.747
60.1465,1.707
60.1465,1.687
60.1465,1.687
60.1465,1.683
60.1465,1.681
60.1475,1.695
60.1475,1.733
60.1475,1.752
60.1475,1.782
60.1475,1.805
60.1475,1.81
60.1475,1.802
60.1485,1.755
60.1485,1.737
60.1485,1.723
60.1485,1.716
60.1485,1.687
60.1485,1.667
60.1485,1.704
60.1495,1.699
60.1495,1.711
60.1495,1.727
60.1495,1.744
60.1495,1.763
60.1495,1.811
60.1495,1.822
60.1505,1.788
60.1545,1.765
60.1595,1.748
60.1615,1.738
60.1625,1.692
60.1625,1.668
60.1625,1.684
60.1625,1.68
60.1635,1.688
60.1635,1.706
60.1635,1.738
60.1635,1.755
60.1635,1.777
60.1635,1.808
60.1635,1.819
60.1645,1.784
60.1645,1.748
60.1645,1.739
60.1645,1.708
60.1645,1.686
60.1645,1.679
60.1645,1.68
60.1655,1.7
60.1655,1.712
60.1655,1.724
60.1655,1.745
60.1655,1.765
60.1655,1.787
60.1655,1.808
60.1665,1.795
60.1665,1.769
60.1665,1.752
60.1675,1.731
60.1675,1.713
60.1675,1.672
60.1675,1.699
60.1685,1.691
60.1685,1.688
60.1685,1.702
60.1695,1.72
60.1695,1.737
60.1695,1.781
60.1695,1.817
60.1705,1.811
60.1705,1.786
60.1705,1.765
60.1705,1.747
60.1715,1.716
60.1715,1.692
60.1715,1.673
60.1715,1.674
60.1725,1.688
60.1725,1.698
60.1725,1.736
60.1725,1.757
60.1735,1.773
60.1735,1.795
60.1735,1.807
60.1735,1.811
60.1735,1.765
60.1735,1.72
60.1735,1.703
60.1745,1.684
60.1745,1.658
60.1745,1.637
60.1745,1.641
60.1745,1.653
60.1745,1.669
60.1745,1.68
60.1755,1.695
60.1755,1.738
60.1755,1.763
60.1755,1.782
60.1755,1.759
60.1755,1.725
60.1755,1.707
60.1765,1.681
60.1765,1.66
60.1765,1.632
60.1765,1.651
60.1765,1.662
60.1765,1.658
60.1765,1.698
60.1775,1.719
60.1775,1.739
60.1775,1.767
60.1775,1.796
60.1775,1.825
60.1775,1.762
60.1775,1.746
60.1785,1.733
60.1785,1.72
60.1785,1.685
60.1785,1.684
60.1785,1.683
60.1785,1.684
60.1785,1.694
60.1795,1.712
60.1795,1.737
60.1795,1.775
60.1795,1.811
60.1795,1.833
60.1795,1.79
60.1795,1.773
60.1804,1.757
60.1804,1.724
60.1804,1.7
60.1804,1.686
60.1804,1.695
60.1804,1.685
60.1804,1.701
60.1814,1.722
60.1814,1.739
60.1814,1.755
60.1814,1.795
60.1814,1.813
60.1814,1.816
60.1814,1.771
60.1824,1.761
60.1824,1.745
60.1824,1.727
60.1824,1.711
60.1824,1.673
60.1824,1.692
60.1824,1.698
60.1834,1.705
60.1834,1.723
60.1834,1.744
60.1834,1.8
60.1834,1.801
60.1834,1.817
60.1834,1.82
60.1844,1.784
60.1844,1.762
60.1844,1.731
60.1844,1.707
60.1844,1.679
60.1844,1.674
60.1844,1.699
60.1854,1.697
60.1854,1.719
60.1854,1.744
60.1854,1.751
60.1854,1.779
60.1854,1.801
60.1854,1.835
60.1864,1.778
60.1864,1.762
60.1864,1.745
60.1864,1.729
60.1864,1.713
60.1864,1.677
60.1864,1.697
60.1874,1.705
60.1874,1.72
60.1874,1.717
60.1874,1.717
60.1874,1.755
60.1884,1.778
60.1884,1.794
60.1884,1.789
60.1884,1.75
60.1884,1.709
60.1884,1.574
60.1895,1.482
60.1895,1.397
60.1895,1.335
60.1895,1.318
60.1895,1.286
60.1895,1.247
60.1895,1.245
60.1895,1.244
60.1905,1.242
60.1905,1.243
60.1905,1.276
60.1905,1.528
60.1905,1.699
60.1905,1.718
60.1915,1.671
60.1915,1.666
60.1915,1.729
60.1915,2.006
60.1915,2.158
60.1915,2.348
60.1915,2.441
60.1925,2.478
60.1925,2.447
60.1925,2.465
60.1925,2.453
60.1925,2.389
60.1925,2.321
60.1925,2.278
60.1925,2.169
60.1934,2.113
60.1934,2.07
60.1934,2.013
60.1934,1.994
60.1934,1.985
60.1934,1.944
60.1934,1.929
60.1944,1.899
60.1944,1.895
60.1944,1.889
60.1944,1.893
60.1944,1.841
60.1944,1.799
60.1944,1.776
60.1954,1.749
60.1954,1.73
60.1954,1.693
60.1954,1.704
60.1954,1.713
60.1954,1.7
60.1954,1.718
60.1964,1.727
60.1964,1.737
60.1964,1.76
60.1964,1.793
60.1964,1.765
60.1964,1.734
60.1964,1.715
60.1964,1.673
60.1974,1.655
60.1974,1.633
60.1974,1.623
60.1974,1.625
60.1974,1.632
60.1974,1.651
60.1974,1.67
60.1984,1.691
60.1984,1.726
60.1984,1.736
60.1984,1.753
60.1984,1.731
60.1994,1.703
60.1994,1.681
60.1994,1.665
60.1994,1.646
60.1994,1.595
60.1994,1.617
60.1994,1.64
60.2004,1.627
60.2004,1.637
60.2004,1.656
60.2004,1.694
60.2004,1.711
60.2004,1.736
60.2014,1.753
60.2014,1.718
60.2014,1.689
60.2014,1.655
60.2014,1.638
60.2014,1.605
60.2014,1.587
60.2014,1.613
60.2024,1.605
60.2024,1.633
60.2024,1.649
60.2024,1.666
60.2024,1.686
60.2024,1.723
60.2024,1.749
60.2034,1.706
60.2034,1.686
60.2034,1.672
60.2034,1.66
60.2034,1.626
60.2034,1.588
60.2044,1.584
60.2044,1.601
60.2044,1.603
60.2044,1.622
60.2044,1.637
60.2044,1.676
60.2054,1.713
60.2054,1.715
60.2054,1.717
60.2054,1.697
60.2054,1.671
60.2054,1.639
60.2054,1.622
60.2054,1.601
60.2064,1.575
60.2064,1.581
60.2064,1.591
60.2064,1.6
60.2064,1.621
60.2064,1.633
60.2064,1.662
60.2074,1.684
60.2074,1.685
60.2074,1.679
60.2074,1.643
60.2074,1.621
60.2074,1.602
60.2074,1.583
60.2084,1.529
60.2084,1.539
60.2084,1.562
60.2084,1.542
60.2084,1.553
60.2084,1.568
60.2084,1.6
60.2084,1.616
60.2094,1.638
60.2094,1.657
60.2094,1.623
60.2094,1.583
60.2094,1.551
60.2094,1.524
60.2094,1.491
60.2104,1.468
60.2104,1.46
60.2104,1.475
60.2104,1.486
60.2104,1.49
60.2114,1.502
60.2114,1.509
60.2114,1.542
60.2114,1.555
60.2114,1.526
60.2114,1.493
60.2114,1.469
60.2124,1.439
60.2124,1.421
60.2124,1.363
60.2124,1.354
60.2124,1.361
60.2124,1.369
60.2124,1.38
60.2124,1.385
60.2134,1.413
60.2134,1.442
60.2134,1.456
60.2134,1.457
60.2134,1.444
60.2134,1.426
60.2144,1.379
60.2144,1.357
60.2144,1.336
60.2144,1.316
60.2144,1.314
60.2144,1.316
60.2144,1.347
60.2154,1.361
60.2154,1.38
60.2154,1.402
60.2154,1.438
60.2154,1.451
60.2154,1.46
60.2154,1.429
60.2163,1.416
60.2163,1.399
60.2163,1.389
60.2163,1.378
60.2163,1.346
60.2163,1.371
60.2163,1.39
60.2173,1.399
60.2173,1.424
60.2173,1.452
60.2173,1.543
60.2173,1.568
60.2173,1.585
60.2173,1.551
60.2183,1.536
60.2183,1.528
60.2183,1.52
60.2183,1.502
60.2183,1.507
60.2183,1.544
60.2183,1.55
60.2183,1.578
60.2193,1.607
60.2193,1.63
60.2193,1.666
60.2193,1.736
60.2193,1.726
60.2193,1.688
60.2203,1.685
60.2203,1.673
60.2203,1.662
60.2203,1.628
60.2203,1.642
60.2203,1.643
60.2213,1.648
60.2213,1.657
60.2213,1.684
60.2213,1.716
60.2213,1.758
60.2213,1.785
60.2213,1.789
60.2223,1.786
60.2223,1.76
60.2223,1.729
60.2223,1.708
60.2223,1.695
60.2223,1.671
60.2223,1.658
60.2233,1.677
60.2233,1.702
60.2233,1.717
60.2233,1.738
60.2233,1.757
60.2233,1.784
60.2233,1.815
60.2243,1.829
60.2243,1.781
60.2243,1.762
60.2243,1.741
60.2243,1.727
60.2243,1.678
60.2243,1.675
60.2243,1.704
60.2253,1.694
60.2253,1.707
60.2253,1.72
60.2253,1.741
60.2253,1.765
60.2253,1.797
60.2263,1.836
60.2263,1.817
60.2263,1.768
60.2263,1.746
60.2263,1.73
60.2263,1.707
60.2263,1.679
60.2263,1.683
60.2273,1.687
60.2273,1.701
60.2273,1.715
60.2273,1.729
60.2273,1.742
60.2273,1.771
60.2273,1.817
60.2283,1.81
60.2283,1.778
60.2283,1.76
60.2283,1.743
60.2283,1.727
60.2283,1.683
60.2283,1.668
60.2293,1.68
60.2293,1.693
60.2293,1.701
60.2293,1.719
60.2293,1.744
60.2293,1.778
60.2293,1.788
60.2303,1.805
60.2303,1.814
60.2303,1.756
60.2303,1.744
60.2303,1.723
60.2303,1.702
60.2313,1.673
60.2313,1.659
60.2313,1.687
60.2313,1.689
60.2313,1.708
60.2313,1.724
60.2313,1.741
60.2323,1.758
60.2323,1.826
60.2323,1.815
60.2323,1.786
60.2323,1.762
60.2323,1.745
60.2323,1.726
60.2333,1.675
60.2333,1.667
60.2333,1.671
60.2333,1.681
60.2333,1.693
60.2333,1.715
60.2333,1.741
60.2343,1.763
60.2343,1.8
60.2343,1.809
60.2343,1.805
60.2343,1.785
60.2343,1.748
60.2343,1.73
60.2353,1.713
60.2353,1.686
60.2353,1.665
60.2353,1.677
60.2353,1.701
60.2353,1.703
60.2353,1.727
60.2353,1.743
60.2363,1.774
60.2363,1.802
60.2363,1.806
60.2363,1.798
60.2363,1.773
60.2363,1.753
60.2363,1.732
60.2373,1.716
60.2373,1.668
60.2373,1.677
60.2373,1.688
60.2373,1.696
60.2383,1.713
60.2383,1.728
60.2383,1.77
60.2383,1.79
60.2383,1.817
60.2383,1.821
60.2383,1.804
60.2383,1.771
60.2393,1.736
60.2393,1.724
60.2393,1.693
60.2393,1.667
60.2393,1.69
60.2393,1.712
60.2393,1.713
60.2403,1.73
60.2403,1.75
60.2403,1.766
60.2403,1.792
60.2403,1.82
60.2403,1.802
60.2403,1.78
60.2413,1.763
60.2413,1.738
60.2413,1.723
60.2413,1.697
60.2413,1.695
60.2413,1.689
60.2413,1.703
60.2423,1.717
60.5876,1.731
60.5886,1.746
60.5896,1.8
60.5946,1.808
60.6076,1.809
60.6105,1.8
60.6115,1.767
60.6115,1.76
60.6115,1.725
60.6115,1.707
60.6125,1.673
60.6125,1.674
60.6125,1.688
60.6125,1.703
60.6135,1.726
60.6135,1.746
60.6135,1.75
60.6135,1.777
60.6135,1.815
60.6145,1.805
60.6145,1.749
60.6145,1.729
60.6145,1.705
60.6145,1.688
60.6145,1.656
60.6155,1.632
60.6155,1.652
60.6155,1.646
60.6155,1.664
60.6155,1.677
60.6155,1.691
60.6165,1.715
60.6165,1.757
60.6165,1.778
60.6165,1.763
60.6165,1.746
60.6165,1.723
60.6165,1.688
60.6175,1.669
60.6175,1.64
60.6175,1.648
60.6175,1.67
60.6175,1.681
60.6175,1.714
60.6185,1.725
60.6185,1.758
60.6185,1.775
60.6185,1.784
60.6185,1.802
60.6185,1.765
60.6195,1.751
60.6195,1.736
60.6195,1.717
60.6195,1.695
60.6195,1.674
60.6195,1.708
60.6195,1.693
60.6205,1.708
60.6205,1.719
60.6205,1.738
60.6215,1.755
60.6215,1.806
60.6215,1.835
60.6215,1.816
60.6215,1.784
60.6215,1.761
60.6225,1.74
60.6225,1.705
60.6225,1.679
60.6225,1.694
60.6225,1.685
60.6225,1.691
60.6225,1.703
60.6225,1.743
60.6235,1.756
60.6235,1.792
60.6235,1.82
60.6235,1.823
60.6235,1.786
60.6235,1.77
60.6235,1.752
60.6245,1.735
60.6245,1.716
60.6245,1.695
60.6245,1.697
60.6245,1.698
60.6245,1.718
60.6255,1.735
60.6255,1.75
60.6255,1.769
60.6255,1.811
60.6255,1.832
60.6255,1.839
60.6255,1.79
60.6255,1.771
60.6265,1.754
60.6265,1.708
60.6265,1.696
60.6265,1.693
60.6265,1.691
60.6265,1.697
60.6265,1.71
60.6275,1.747
60.6275,1.762
60.6275,1.793
60.6275,1.821
60.6275,1.832
60.6275,1.794
60.6275,1.788
60.6285,1.763
60.6285,1.742
60.6285,1.734
60.6285,1.698
60.6285,1.664
60.6285,1.691
60.6285,1.689
60.6295,1.705
60.6295,1.727
60.6295,1.748
60.6295,1.771
60.6295,1.774
60.6295,1.688
60.6295,1.594
60.6295,1.528
60.6305,1.463
60.6305,1.372
60.6305,1.292
60.6305,1.268
60.6305,1.26
60.6305,1.264
60.6315,1.257
60.6315,1.333
60.6315,1.611
60.6315,1.848
60.6315,1.909
60.6315,1.852
60.6315,1.854
60.6325,1.923
60.6325,2.052
60.6325,2.22
60.6325,2.422
60.6325,2.484
60.6325,2.453
60.6325,2.403
60.6335,2.383
60.6335,2.364
60.6335,2.36
60.6335,2.362
60.6335,2.325
60.6335,2.31
60.6335,2.274
60.6345,2.187
60.6345,2.116
60.6345,2.06
60.6345,1.979
60.6345,1.914
60.6345,1.876
60.6345,1.859
60.6345,1.821
60.6355,1.784
60.6355,1.781
60.6355,1.783
60.6355,1.788
60.6355,1.81
60.6355,1.829
60.6355,1.813
60.6365,1.757
60.6365,1.74
60.6365,1.718
60.6365,1.705
60.6365,1.671
60.6365,1.669
60.6375,1.68
60.6375,1.664
60.6375,1.673
60.6375,1.685
60.6375,1.7
60.6385,1.735
60.6385,1.764
60.6385,1.773
60.6385,1.735
60.6385,1.71
60.6385,1.689
60.6395,1.659
60.6395,1.625
60.6395,1.599
60.6395,1.609
60.6395,1.64
60.6395,1.627
60.6395,1.662
60.6405,1.674
60.6405,1.702
60.6405,1.716
60.6405,1.726
60.6405,1.723
60.6405,1.691
60.6415,1.674
60.6415,1.654
60.6415,1.637
60.6415,1.614
60.6415,1.607
60.6415,1.626
60.6415,1.619
60.6425,1.626
60.6425,1.64
60.6425,1.658
60.6425,1.7
60.6425,1.729
60.6425,1.744
60.6425,1.707
60.6435,1.684
60.6435,1.659
60.6435,1.62
60.6435,1.607
60.6435,1.588
60.6435,1.605
60.6435,1.604
60.6435,1.625
60.6445,1.641
60.6445,1.658
60.6445,1.681
60.6445,1.715
60.6445,1.715
60.6445,1.703
60.6445,1.676
60.6455,1.644
60.6455,1.625
60.6455,1.61
60.6455,1.59
60.6455,1.573
60.6455,1.602
60.6455,1.58
60.6465,1.595
60.6465,1.614
60.6465,1.63
60.6465,1.675
60.6465,1.695
60.6465,1.703
60.6465,1.674
60.6475,1.652
60.6475,1.61
60.6475,1.585
60.6475,1.565
60.6475,1.546
60.6475,1.544
60.6475,1.564
60.6475,1.569
60.6485,1.572
60.6485,1.6
60.6485,1.601
60.6485,1.642
60.6485,1.635
60.6485,1.65
60.6485,1.6
60.6495,1.579
60.6495,1.556
60.6495,1.541
60.6495,1.489
60.6495,1.496
60.6495,1.506
60.6495,1.5
60.6505,1.5
60.6505,1.515
60.6505,1.534
60.6505,1.555
60.6505,1.585
60.6515,1.583
60.6515,1.551
60.6515,1.527
60.6515,1.478
60.6515,1.45
60.6515,1.425
60.6515,1.398
60.6515,1.386
60.6525,1.386
60.6525,1.4
60.6525,1.41
60.6525,1.418
60.6525,1.436
60.6525,1.453
60.6525,1.453
60.6534,1.454
60.6534,1.406
60.6534,1.384
60.6534,1.363
60.6534,1.344
60.6544,1.311
60.6544,1.297
60.6544,1.309
60.6544,1.297
60.6544,1.307
60.6544,1.311
60.6554,1.333
60.6554,1.376
60.6554,1.403
60.6554,1.408
60.6554,1.395
60.6554,1.351
60.6554,1.34
60.6554,1.307
60.6564,1.29
60.6564,1.275
60.6564,1.284
60.6564,1.295
60.6564,1.303
60.6564,1.318
60.6574,1.335
60.6574,1.359
60.6574,1.39
60.6574,1.42
60.6574,1.451
60.6574,1.403
60.6574,1.385
60.6574,1.379
60.6584,1.371
60.6584,1.357
60.6584,1.341
60.6584,1.376
60.6584,1.393
60.6584,1.405
60.6594,1.427
60.6594,1.464
60.6594,1.486
60.6594,1.559
60.6594,1.595
60.6594,1.561
60.6594,1.546
60.6604,1.526
60.6604,1.526
60.6604,1.512
61.4965,1.52
61.4985,1.556
61.4985,1.567
61.4985,1.593
61.4985,1.63
61.4985,1.643
61.4985,1.669
61.4995,1.701
61.4995,1.732
61.4995,1.694
61.4995,1.678
61.4995,1.68
61.4995,1.674
61.4995,1.648
61.5005,1.629
61.5005,1.653
61.5005,1.652
61.5005,1.671
61.5005,1.685
61.5005,1.725
61.5016,1.765
61.5016,1.771
61.5016,1.791
61.5016,1.806
61.5016,1.768
61.5016,1.739
61.5016,1.716
61.5025,1.698
61.5025,1.669
61.5025,1.671
61.5025,1.68
61.5025,1.693
61.5025,1.715
61.5035,1.725
61.5035,1.741
61.5035,1.774
61.5035,1.799
61.5035,1.802
61.5035,1.77
61.5045,1.755
61.5045,1.743
61.5045,1.723
61.5045,1.68
61.5045,1.658
61.5045,1.67
61.5045,1.692
61.5055,1.697
61.5055,1.709
61.5055,1.738
61.5055,1.777
61.5055,1.784
61.5055,1.794
61.5055,1.806
61.5065,1.77
61.5065,1.729
61.5065,1.717
61.5065,1.698
61.5065,1.653
61.5065,1.656
61.5065,1.68
61.5075,1.691
61.5075,1.703
61.5075,1.72
61.5075,1.732
61.5075,1.748
61.5075,1.802
61.5075,1.787
61.5085,1.767
61.5085,1.755
61.5085,1.73
61.5085,1.702
61.5095,1.658
61.5095,1.652
61.5095,1.679
61.5095,1.676
61.5095,1.684
61.5105,1.697
61.5105,1.73
61.5105,1.741
61.5105,1.773
61.5115,1.789
61.5115,1.784
61.5115,1.765
61.5115,1.718
61.5115,1.706
61.5125,1.694
61.5125,1.667
61.5125,1.653
61.5125,1.666
61.5135,1.686
61.5135,1.695
61.5135,1.719
61.5135,1.731
61.5135,1.742
61.5135,1.778
61.5135,1.792
61.5145,1.754
61.5145,1.741
61.5145,1.729
61.5145,1.709
61.5145,1.701
61.5145,1.658
61.5145,1.665
61.5155,1.692
61.5155,1.685
61.5155,1.698
61.5155,1.718
61.5155,1.757
61.5155,1.775
61.5155,1.781
61.5165,1.803
61.5165,1.79
61.5165,1.75
61.5165,1.721
61.5165,1.706
61.5165,1.68
61.5165,1.661
61.5165,1.691
61.5175,1.701
61.5175,1.713
61.5175,1.728
61.5175,1.742
61.5175,1.766
61.5175,1.783
61.5175,1.811
61.5185,1.78
61.5185,1.767
61.5185,1.751
61.5185,1.728
61.5185,1.718
61.5185,1.694
61.5185,1.695
61.5195,1.693
61.5195,1.693
61.5195,1.712
61.5195,1.73
61.5195,1.748
61.5195,1.782
61.5195,1.813
61.5205,1.818
61.5205,1.79
61.5205,1.767
61.5205,1.747
61.5215,1.718
61.5215,1.691
61.5215,1.654
61.5215,1.666
61.5215,1.672
61.5215,1.681
61.5215,1.697
61.5215,1.703
61.5225,1.737
61.5225,1.755
61.5225,1.753
61.5225,1.772
61.5225,1.712
61.5225,1.691
61.5225,1.682
61.5235,1.674
61.5235,1.646
61.5235,1.634
61.5235,1.647
61.5235,1.658
61.5235,1.672
61.5235,1.694
61.5245,1.714
61.5245,1.731
61.5245,1.787
61.5245,1.787
61.5245,1.768
61.5245,1.757
61.5255,1.739
61.5255,1.735
61.5255,1.71
61.5255,1.69
61.5255,1.686
61.5255,1.7
61.5255,1.71
61.5265,1.714
61.5265,1.754
61.5265,1.763
61.5265,1.792
61.5265,1.798
61.5265,1.833
61.5265,1.818
61.5274,1.769
61.5274,1.763
61.5274,1.74
61.5274,1.713
61.5274,1.702
61.5274,1.718
61.5274,1.726
61.5284,1.734
61.5284,1.753
61.5284,1.765
61.5284,1.768
61.5284,1.791
61.5284,1.842
61.5284,1.819
61.5294,1.789
61.5294,1.774
61.5294,1.764
61.5294,1.733
61.5294,1.712
61.5294,1.718
61.5294,1.717
61.5304,1.727
61.5304,1.749
61.5304,1.776
61.5304,1.797
61.5304,1.829
61.5304,1.828
61.5304,1.833
61.5314,1.843
61.5314,1.79
61.5314,1.765
61.5314,1.764
61.5314,1.741
61.5314,1.722
61.5314,1.719
61.5324,1.754
61.5324,1.745
61.5324,1.761
61.5324,1.78
61.5324,1.793
61.5324,1.834
61.5324,1.865
61.5334,1.844
61.5334,1.802
61.5334,1.785
61.5334,1.775
61.5334,1.74
61.5334,1.722
61.5334,1.725
61.5344,1.737
61.5344,1.735
61.5344,1.746
61.5344,1.78
61.5344,1.787
61.5344,1.833
61.5344,1.844
61.5354,1.853
61.5354,1.865
61.5354,1.798
61.5354,1.775
61.5354,1.743
61.5354,1.732
61.5354,1.712
61.5354,1.707
61.5364,1.73
61.5364,1.723
61.5364,1.723
61.5364,1.711
61.5364,1.676
61.5364,1.631
61.5374,1.59
61.5374,1.551
61.5374,1.526
61.5374,1.46
61.5374,1.399
61.5374,1.338
61.5384,1.31
61.5384,1.329
61.5384,1.43
61.5384,1.715
61.5384,1.883
61.5384,1.86
61.5384,1.854
61.5394,1.841
61.5394,1.973
61.5394,2.127
61.5394,2.302
61.5394,2.512
61.5394,2.489
61.5394,2.435
61.5404,2.36
61.5404,2.3
61.5404,2.284
61.5404,2.275
61.5404,2.28
61.5404,2.272
61.5414,2.224
61.5414,2.198
61.5414,2.189
61.5414,2.14
61.5414,2.11
61.5414,2.049
61.5414,2.012
61.5424,1.958
61.5424,1.855
61.5424,1.786
61.5424,1.753
61.5424,1.772
61.5424,1.759
61.5424,1.724
61.5424,1.757
61.5434,1.763
61.5434,1.775
61.5434,1.802
61.5434,1.827
61.5434,1.821
61.5434,1.757
61.5434,1.74
61.5444,1.728
61.5444,1.706
61.5444,1.67
61.5444,1.665
61.5444,1.675
61.5444,1.684
61.5444,1.693
61.5454,1.708
61.5454,1.73
61.5454,1.765
61.5454,1.773
61.5454,1.775
61.5454,1.763
61.5454,1.73
61.5464,1.709
61.5464,1.676
61.5464,1.655
61.5464,1.643
61.5464,1.674
61.5464,1.677
61.5464,1.673
61.5464,1.69
61.5474,1.715
61.5474,1.724
61.5474,1.755
61.5474,1.772
61.5474,1.762
61.5474,1.719
61.5474,1.706
61.5484,1.691
61.5484,1.674
61.5484,1.656
61.5484,1.644
61.5484,1.679
61.5484,1.665
61.5484,1.677
61.5494,1.695
61.5494,1.702
61.5494,1.727
61.5494,1.773
61.5494,1.772
61.5494,1.735
61.5494,1.713
61.5504,1.697
61.5504,1.681
61.5504,1.645
61.5504,1.63
61.5504,1.642
61.5504,1.673
61.5504,1.672
61.5514,1.69
61.5514,1.706
61.5514,1.72
61.5514,1.741
61.5514,1.77
61.5514,1.774
61.5514,1.711
61.5524,1.697
61.5524,1.68
61.5524,1.66
61.5524,1.635
61.5524,1.625
61.5524,1.649
61.5524,1.656
61.5534,1.661
61.5534,1.67
61.5534,1.688
61.5534,1.705
61.5534,1.737
61.5534,1.755
61.5534,1.736
61.5544,1.694
61.5544,1.677
61.5544,1.647
61.5544,1.623
61.5544,1.608
61.5544,1.612
61.5544,1.616
61.5554,1.619
61.5554,1.648
61.5554,1.661
61.5554,1.677
61.5554,1.691
61.5554,1.708
61.5564,1.721
61.5564,1.663
61.5564,1.645
61.5564,1.626
61.5564,1.607
61.5564,1.587
61.5564,1.569
61.5574,1.58
61.5574,1.576
61.5574,1.579
61.5574,1.586
61.5574,1.601
61.5574,1.628
61.5574,1.644
61.5574,1.661
61.5584,1.617
61.5584,1.589
61.5584,1.564
61.5584,1.512
61.5584,1.494
61.5584,1.464
61.5584,1.467
61.5594,1.486
61.5594,1.482
61.5594,1.49
61.5594,1.5
61.5594,1.506
61.5594,1.521
61.5594,1.538
61.5604,1.537
61.5604,1.485
61.5604,1.466
61.5604,1.439
61.5604,1.434
61.5604,1.415
61.5614,1.396
61.5614,1.4
61.5614,1.411
61.5614,1.422
61.5614,1.43
61.5614,1.447
61.5614,1.495
61.5624,1.498
61.5624,1.508
61.5624,1.512
61.5624,1.474
61.5624,1.457
61.5624,1.441
61.5624,1.416
61.5634,1.402
61.5634,1.4
61.5634,1.425
61.5634,1.447
61.5634,1.466
61.5634,1.486
61.5634,1.506
61.5643,1.55
61.5643,1.553
61.5643,1.573
61.5643,1.55
61.5643,1.544
61.5643,1.539
61.5643,1.532
61.5653,1.529
61.5653,1.509
61.5653,1.559
61.5653,1.568
61.5653,1.58
61.5653,1.604
61.5653,1.626
61.5663,1.679
61.5663,1.71
61.5663,1.744
61.5663,1.732
61.5663,1.709
61.5663,1.708
61.5663,1.691
61.5663,1.679
61.5673,1.674
61.5673,1.685
61.5673,1.706
61.5673,1.712
61.5673,1.744
61.5673,1.764
61.5673,1.78
61.5684,1.816
61.5684,1.837
61.5684,1.846
61.5684,1.829
61.5684,1.818
61.5684,1.804
61.5684,1.798
61.5694,1.79
61.5694,1.78
61.5694,1.797
61.5694,1.804
61.5694,1.811
61.5694,1.831
61.5703,1.847
61.5703,1.873
61.5723,1.897
61.5743,1.92
61.5773,1.9
61.5793,1.854
61.5803,1.832
61.5803,1.823
61.5803,1.804
61.5803,1.797
61.5813,1.823
61.5813,1.83
61.5813,1.841
61.5813,1.85
61.5813,1.868
61.5813,1.895
61.5813,1.912
61.5823,1.92
61.5823,1.887
61.5823,1.864
61.5823,1.853
61.5823,1.837
61.5823,1.798
61.5823,1.788
61.5833,1.823
61.5833,1.825
61.5833,1.819
61.5833,1.835
61.5833,1.853
61.5833,1.867
61.5833,1.897
61.5843,1.918
61.5843,1.9
61.5843,1.866
61.5843,1.834
61.5843,1.816
61.5843,1.802
61.5843,1.79
61.5853,1.78
61.5853,1.799
61.5853,1.805
61.5853,1.814
61.5853,1.823
61.5853,1.834
61.5853,1.868
61.5863,1.876
61.5863,1.885
61.5863,1.865
61.5863,1.832
61.5863,1.824
61.5863,1.806
61.5873,1.763
61.5873,1.757
61.5873,1.789
61.5883,1.797
61.5883,1.781
61.5883,1.784
61.5883,1.817
61.5883,1.836
61.5883,1.86
61.5883,1.887
61.5893,1.886
61.5893,1.839
61.5893,1.812
61.5893,1.805
61.5893,1.781
61.5893,1.754
61.5893,1.753
61.5903,1.768
61.5903,1.781
61.5903,1.791
61.5903,1.802
61.5903,1.816
61.5903,1.837
61.5913,1.863
61.5913,1.87
61.5913,1.846
61.5913,1.822
61.5913,1.804
61.5913,1.793
61.5913,1.759
61.5923,1.75
61.5923,1.768
61.5923,1.772
61.5923,1.776
61.5923,1.787
61.5923,1.813
61.5923,1.837
61.5933,1.852
61.5933,1.847
61.5933,1.869
61.5933,1.82
61.5933,1.811
61.5933,1.797
61.5933,1.788
61.5943,1.766
61.5943,1.748
61.5943,1.792
61.5943,1.784
61.5943,1.795
61.5943,1.807
61.5943,1.819
61.5953,1.831
61.5953,1.859
61.5953,1.877
61.5953,1.857
61.5953,1.819
61.5953,1.804
61.5953,1.795
61.5953,1.759
61.5963,1.744
61.5963,1.765
61.5963,1.769
61.5963,1.769
61.5963,1.78
61.5963,1.803
61.5963,1.808
61.5973,1.827
61.5973,1.851
61.5973,1.86
61.5973,1.828
61.5973,1.784
61.5973,1.77
61.5973,1.749
61.5983,1.724
61.5983,1.707
61.5983,1.724
61.5983,1.718
61.5983,1.728
61.5983,1.742
61.5993,1.764
61.5993,1.78
61.5993,1.808
61.5993,1.815
61.5993,1.801
61.5993,1.777
61.5993,1.77
61.5993,1.761
61.6003,1.75
61.6003,1.717
61.6003,1.73
61.6003,1.755
61.6003,1.755
61.6003,1.762
61.6012,1.784
61.6012,1.812
61.6012,1.829
61.6012,1.856
61.6012,1.866
61.6012,1.844
61.6012,1.812
61.6022,1.787
61.6022,1.77
61.6022,1.748
61.6022,1.74
61.6022,1.749
61.6022,1.757
61.6022,1.778
61.6032,1.791
61.6032,1.805
61.6032,1.823
61.6032,1.849
61.6032,1.852
61.6042,1.857
61.6042,1.816
61.6042,1.804
61.6042,1.79
61.6052,1.781
61.6052,1.764
61.6052,1.741
61.6052,1.781
61.6052,1.766
61.6052,1.766
61.6052,1.782
61.6062,1.797
61.6062,1.832
62.4069,1.858
62.4069,1.88
62.4069,1.843
62.4069,1.82
62.4079,1.811
62.4079,1.775
62.4079,1.76
62.4079,1.74
62.4079,1.73
62.4079,1.765
62.4079,1.769
62.4089,1.785
62.4089,1.794
62.4089,1.802
62.4089,1.821
62.4089,1.848
62.4089,1.858
62.4089,1.812
62.4089,1.791
62.4099,1.777
62.4099,1.763
62.4099,1.752
62.4099,1.728
62.4099,1.752
62.4099,1.759
62.4109,1.761
62.4109,1.771
62.4109,1.784
62.4109,1.795
62.4109,1.823
62.4109,1.857
62.4119,1.841
62.4119,1.799
62.4119,1.787
62.4119,1.755
62.4119,1.746
62.4119,1.727
62.4119,1.726
62.4129,1.737
62.4129,1.748
62.4129,1.723
62.4129,1.744
62.4129,1.764
62.4129,1.788
62.4129,1.796
62.4139,1.819
62.4139,1.735
62.4139,1.68
62.4139,1.607
62.4139,1.535
62.4139,1.469
62.4139,1.408
62.4139,1.346
62.4149,1.313
62.4149,1.28
62.4149,1.268
62.4149,1.284
62.4149,1.275
62.4149,1.435
62.4159,1.721
62.4159,1.873
62.4159,1.855
62.4159,1.792
62.4159,1.765
62.4159,1.892
62.4159,1.986
62.4169,2.152
62.4169,2.34
62.4169,2.416
62.4169,2.372
62.4169,2.351
62.4169,2.358
62.4169,2.363
62.4179,2.366
62.4179,2.376
62.4179,2.269
62.4179,2.223
62.4179,2.173
62.4179,2.117
62.4179,2.058
62.4189,2.007
62.4189,1.951
62.4189,1.941
62.4189,1.911
62.4189,1.891
62.4189,1.861
62.4189,1.833
62.4199,1.832
62.4199,1.828
62.4199,1.822
62.4199,1.786
62.4199,1.758
62.4209,1.729
62.4209,1.715
62.4209,1.685
62.4209,1.67
62.4209,1.701
62.4209,1.714
62.4209,1.701
62.4219,1.71
62.4219,1.723
62.4219,1.731
62.4219,1.742
62.4219,1.768
62.4219,1.721
62.4219,1.703
62.4229,1.687
62.4229,1.669
62.4229,1.654
62.4229,1.625
62.4229,1.633
62.4229,1.632
62.4229,1.645
62.4239,1.66
62.4239,1.671
62.4239,1.706
62.4239,1.721
62.4239,1.727
62.4239,1.722
62.4239,1.711
62.4249,1.682
62.4249,1.646
62.4249,1.634
62.4249,1.609
62.4249,1.594
62.4249,1.612
62.4249,1.626
62.4259,1.634
62.4259,1.651
62.4259,1.659
62.4259,1.67
62.4259,1.69
62.4259,1.72
62.4259,1.685
62.4269,1.661
62.4269,1.644
62.4269,1.629
62.4269,1.618
62.4269,1.577
62.4269,1.59
62.4269,1.603
62.4279,1.607
62.4279,1.614
62.4279,1.631
62.4279,1.656
62.4279,1.67
62.4279,1.693
62.4279,1.707
62.4289,1.685
62.4289,1.657
62.4289,1.621
62.4289,1.606
62.4289,1.579
62.4289,1.569
62.4289,1.576
62.4299,1.586
62.4299,1.595
62.4299,1.608
62.4299,1.62
62.4299,1.644
62.4299,1.665
62.4309,1.676
62.4309,1.657
62.4309,1.621
62.4309,1.607
62.4309,1.596
62.4309,1.583
62.4309,1.542
62.4319,1.565
62.4319,1.577
62.4319,1.567
62.4319,1.575
62.4319,1.588
62.4319,1.615
62.4319,1.638
62.4329,1.66
62.4329,1.658
62.4329,1.618
62.4329,1.584
62.4329,1.567
62.4329,1.552
62.4339,1.521
62.4339,1.505
62.4339,1.502
62.4339,1.522
62.4339,1.527
62.4339,1.535
62.4339,1.544
62.4348,1.561
62.4348,1.579
62.4348,1.595
62.4348,1.574
62.4348,1.543
62.4348,1.522
62.4348,1.502
62.4358,1.486
62.4358,1.432
62.4358,1.44
62.4358,1.448
62.4358,1.435
62.4358,1.44
62.4358,1.444
62.4368,1.456
62.4368,1.483
62.4368,1.493
62.4368,1.488
62.4368,1.46
62.4368,1.412
62.4368,1.39
62.4378,1.369
62.4378,1.348
62.4378,1.326
62.4378,1.316
62.4378,1.34
62.4378,1.339
62.4378,1.344
62.4389,1.351
62.4389,1.361
62.4389,1.379
62.4389,1.415
62.4389,1.39
62.4389,1.353
62.4389,1.343
62.4399,1.33
62.4399,1.314
62.4399,1.287
62.4399,1.29
62.4399,1.297
62.4399,1.306
62.4408,1.314
62.4408,1.326
62.4408,1.337
62.4408,1.388
62.4408,1.396
62.4408,1.392
62.4408,1.402
62.4408,1.368
62.4418,1.355
62.4418,1.334
62.4418,1.322
62.4418,1.308
62.4418,1.322
62.4418,1.351
62.4418,1.358
62.4428,1.391
62.4428,1.415
62.4428,1.435
62.4428,1.462
62.4428,1.477
62.4428,1.512
62.4428,1.482
62.4438,1.478
62.4438,1.472
62.4438,1.469
62.4438,1.453
62.4438,1.445
62.4438,1.482
62.4438,1.484
62.4448,1.502
62.4448,1.523
62.4448,1.547
62.4448,1.565
62.4448,1.62
62.4448,1.641
62.4448,1.621
62.4458,1.604
62.4458,1.597
62.4458,1.577
62.4458,1.564
62.4458,1.548
62.4458,1.544
62.4458,1.558
62.4468,1.581
62.4488,1.6
62.4498,1.614
62.4548,1.629
62.4548,1.66
62.4568,1.665
62.4578,1.682
62.4578,1.654
62.4578,1.64
62.4578,1.628
62.4578,1.614
62.4578,1.605
62.4578,1.574
62.4588,1.603
62.4588,1.602
62.4588,1.604
62.4588,1.619
62.4588,1.633
62.4588,1.67
62.4598,1.698
62.4598,1.715
62.4598,1.696
62.4598,1.66
62.4598,1.648
62.4598,1.613
62.4608,1.605
62.4608,1.577
62.4608,1.57
62.4608,1.599
62.4608,1.6
62.4608,1.609
62.4608,1.626
62.4618,1.642
62.4618,1.653
62.4618,1.675
62.4618,1.706
62.4618,1.656
62.4618,1.636
62.4628,1.621
62.4628,1.601
62.4628,1.585
62.4628,1.565
62.4628,1.576
62.4628,1.583
62.4638,1.592
62.4638,1.609
62.4638,1.618
62.4638,1.657
62.4638,1.682
62.4638,1.682
62.4638,1.672
62.4648,1.657
62.4648,1.63
62.4648,1.581
62.4648,1.558
62.4648,1.54
62.4648,1.579
62.4658,1.579
62.4658,1.587
62.4658,1.595
62.4658,1.609
62.4658,1.636
62.4658,1.666
62.4658,1.676
62.4668,1.637
62.4668,1.61
62.4668,1.6
62.4668,1.586
62.4668,1.546
62.4668,1.542
62.4668,1.565
62.4678,1.557
62.4678,1.559
62.4678,1.575
62.4678,1.608
62.4678,1.628
62.4678,1.653
62.4678,1.662
62.4688,1.653
62.4688,1.63
62.4688,1.597
62.4688,1.584
62.4688,1.568
62.4688,1.547
62.4697,1.533
62.4697,1.553
62.4697,1.565
62.4697,1.58
62.4697,1.591
62.4707,1.605
62.4707,1.623
62.4707,1.64
62.4707,1.654
62.4707,1.635
62.4717,1.607
62.4717,1.598
62.4717,1.584
62.4717,1.549
62.4717,1.528
62.4727,1.554
62.4727,1.562
62.4727,1.557
62.4727,1.571
62.4727,1.601
62.4727,1.612
62.4727,1.64
62.4737,1.663
62.4737,1.655
62.4737,1.616
62.4737,1.6
62.4737,1.581
62.4737,1.571
62.4737,1.553
62.4747,1.534
62.4747,1.56
62.4747,1.554
62.4747,1.564
62.4747,1.584
62.4747,1.601
62.4757,1.623
62.4757,1.643
62.4757,1.658
62.4757,1.643
62.4757,1.613
62.4757,1.599
62.4757,1.584
62.4767,1.541
62.4767,1.532
62.4767,1.561
62.4767,1.562
62.4767,1.56
62.4767,1.586
62.4767,1.595
62.4777,1.606
62.4777,1.632
62.4777,1.644
62.4777,1.635
62.4777,1.588
62.4777,1.575
62.4777,1.557
62.4787,1.532
62.4787,1.513
62.4787,1.492
62.4787,1.506
62.4787,1.505
62.4787,1.515
62.4797,1.532
62.4797,1.55
62.4797,1.567
62.4797,1.596
62.4797,1.61
62.4797,1.598
62.4807,1.568
62.4807,1.553
62.4807,1.542
62.4807,1.519
62.4807,1.498
62.4807,1.521
62.4807,1.538
62.4817,1.533
62.4817,1.54
62.4817,1.582
62.4817,1.592
62.4817,1.617
62.4817,1.634
62.4827,1.645
62.4827,1.62
62.4827,1.584
62.4827,1.569
62.4827,1.558
62.4827,1.542
62.4827,1.523
62.4837,1.525
62.4837,1.547
62.4837,1.557
62.4837,1.569
62.4837,1.579
62.4837,1.595
62.4837,1.633
62.4847,1.64
62.4847,1.643
62.4847,1.61
62.4847,1.597
62.4847,1.577
62.4847,1.561
62.4847,1.523
62.4857,1.536
62.4857,1.564
62.4857,1.557
62.4857,1.557
62.4857,1.578
62.4857,1.604
62.4857,1.619
62.4867,1.649
62.4867,1.671
62.4867,1.647
62.4867,1.616
62.4867,1.585
62.4877,1.574
62.4877,1.55
62.4877,1.538
62.4877,1.544
62.4887,1.549
62.4887,1.567
62.4887,1.576
62.4887,1.583
62.4887,1.595
62.4887,1.627
62.4887,1.639
62.4897,1.648
62.4897,1.61
62.4897,1.595
62.4897,1.581
62.4897,1.565
62.4897,1.551
62.4897,1.52
62.4907,1.552
62.4907,1.559
62.4907,1.552
62.4907,1.568
62.4907,1.584
62.4907,1.614
62.4917,1.633
62.4917,1.661
62.4917,1.647
62.4917,1.611
62.4917,1.593
62.4917,1.569
62.4927,1.561
62.4927,1.535
62.4927,1.536
62.4927,1.559
62.4927,1.543
62.4927,1.541
62.4927,1.555
62.4937,1.569
62.4937,1.598
62.4937,1.624
62.4937,1.621
62.4937,1.547
62.4937,1.481
62.4947,1.402
62.4947,1.323
62.4947,1.271
62.4947,1.245
62.4947,1.239
62.4957,1.234
62.4957,1.23
62.4957,1.23
62.4957,1.23
62.4957,1.229
62.4957,1.236
62.4957,1.336
62.4967,1.541
62.4967,1.604
62.4967,1.562
62.4967,1.535
62.4967,1.683
62.4967,1.782
62.4967,1.898
62.4977,2.085
62.4977,2.188
62.4977,2.234
62.4977,2.224
62.4977,2.216
62.4977,2.243
62.4977,2.226
62.4987,2.18
62.4987,2.158
62.4987,2.066
62.4987,2.012
62.4987,1.962
62.4987,1.914
62.4997,1.852
62.4997,1.822
62.4997,1.793
62.4997,1.75
62.4997,1.725
62.4997,1.699
62.4997,1.672
62.5007,1.695
62.5007,1.703
62.5007,1.677
62.5007,1.632
62.5007,1.606
62.5007,1.587
62.5017,1.552
62.5017,1.515
62.5017,1.511
62.5017,1.535
62.5017,1.543
62.5017,1.528
62.5017,1.547
62.5027,1.551
62.5027,1.562
62.5027,1.585
62.5027,1.604
62.5027,1.602
62.5027,1.535
62.5027,1.524
62.5037,1.511
62.5037,1.491
62.5037,1.461
62.5037,1.46
62.5037,1.482
62.5047,1.479
62.5047,1.493
62.5047,1.505
62.5047,1.53
62.5047,1.57
62.5047,1.583
62.5057,1.566
62.5057,1.549
62.5057,1.528
62.5057,1.495
62.5057,1.478
62.5057,1.456
62.5057,1.434
62.5067,1.453
62.5067,1.472
62.5067,1.463
62.5067,1.484
62.5076,1.501
62.5076,1.522
62.5076,1.535
62.5076,1.561
62.5076,1.529
62.5076,1.514
62.5076,1.501
62.5086,1.485
62.5086,1.466
62.5086,1.455
62.5086,1.431
62.5086,1.46
62.5086,1.453
62.5086,1.466
62.5096,1.48
62.5096,1.495
62.5096,1.531
62.5096,1.558
62.5096,1.568
62.5096,1.54
62.5096,1.509
62.5106,1.501
62.5106,1.466
62.5106,1.44
62.5106,1.427
62.5106,1.444
62.5116,1.442
62.5116,1.465
62.5116,1.478
62.5116,1.488
62.5116,1.508
62.5116,1.539
62.5116,1.54
62.5126,1.533
62.5126,1.505
62.5126,1.488
62.5126,1.465
62.5126,1.457
62.5126,1.431
62.5126,1.428
62.5136,1.456
62.5136,1.434
62.5136,1.444
62.5136,1.457
62.5136,1.471
62.5136,1.506
62.5146,1.527
62.5146,1.526
62.5146,1.497
62.5146,1.478
62.5146,1.461
62.5146,1.427
62.5146,1.409
62.5156,1.385
62.5156,1.38
62.5156,1.393
62.5156,1.4
62.5156,1.412
62.5156,1.429
62.5166,1.448
62.5166,1.466
62.5166,1.483
62.5166,1.466
62.5166,1.429
62.5166,1.408
62.5166,1.383
62.5176,1.365
62.5176,1.337
63.3178,1.324
63.3178,1.335
63.3178,1.322
63.3178,1.322
63.3188,1.331
63.3188,1.349
63.3188,1.375
63.3198,1.387
63.3228,1.38
63.3268,1.356
63.3278,1.324
63.3288,1.307
63.3298,1.289
63.3308,1.264
63.3308,1.253
63.3308,1.26
63.3308,1.268
63.3308,1.258
63.3308,1.259
63.3308,1.271
63.3318,1.278
63.3318,1.289
63.3318,1.311
63.3318,1.319
63.3318,1.297
63.3318,1.27
63.3328,1.262
63.3328,1.254
63.3328,1.251
63.3328,1.243
63.3328,1.243
63.3328,1.254
63.3328,1.253
63.3338,1.26
63.3338,1.267
63.3338,1.274
63.3338,1.297
63.3338,1.317
63.3338,1.314
63.3338,1.293
63.3348,1.283
63.3348,1.277
63.3348,1.273
63.3348,1.256
63.3348,1.269
63.3348,1.284
63.3348,1.281
63.3358,1.287
63.3358,1.31
63.3358,1.353
63.3358,1.386
63.3358,1.415
63.3358,1.432
63.3358,1.424
63.3368,1.412
63.3368,1.393
63.3368,1.394
63.3378,1.389
63.3378,1.37
63.3378,1.37
63.3378,1.403
63.3378,1.428
63.3388,1.447
63.3388,1.475
63.3388,1.496
63.3388,1.52
63.3388,1.556
63.3388,1.574
63.3397,1.554
63.3397,1.544
63.3397,1.532
63.3397,1.523
63.3397,1.501
63.3397,1.478
63.3397,1.519
63.3407,1.515
63.3407,1.525
63.3407,1.547
63.3407,1.563
63.3407,1.601
63.3407,1.628
63.3407,1.649
63.3417,1.637
63.3417,1.614
63.3417,1.576
63.3417,1.56
63.3417,1.555
63.3417,1.52
63.3427,1.515
63.3427,1.524
63.3427,1.551
63.3427,1.564
63.3427,1.58
63.3427,1.598
63.3427,1.624
63.3437,1.628
63.3437,1.663
63.3437,1.626
63.3437,1.604
63.3437,1.584
63.3437,1.573
63.3437,1.56
63.3447,1.532
63.3447,1.552
63.3447,1.55
63.3447,1.555
63.3447,1.572
63.3447,1.594
63.3447,1.627
63.3457,1.65
63.3457,1.67
63.3457,1.649
63.3457,1.615
63.3457,1.586
63.3457,1.574
63.3457,1.557
63.3467,1.523
63.3467,1.52
63.3467,1.534
63.3467,1.553
63.3467,1.569
63.3467,1.587
63.3467,1.598
63.3477,1.62
63.3477,1.632
63.3477,1.66
63.3477,1.622
63.3477,1.603
63.3477,1.584
63.3477,1.574
63.3487,1.556
63.3487,1.523
63.3487,1.55
63.3487,1.551
63.3487,1.552
63.3487,1.57
63.3487,1.587
63.3497,1.61
63.3497,1.642
63.3497,1.66
63.3497,1.642
63.3497,1.612
63.3507,1.592
63.3507,1.566
63.3507,1.554
63.3507,1.531
63.3507,1.512
63.3507,1.525
63.3507,1.551
63.3517,1.564
63.3517,1.572
63.3517,1.584
63.3517,1.614
63.3517,1.639
63.3517,1.64
63.3517,1.629
63.3527,1.602
63.3527,1.591
63.3527,1.572
63.3527,1.516
63.3527,1.532
63.3527,1.557
63.3527,1.547
63.3537,1.577
63.3537,1.589
63.3537,1.61
63.3537,1.624
63.3547,1.654
63.3547,1.668
63.3547,1.611
63.3547,1.596
63.3547,1.581
63.3557,1.567
63.3557,1.531
63.3557,1.521
63.3557,1.554
63.3557,1.551
63.3557,1.568
63.3567,1.578
63.3567,1.595
63.3567,1.608
63.3567,1.666
63.3567,1.662
63.3567,1.629
63.3567,1.609
63.3577,1.595
63.3577,1.56
63.3577,1.534
63.3577,1.529
63.3577,1.537
63.3577,1.541
63.3577,1.555
63.3587,1.578
63.3587,1.594
63.3587,1.614
63.3587,1.632
63.3587,1.653
63.3587,1.667
63.3587,1.614
63.3597,1.597
63.3597,1.575
63.3597,1.566
63.3597,1.546
63.3597,1.532
63.3597,1.555
63.3597,1.552
63.3607,1.566
63.3607,1.589
63.3607,1.612
63.3607,1.658
63.3607,1.672
63.3607,1.662
63.3617,1.645
63.3617,1.625
63.3617,1.609
63.3617,1.58
63.3617,1.557
63.3617,1.536
63.3627,1.545
63.3627,1.553
63.3627,1.556
63.3627,1.564
63.3627,1.583
63.3627,1.6
63.3627,1.603
63.3637,1.617
63.3637,1.634
63.3637,1.585
63.3637,1.566
63.3637,1.541
63.3637,1.534
63.3637,1.507
63.3637,1.504
63.3647,1.524
63.3647,1.518
63.3647,1.527
63.3647,1.546
63.3647,1.567
63.3647,1.607
63.3647,1.635
63.3657,1.657
63.3657,1.637
63.3657,1.615
63.3657,1.588
63.3657,1.577
63.3657,1.546
63.3657,1.529
63.3667,1.544
63.3667,1.544
63.3667,1.548
63.3667,1.578
63.3667,1.597
63.3667,1.612
63.3667,1.646
63.3677,1.659
63.3677,1.659
63.3677,1.631
63.3677,1.616
63.3677,1.596
63.3687,1.589
63.3687,1.57
63.3687,1.539
63.3687,1.569
63.3687,1.569
63.3697,1.572
63.3697,1.59
63.3697,1.604
63.3697,1.618
63.3697,1.678
63.3697,1.699
63.3707,1.672
63.3707,1.634
63.3707,1.622
63.3707,1.615
63.3707,1.567
63.3707,1.549
63.3717,1.565
63.3717,1.563
63.3717,1.568
63.3717,1.589
63.3717,1.613
63.3717,1.63
63.3717,1.66
63.3727,1.671
63.3727,1.677
63.3727,1.684
63.3727,1.625
63.3727,1.613
63.3727,1.6
63.3727,1.585
63.3737,1.559
63.3737,1.548
63.3737,1.583
63.3737,1.588
63.3737,1.603
63.3737,1.624
63.3747,1.642
63.3747,1.66
63.3747,1.696
63.3747,1.691
63.3747,1.652
63.3747,1.635
63.3747,1.621
63.3756,1.607
63.3756,1.564
63.3756,1.571
63.3756,1.583
63.3756,1.583
63.3756,1.595
63.3756,1.613
63.3766,1.638
63.3766,1.67
63.3766,1.678
63.3766,1.699
63.3766,1.683
63.3766,1.666
63.3776,1.609
63.3776,1.577
63.3776,1.561
63.3776,1.542
63.3776,1.522
63.3776,1.568
63.3776,1.557
63.3776,1.538
63.3786,1.51
63.3786,1.469
63.3786,1.431
63.3786,1.379
63.3786,1.32
63.3786,1.258
63.3786,1.239
63.3796,1.234
63.3796,1.232
63.3796,1.23
63.3796,1.231
63.3796,1.232
63.3796,1.247
63.3806,1.42
63.3806,1.579
63.3806,1.585
63.3806,1.633
63.3806,1.799
63.3816,1.938
63.3816,2.039
63.3816,2.211
63.3816,2.334
63.3816,2.339
63.3816,2.29
63.3816,2.242
63.3826,2.219
63.3826,2.203
63.3826,2.162
63.3826,2.113
63.3826,2.108
63.3826,2.082
63.3826,2.067
63.3836,2.045
63.3836,2.056
63.3836,1.963
63.3836,1.918
63.3836,1.848
63.3836,1.791
63.3836,1.733
63.3846,1.667
63.3846,1.658
63.3846,1.646
63.3846,1.65
63.3846,1.646
63.3856,1.649
63.3856,1.656
63.3856,1.696
63.3856,1.695
63.3856,1.684
63.3856,1.677
63.3866,1.649
63.3866,1.6
63.3866,1.583
63.3866,1.552
63.3866,1.53
63.3866,1.532
63.3876,1.572
63.3876,1.568
63.3876,1.577
63.3876,1.594
63.3876,1.617
63.3876,1.625
63.3876,1.646
63.3886,1.623
63.3886,1.598
63.3886,1.578
63.3886,1.564
63.3886,1.547
63.3886,1.507
63.3896,1.528
63.3896,1.526
63.3896,1.521
63.3896,1.54
63.3896,1.552
63.3896,1.583
63.3896,1.618
63.3906,1.636
63.3906,1.622
63.3906,1.604
63.3906,1.592
63.3906,1.548
63.3906,1.533
63.3916,1.506
63.3916,1.484
63.3916,1.488
63.3916,1.517
63.3916,1.533
63.3916,1.549
63.3916,1.564
63.3926,1.585
63.3926,1.601
63.3926,1.616
63.3926,1.611
63.3926,1.575
63.3926,1.556
63.3936,1.539
63.3936,1.526
63.3936,1.481
63.3936,1.498
63.3936,1.519
63.3936,1.508
63.3936,1.522
63.3946,1.544
63.3946,1.565
63.3946,1.607
63.3946,1.624
63.3946,1.618
63.3946,1.594
63.3946,1.57
63.3956,1.544
63.3956,1.531
63.3956,1.504
63.3956,1.471
63.3956,1.48
63.3956,1.502
63.3956,1.516
63.3966,1.528
63.3966,1.536
63.3966,1.558
63.3966,1.578
63.3966,1.602
63.3966,1.59
63.3966,1.554
63.3976,1.532
63.3976,1.51
63.3976,1.496
63.3976,1.45
63.3976,1.467
63.3976,1.483
63.3976,1.478
63.3986,1.49
63.3986,1.497
63.3986,1.519
63.3986,1.547
63.3986,1.57
63.3986,1.576
63.3996,1.542
63.3996,1.518
63.3996,1.475
63.3996,1.454
63.3996,1.43
63.3996,1.401
63.3996,1.394
63.4006,1.412
63.4006,1.417
63.4006,1.426
63.4006,1.438
63.4006,1.453
63.4006,1.467
63.4016,1.491
63.4016,1.474
63.4016,1.424
63.4016,1.402
63.4016,1.382
63.4016,1.365
63.4016,1.308
63.4026,1.316
63.4026,1.33
63.4026,1.316
63.4026,1.317
63.4026,1.33
63.4026,1.334
63.4026,1.36
63.4036,1.386
63.4036,1.389
63.4036,1.365
63.4036,1.33
63.4036,1.308
63.4046,1.281
63.4046,1.267
63.4046,1.259
63.4046,1.258
63.4046,1.26
63.4046,1.265
63.4046,1.271
63.4056,1.284
63.4056,1.297
63.4056,1.323
63.4056,1.329
63.4056,1.329
63.4056,1.316
63.4056,1.295
63.4066,1.282
63.4066,1.275
63.4066,1.265
63.4066,1.254
63.4066,1.271
63.4066,1.268
63.4066,1.278
63.4076,1.291
63.4076,1.308
63.4076,1.329
63.4076,1.383
63.4076,1.404
63.4076,1.42
63.4076,1.375
63.4086,1.369
63.4086,1.367
63.4086,1.348
63.4086,1.334
63.4086,1.345
63.4086,1.366
63.4086,1.378
63.4096,1.398
63.4096,1.451
63.4096,1.473
63.4096,1.517
63.4096,1.541
63.4096,1.552
63.4106,1.56
63.4106,1.526
63.4106,1.518
63.4106,1.52
63.4106,1.509
63.4106,1.485
63.4116,1.488
63.4116,1.529
63.4116,1.536
63.4116,1.559
63.4116,1.583
63.4116,1.597
63.4116,1.625
63.4125,1.681
63.4125,1.676
63.4125,1.647
63.4125,1.629
63.4125,1.618
63.4125,1.613
63.4125,1.577
63.4135,1.58
63.4135,1.588
63.4135,1.595
63.4135,1.603
63.4135,1.64
63.4135,1.64
63.4135,1.685
63.4145,1.704
63.4145,1.713
63.4145,1.717
63.4145,1.67
63.4145,1.655
63.4145,1.644
63.4145,1.627
63.4155,1.6
63.4155,1.582
63.4155,1.617
63.4155,1.621
63.4155,1.636
63.4155,1.653
63.4155,1.667
63.4165,1.712
63.4165,1.735
63.4165,1.734
63.4165,1.692
63.4165,1.672
63.4165,1.655
63.4175,1.626
63.4175,1.593
63.4175,1.592
63.4175,1.615
63.4175,1.613
63.4175,1.613
63.4175,1.651
63.4185,1.664
63.4185,1.695
63.4185,1.708
63.4185,1.722
63.4185,1.727
63.4185,1.672
63.4185,1.647
63.4195,1.64
63.4195,1.621
63.4195,1.592
63.4195,1.616
63.4195,1.609
63.4195,1.609
63.4195,1.629
63.4205,1.652
63.4205,1.662
63.4205,1.704
63.4205,1.729
63.4205,1.721
63.4215,1.697
63.4215,1.682
63.4215,1.657
63.4215,1.626
63.4215,1.606
63.4215,1.577
63.4215,1.593
63.4225,1.622
63.4225,1.614
63.4225,1.649
63.4225,1.664
63.4225,1.69
63.4225,1.697
63.4235,1.715
63.4235,1.702
63.4235,1.675
63.4235,1.657
63.4235,1.639
63.4235,1.628
63.4235,1.597
63.4245,1.616
63.4245,1.614
63.4245,1.611
63.4245,1.621
63.4245,1.645
63.4245,1.657
63.4245,1.7
63.4255,1.729
63.4255,1.715
63.4255,1.695
63.4255,1.677
63.4255,1.657
63.4255,1.632
63.4255,1.609
63.4265,1.591
63.4265,1.595
63.4265,1.619
63.4265,1.631
63.4265,1.648
63.4265,1.659
63.4265,1.687
63.4275,1.7
63.4275,1.727
63.4275,1.712
63.4275,1.677
63.4275,1.669
63.4275,1.659
63.4285,1.645
63.4285,1.613
63.4285,1.623
63.4285,1.615
63.4285,1.629
63.4285,1.644
63.4285,1.679
63.4295,1.715
63.9998,1.728
63.9998,1.725
63.9998,1.71
63.9998,1.671
64.0008,1.65
64.0008,1.645
64.0008,1.616
64.0008,1.603
64.0008,1.625
64.0018,1.628
64.0018,1.633
64.0018,1.651
64.0018,1.674
64.0018,1.694
64.0028,1.719
64.0028,1.739
64.0028,1.726
64.0028,1.689
64.0038,1.675
64.0038,1.659
64.0038,1.642
64.0038,1.592
64.0048,1.606
64.0048,1.618
64.0048,1.615
64.0048,1.621
64.0048,1.635
64.0058,1.658
64.0058,1.696
64.0058,1.71
64.0058,1.705
64.0068,1.704
64.0068,1.64
64.0068,1.621
64.0068,1.605
64.0068,1.575
64.0078,1.552
64.0078,1.564
64.0078,1.58
64.0078,1.592
64.0088,1.604
64.0088,1.625
64.0088,1.637
64.0088,1.67
64.0088,1.72
64.0098,1.697
64.0098,1.67
64.0098,1.66
64.0098,1.64
64.0098,1.635
64.0108,1.599
64.0108,1.597
64.0108,1.627
64.0108,1.638
64.0118,1.634
64.0118,1.663
64.0118,1.676
64.0118,1.704
64.0118,1.735
64.0128,1.747
64.0128,1.733
64.0128,1.689
64.0128,1.674
64.0138,1.658
64.0138,1.641
64.0138,1.612
64.0138,1.615
64.0138,1.644
64.0148,1.646
64.0148,1.658
64.0148,1.676
64.0148,1.694
64.0158,1.724
64.0158,1.764
64.0158,1.748
64.0158,1.717
64.0158,1.7
64.0168,1.683
64.0168,1.664
64.0168,1.623
64.0168,1.638
64.0178,1.65
64.0178,1.649
64.0178,1.65
64.0178,1.663
64.0178,1.698
64.0188,1.729
64.0188,1.743
64.0188,1.757
64.0188,1.752
64.0188,1.699
64.0198,1.688
64.0198,1.672
64.0198,1.655
64.0198,1.633
64.0208,1.632
64.0208,1.661
64.0208,1.657
64.0208,1.664
64.0208,1.68
64.0218,1.702
64.0218,1.725
64.0218,1.771
64.0218,1.752
64.0218,1.73
64.0228,1.718
64.0228,1.704
64.0228,1.672
64.0228,1.636
64.0238,1.622
64.0238,1.646
64.0238,1.66
64.0238,1.663
64.0238,1.673
64.0247,1.712
64.0247,1.734
64.0247,1.74
64.0247,1.769
64.0257,1.77
64.0257,1.735
64.0257,1.708
64.0257,1.688
64.0257,1.661
64.0267,1.615
64.0267,1.607
64.0267,1.633
64.0267,1.638
64.0267,1.664
64.0277,1.681
64.0277,1.674
64.0277,1.677
64.0277,1.663
64.0287,1.563
64.0287,1.484
64.0287,1.428
64.0287,1.394
64.0297,1.348
64.0297,1.285
64.0297,1.244
64.0297,1.251
64.0307,1.255
64.0307,1.258
64.0307,1.362
64.0307,1.674
64.0307,1.827
64.0317,1.788
64.0317,1.806
64.0317,1.827
64.0327,1.931
64.0327,2.055
64.0327,2.398
64.0327,2.445
64.0327,2.394
64.0337,2.327
64.0337,2.294
64.0337,2.264
64.0337,2.272
64.0337,2.259
64.0347,2.256
64.0347,2.241
64.0347,2.213
64.0347,2.183
64.0357,2.125
64.0357,2.018
64.0357,1.959
64.0357,1.923
64.0357,1.883
64.0367,1.815
64.0367,1.76
64.0367,1.731
64.0367,1.699
64.0367,1.684
64.0377,1.695
64.0377,1.698
64.0377,1.714
64.0377,1.76
64.0387,1.754
64.0387,1.715
64.0387,1.703
64.0387,1.683
64.0397,1.658
64.0397,1.611
64.0397,1.594
64.0397,1.589
64.0397,1.603
64.0407,1.602
64.0407,1.609
64.0407,1.64
64.0407,1.663
64.0407,1.679
64.0417,1.697
64.0417,1.707
64.0417,1.684
64.0417,1.632
64.0427,1.617
64.0427,1.608
64.0427,1.568
64.0427,1.557
64.0427,1.575
64.0437,1.578
64.0437,1.594
64.0437,1.616
64.0437,1.621
64.0437,1.631
64.0447,1.698
64.0447,1.689
64.0447,1.655
64.0447,1.653
64.0457,1.631
64.0457,1.6
64.0457,1.568
64.0457,1.548
64.0457,1.553
64.0467,1.583
64.0467,1.574
64.0467,1.585
64.0467,1.61
64.0477,1.634
64.0477,1.661
64.0477,1.67
64.0477,1.682
64.0477,1.665
64.0487,1.619
64.0487,1.598
64.0487,1.59
64.0487,1.561
64.0497,1.53
64.0497,1.561
64.0497,1.55
64.0497,1.566
64.0497,1.589
64.0507,1.61
64.0507,1.621
64.0507,1.661
64.0507,1.684
64.0517,1.641
64.0517,1.619
64.0517,1.602
64.0517,1.567
64.0517,1.538
64.0527,1.52
64.0527,1.521
64.0527,1.532
64.0527,1.546
64.0537,1.552
64.0537,1.584
64.0537,1.604
64.0537,1.625
64.0537,1.628
64.0547,1.644
64.0547,1.63
64.0547,1.576
64.0547,1.562
64.0557,1.548
64.0557,1.514
64.0557,1.493
64.0557,1.521
64.0557,1.511
64.0567,1.518
64.0567,1.528
64.0567,1.541
64.0567,1.555
64.0577,1.6
64.0577,1.615
64.0577,1.587
64.0577,1.558
64.0587,1.543
64.0587,1.519
64.0587,1.47
64.0587,1.443
64.0587,1.436
64.0597,1.445
64.0597,1.457
64.0597,1.461
64.0597,1.489
64.0607,1.501
64.0607,1.523
64.0607,1.522
64.0607,1.524
64.0617,1.47
64.0617,1.451
64.0617,1.425
64.0617,1.401
64.0617,1.369
64.0626,1.342
64.0626,1.355
64.0626,1.344
64.0626,1.362
64.0637,1.361
64.0637,1.367
64.0637,1.378
64.0637,1.419
64.0637,1.416
64.0646,1.394
64.0646,1.364
64.0646,1.351
64.0646,1.325
64.0656,1.292
64.0656,1.269
64.0656,1.27
64.0656,1.287
64.0656,1.282
64.0667,1.277
64.0667,1.301
64.0667,1.318
64.0667,1.328
64.0667,1.362
64.0677,1.375
64.0677,1.351
64.0677,1.311
64.0677,1.293
64.0677,1.287
64.0687,1.276
64.0687,1.264
64.0687,1.265
64.0687,1.286
64.0697,1.29
64.0697,1.304
64.0697,1.315
64.0697,1.335
64.0697,1.363
64.0706,1.396
64.0706,1.409
64.0706,1.399
64.0706,1.384
64.0706,1.369
64.0717,1.359
64.0717,1.357
64.0717,1.345
64.0727,1.392
64.0727,1.397
64.0727,1.404
64.0727,1.442
64.0727,1.467
64.0737,1.533
64.0737,1.556
64.0737,1.576
64.0737,1.577
64.0737,1.561
64.0747,1.544
64.0747,1.533
64.0747,1.526
64.0747,1.509
64.0756,1.509
64.0756,1.545
64.0756,1.569
64.0756,1.588
64.0766,1.605
64.0766,1.64
64.0766,1.668
64.0766,1.691
64.0766,1.704
64.0776,1.677
64.0776,1.666
64.0776,1.653
64.0776,1.644
64.0786,1.64
64.0786,1.611
64.0786,1.637
64.0786,1.63
64.0786,1.65
64.0796,1.667
64.0796,1.683
64.0796,1.74
64.0796,1.75
64.0806,1.768
64.0806,1.748
64.0806,1.737
64.0806,1.705
64.0806,1.692
64.0816,1.679
64.0816,1.64
64.0816,1.644
64.0816,1.67
64.0816,1.659
64.0826,1.676
64.0826,1.691
64.0826,1.714
64.0826,1.735
64.0836,1.769
64.0836,1.762
64.0836,1.739
64.0836,1.72
64.0836,1.705
64.0846,1.681
64.0846,1.669
64.0846,1.616
64.0846,1.646
64.0846,1.658
64.0856,1.653
64.0856,1.679
64.0856,1.705
64.0856,1.718
64.0866,1.748
64.0866,1.787
64.0866,1.761
64.0866,1.737
64.0866,1.695
64.0876,1.671
64.0876,1.658
64.0876,1.637
64.0876,1.619
64.0886,1.633
64.0886,1.647
64.0886,1.666
64.0886,1.677
64.0886,1.694
64.0896,1.713
64.0896,1.734
64.0896,1.747
64.0896,1.73
64.0896,1.706
64.0906,1.682
64.0926,1.667
64.0946,1.652
64.1005,1.603
64.1025,1.613
64.1045,1.63
64.1055,1.627
64.1055,1.647
64.1055,1.677
64.1155,1.709
64.1155,1.719
64.1155,1.739
64.1155,1.757
64.1165,1.72
64.1165,1.687
64.1165,1.659
64.1175,1.635
64.1175,1.608
64.1175,1.598
64.1175,1.615
64.1175,1.64
64.1185,1.638
64.1185,1.654
64.1185,1.681
64.1185,1.707
64.1185,1.722
64.1195,1.754
64.1195,1.716
64.1195,1.692
64.1195,1.667
64.1205,1.662
64.1205,1.649
64.1215,1.604
64.1215,1.62
64.1215,1.622
64.1225,1.634
64.1225,1.643
64.1225,1.678
64.1225,1.707
64.1235,1.728
64.1235,1.752
64.1235,1.743
64.1235,1.742
64.1235,1.685
64.1245,1.667
64.1245,1.661
64.1245,1.627
64.1245,1.61
64.1255,1.641
64.1255,1.637
64.1255,1.655
64.1255,1.672
64.1265,1.693
64.1265,1.706
64.1265,1.746
64.1265,1.747
64.1265,1.719
64.1275,1.709
64.1275,1.693
64.1275,1.667
64.1275,1.641
64.1285,1.617
64.1285,1.627
64.1285,1.645
64.1285,1.644
64.1285,1.655
64.1295,1.688
64.1295,1.698
64.1295,1.72
64.1295,1.751
64.1305,1.753
64.1305,1.715
64.1305,1.666
64.1305,1.649
64.1315,1.631
64.1315,1.608
64.1315,1.588
64.1315,1.593
64.1315,1.612
64.1325,1.626
64.1325,1.637
64.1325,1.679
64.1325,1.711
64.1335,1.718
64.6810,1.692
64.6840,1.672
64.6850,1.654
64.6850,1.626
64.6850,1.614
64.6850,1.59
64.6850,1.597
64.6860,1.637
64.6860,1.631
64.6860,1.653
64.6870,1.679
64.6870,1.687
64.6870,1.728
64.6870,1.749
64.6880,1.766
64.6880,1.723
64.6880,1.706
64.6880,1.692
64.6890,1.677
64.6890,1.651
64.6890,1.628
64.6890,1.641
64.6900,1.661
64.6900,1.665
64.6900,1.68
64.6900,1.697
64.6900,1.741
64.6910,1.772
64.6910,1.782
64.6910,1.76
64.6910,1.731
64.6920,1.718
64.6920,1.677
64.6920,1.665
64.6920,1.644
64.6920,1.642
64.6930,1.647
64.6930,1.668
64.6930,1.696
64.6930,1.71
64.6940,1.728
64.6940,1.755
64.6940,1.773
64.6940,1.772
64.6950,1.739
64.6950,1.721
64.6950,1.703
64.6950,1.702
64.6950,1.676
64.6960,1.646
64.6960,1.669
64.6960,1.667
64.6960,1.664
64.6970,1.684
64.6970,1.711
64.6970,1.763
64.6970,1.78
64.6970,1.793
64.6979,1.775
64.6979,1.746
64.6979,1.725
64.6979,1.69
64.7149,1.671
64.7159,1.649
64.7159,1.63
64.7159,1.668
64.7159,1.671
64.7159,1.686
64.7169,1.706
64.7169,1.72
64.7169,1.743
64.7169,1.775
64.7179,1.794
64.7179,1.747
64.7179,1.734
64.7179,1.715
64.7179,1.696
64.7189,1.684
64.7189,1.653
64.7189,1.649
64.7189,1.684
64.7199,1.686
64.7199,1.701
64.7199,1.718
64.7209,1.738
64.7209,1.745
64.7209,1.779
64.7209,1.763
64.7219,1.732
64.7219,1.722
64.7219,1.668
64.7219,1.628
64.7219,1.566
64.7229,1.505
64.7229,1.472
64.7229,1.427
64.7229,1.403
64.7239,1.385
64.7239,1.349
64.7239,1.346
64.7239,1.341
64.7239,1.36
64.7249,1.352
64.7249,1.495
64.7249,1.733
64.7249,1.834
64.7259,1.788
64.7259,1.702
64.7259,1.702
64.7259,1.843
64.7259,1.974
64.7269,2.173
64.7269,2.33
64.7269,2.397
64.7269,2.356
64.7279,2.354
64.7279,2.33
64.7279,2.286
64.7279,2.253
64.7279,2.239
64.7289,2.142
64.7289,2.076
64.7289,2.041
64.7289,2.012
64.7299,1.982
64.7299,1.955
64.7299,1.941
64.7309,1.92
64.7309,1.914
64.7309,1.898
64.7309,1.867
64.7309,1.831
64.7319,1.749
64.7319,1.709
64.7319,1.687
64.7319,1.669
64.7329,1.637
64.7329,1.62
64.7329,1.659
64.7329,1.658
64.7339,1.672
64.7339,1.685
64.7339,1.7
64.7339,1.723
64.7348,1.731
64.7348,1.739
64.7348,1.717
64.7348,1.683
64.7358,1.663
64.7358,1.64
64.7358,1.625
64.7368,1.57
64.7368,1.603
64.7368,1.599
64.7378,1.603
64.7378,1.613
64.7378,1.631
64.7378,1.667
64.7388,1.7
64.7388,1.735
64.7388,1.716
64.7388,1.683
64.7398,1.663
64.7418,1.628
64.7438,1.607
64.7508,1.584
64.7538,1.573
64.7548,1.578
64.7558,1.596
64.7558,1.61
64.7558,1.627
64.7558,1.641
64.7568,1.665
64.7568,1.695
64.7568,1.706
64.7568,1.677
64.7568,1.653
64.7578,1.637
64.7578,1.618
64.7578,1.613
64.7578,1.582
64.7588,1.558
64.7588,1.602
64.7588,1.599
64.7588,1.597
64.7588,1.616
64.7598,1.634
64.7598,1.672
64.7598,1.691
64.7598,1.714
64.7608,1.676
64.7608,1.652
64.7608,1.635
64.7608,1.595
64.7618,1.576
64.7618,1.55
64.7618,1.572
64.7618,1.57
64.7618,1.594
64.7628,1.611
64.7628,1.625
64.7628,1.642
64.7638,1.671
64.7638,1.683
64.7638,1.666
64.7638,1.639
64.7648,1.625
64.7648,1.608
64.7648,1.595
64.7648,1.572
64.7648,1.555
64.7658,1.581
64.7658,1.568
64.7658,1.58
64.7658,1.599
64.7668,1.623
64.7668,1.651
64.7668,1.68
64.7668,1.667
64.7678,1.647
64.7678,1.62
64.7678,1.579
64.7678,1.569
64.7678,1.544
64.7688,1.518
64.7688,1.519
64.7688,1.522
64.7688,1.538
64.7698,1.551
64.7698,1.565
64.7698,1.576
64.7708,1.607
64.7708,1.61
64.7708,1.613
64.7718,1.571
64.7718,1.552
64.7718,1.531
64.7718,1.511
64.7727,1.447
64.7727,1.469
64.7727,1.459
64.7727,1.459
64.7737,1.47
64.7737,1.485
64.7737,1.503
64.7737,1.522
64.7747,1.549
64.7747,1.544
64.7747,1.52
64.7747,1.487
64.7757,1.443
64.7757,1.418
64.7757,1.386
64.7757,1.359
64.7767,1.355
64.7767,1.357
64.7767,1.382
64.7767,1.393
64.7767,1.403
64.7777,1.416
64.7777,1.443
64.7777,1.454
64.7777,1.457
64.7787,1.413
64.7787,1.4
64.7787,1.382
64.7787,1.364
64.7797,1.34
64.7797,1.311
64.7797,1.34
64.7797,1.331
64.7807,1.341
64.7807,1.359
64.7807,1.378
64.7807,1.417
64.7817,1.45
64.7817,1.468
64.7817,1.444
64.7817,1.419
64.7817,1.39
64.7827,1.372
64.7827,1.359
64.7827,1.343
64.7837,1.344
64.7837,1.365
64.7837,1.384
64.7837,1.42
64.7837,1.448
64.7847,1.47
64.7847,1.502
64.7847,1.528
64.7847,1.564
64.7857,1.531
64.7857,1.521
64.7857,1.519
64.7867,1.504
64.7867,1.495
64.7867,1.48
64.7867,1.502
64.7877,1.516
64.7877,1.541
64.7877,1.557
64.7887,1.587
64.7887,1.645
64.7887,1.666
64.7887,1.697
64.7897,1.706
64.7897,1.675
64.7897,1.665
64.7897,1.632
64.7897,1.625
64.7907,1.601
64.7907,1.616
64.7907,1.624
64.7907,1.631
64.7917,1.665
64.7917,1.683
64.7917,1.704
64.7917,1.733
64.7917,1.761
64.7927,1.769
64.7927,1.743
64.7927,1.726
64.7927,1.714
64.7937,1.703
64.7937,1.693
64.7937,1.658
64.7937,1.66
64.7937,1.679
64.7947,1.685
64.7947,1.703
64.7947,1.717
64.7947,1.761
64.7957,1.779
64.7957,1.792
64.7957,1.807
64.7957,1.773
64.7957,1.744
64.7967,1.707
64.7967,1.69
64.7967,1.662
64.7967,1.644
64.7977,1.681
64.7977,1.683
64.7977,1.698
64.7977,1.719
64.7987,1.732
64.7987,1.754
64.7987,1.776
64.7987,1.806
64.7987,1.769
64.7997,1.742
64.7997,1.729
64.7997,1.709
64.7997,1.685
64.8007,1.652
64.8007,1.663
64.8007,1.67
64.8017,1.677
64.8017,1.695
64.8017,1.707
64.8017,1.738
64.8027,1.772
64.8027,1.79
64.8027,1.771
64.8027,1.745
64.8027,1.708
64.8037,1.693
64.8037,1.678
64.8037,1.65
64.8037,1.629
64.8047,1.643
64.8047,1.669
64.8047,1.681
64.8047,1.692
64.8057,1.706
64.8057,1.738
64.8057,1.751
64.8057,1.773
64.8067,1.759
64.8067,1.725
64.8067,1.708
64.8067,1.69
64.8077,1.671
64.8077,1.627
64.8077,1.665
64.8077,1.654
64.8087,1.653
64.8087,1.67
64.8087,1.702
64.8087,1.72
64.8096,1.748
64.8096,1.767
64.8096,1.767
64.8096,1.743
64.8106,1.704
64.8106,1.689
64.8106,1.677
64.8106,1.647
64.8116,1.627
64.8116,1.632
64.8116,1.66
64.8116,1.67
64.8116,1.688
64.8126,1.702
64.8126,1.721
64.8126,1.743
64.8126,1.78
64.8136,1.75
64.8136,1.724
64.8136,1.708
64.8136,1.695
64.8146,1.679
64.8146,1.634
64.8146,1.653
64.8146,1.648
64.8156,1.656
64.8156,1.672
64.8156,1.708
64.8156,1.728
64.8166,1.76
64.8166,1.778
64.8166,1.774
64.8166,1.756
64.8176,1.711
64.8176,1.697
64.8176,1.682
64.8176,1.66
64.8186,1.637
64.8186,1.648
64.8186,1.664
64.8186,1.676
64.8186,1.697
64.8196,1.715
64.8196,1.737
64.8196,1.759
64.8206,1.78
64.8206,1.776
64.8206,1.74
64.8206,1.726
64.8216,1.712
64.8216,1.666
64.8216,1.646
64.8216,1.664
64.8226,1.653
64.8226,1.662
64.8226,1.676
64.8226,1.709
64.8466,1.726
64.8466,1.755
64.8466,1.761
64.8466,1.765
64.8475,1.749
64.8475,1.698
64.8475,1.678
64.8475,1.662
64.8485,1.629
64.8485,1.603
64.8485,1.608
64.8485,1.62
64.8495,1.628
64.8495,1.648
64.8495,1.669
64.8495,1.684
64.8495,1.747
64.8505,1.746
64.8525,1.727
64.8545,1.701
64.8605,1.693
64.8625,1.674
64.8645,1.645
64.8645,1.621
64.8655,1.621
64.8655,1.644
64.8655,1.659
64.8655,1.668
64.8655,1.715
64.8665,1.731
64.8665,1.754
64.8665,1.784
64.8665,1.796
64.8675,1.77
64.8675,1.735
64.8675,1.716
64.8675,1.704
64.8685,1.682
64.8685,1.66
64.8685,1.649
64.8685,1.679
64.8695,1.689
64.8695,1.725
64.8695,1.766
64.8695,1.779
64.8705,1.79
64.8705,1.804
65.3642,1.759
65.3642,1.739
65.3642,1.704
65.3652,1.682
65.3652,1.655
65.3652,1.665
65.3652,1.697
65.3652,1.684
65.3662,1.713
65.3662,1.729
65.3662,1.74
65.3662,1.768
65.3672,1.801
65.3672,1.788
65.3672,1.767
65.3672,1.751
65.3682,1.735
65.3682,1.721
65.3682,1.697
65.3682,1.663
65.3682,1.678
65.3692,1.685
65.3692,1.695
65.3692,1.711
65.3692,1.724
65.3701,1.774
65.3701,1.787
65.3701,1.801
65.3701,1.809
65.3711,1.768
65.3711,1.758
65.3711,1.72
65.3711,1.695
65.3721,1.663
65.3721,1.671
65.3721,1.682
65.3721,1.684
65.3721,1.716
65.3731,1.733
65.3731,1.743
65.3731,1.77
65.3731,1.795
65.3741,1.795
65.3741,1.766
65.3741,1.756
65.3741,1.738
65.3741,1.712
65.3751,1.698
65.3751,1.672
65.3751,1.682
65.3751,1.698
65.3761,1.689
65.3761,1.693
65.3761,1.703
65.3761,1.755
65.3761,1.766
65.3771,1.805
65.3771,1.774
65.3771,1.721
65.3771,1.607
65.3781,1.521
65.3781,1.445
65.3781,1.362
65.3781,1.353
65.3791,1.327
65.3791,1.263
65.3791,1.255
65.3791,1.261
65.3791,1.263
65.3801,1.278
65.3801,1.342
65.3801,1.523
65.3801,1.833
65.3811,1.793
65.3811,1.734
65.3811,1.705
65.3811,1.806
65.3821,1.993
65.3821,2.167
65.3821,2.308
65.3821,2.337
65.3821,2.343
65.3831,2.327
65.3831,2.346
65.3831,2.359
65.3841,2.366
65.3841,2.302
65.3841,2.256
65.3841,2.218
65.3841,2.116
65.3851,2.048
65.3851,1.999
65.3851,1.965
65.3851,1.953
65.3861,1.924
65.3861,1.893
65.3861,1.862
65.3871,1.833
65.3871,1.832
65.3871,1.838
65.3871,1.85
65.3881,1.801
65.3881,1.761
65.3881,1.736
65.3881,1.72
65.3881,1.706
65.3891,1.671
65.3891,1.676
65.3891,1.701
65.3891,1.689
65.3901,1.693
65.3901,1.708
65.3901,1.718
65.3901,1.742
65.3911,1.788
65.3911,1.764
65.3911,1.737
65.3911,1.712
65.3911,1.694
65.3921,1.65
65.3921,1.621
65.3921,1.612
65.3921,1.623
65.3931,1.628
65.3931,1.641
65.3931,1.663
65.3931,1.687
65.3931,1.71
65.3941,1.735
65.3941,1.741
65.3941,1.737
65.3941,1.699
65.3951,1.681
65.3951,1.662
65.3951,1.643
65.3951,1.61
65.3951,1.588
65.3961,1.616
65.3961,1.614
65.3961,1.633
65.3961,1.658
65.3961,1.671
65.3971,1.685
65.3971,1.721
65.3971,1.735
65.3971,1.708
65.3981,1.689
65.3981,1.668
65.3981,1.651
65.3981,1.606
65.3981,1.587
65.4011,1.588
65.4021,1.623
65.4031,1.622
65.4100,1.634
65.4120,1.652
65.4140,1.684
65.4140,1.706
65.4140,1.718
65.4150,1.746
65.4150,1.725
65.4150,1.688
65.4150,1.66
65.4160,1.639
65.4160,1.608
65.4160,1.588
65.4160,1.619
65.4170,1.621
65.4170,1.632
65.4170,1.648
65.4170,1.66
65.4180,1.673
65.4180,1.71
65.4180,1.72
65.4180,1.697
65.4190,1.677
65.4190,1.661
65.4190,1.642
65.4190,1.624
65.4200,1.574
65.4200,1.574
65.4200,1.61
65.4210,1.597
65.4210,1.612
65.4210,1.633
65.4210,1.656
65.4220,1.675
65.4220,1.704
65.4220,1.725
65.4220,1.689
65.4230,1.655
65.4230,1.618
65.4230,1.599
65.4230,1.571
65.4230,1.55
65.4240,1.559
65.4240,1.56
65.4240,1.569
65.4240,1.583
65.4250,1.595
65.4250,1.615
65.4250,1.648
65.4250,1.658
65.4260,1.632
65.4260,1.605
65.4260,1.586
65.4260,1.565
65.4260,1.542
65.4270,1.511
65.4270,1.48
65.4270,1.485
65.4270,1.498
65.4280,1.503
65.4280,1.512
65.4280,1.52
65.4280,1.544
65.4280,1.549
65.4290,1.564
65.4290,1.548
65.4290,1.507
65.4290,1.462
65.4300,1.443
65.4300,1.416
65.4300,1.381
65.4300,1.391
65.4310,1.385
65.4310,1.397
65.4310,1.412
65.4310,1.43
65.4320,1.439
65.4320,1.472
65.4320,1.494
65.4330,1.477
65.4330,1.45
65.4330,1.429
65.4340,1.412
65.4340,1.393
65.4340,1.371
65.4340,1.34
65.4350,1.361
65.4350,1.377
65.4350,1.371
65.4360,1.391
65.4360,1.412
65.4360,1.453
65.4360,1.473
65.4370,1.504
65.4370,1.51
65.4370,1.466
65.4380,1.451
65.4380,1.427
65.4380,1.416
65.4390,1.395
65.4390,1.415
65.4390,1.424
65.4390,1.449
65.4400,1.473
65.4400,1.501
65.4400,1.518
65.4400,1.56
65.4410,1.589
65.4410,1.604
65.4410,1.587
65.4410,1.58
65.4420,1.569
65.4420,1.554
65.4420,1.548
65.4420,1.523
65.4420,1.54
65.4430,1.576
65.4430,1.594
65.4430,1.61
65.4430,1.635
65.4440,1.691
65.4440,1.71
65.4440,1.729
65.4440,1.758
65.4440,1.714
65.4449,1.699
65.4449,1.677
65.4449,1.657
65.4449,1.632
65.4449,1.628
65.4459,1.665
65.4459,1.67
65.4459,1.689
65.4459,1.705
65.4469,1.728
65.4469,1.753
65.4469,1.79
65.4469,1.796
65.4479,1.771
65.4479,1.757
65.4479,1.739
65.4479,1.72
65.4479,1.704
65.4489,1.667
65.4489,1.674
65.4489,1.685
65.4489,1.696
65.4499,1.712
65.4499,1.73
65.4499,1.782
65.4499,1.797
65.4509,1.809
65.4509,1.804
65.4509,1.781
65.4509,1.761
65.4519,1.727
65.4519,1.708
65.4519,1.678
65.4519,1.666
65.4519,1.673
65.4529,1.693
65.4529,1.708
65.4529,1.726
65.4529,1.743
65.4539,1.77
65.4539,1.787
65.4539,1.82
65.4539,1.782
65.4549,1.759
65.4549,1.738
65.4549,1.725
65.4549,1.708
65.4559,1.667
65.4559,1.69
65.4559,1.681
65.4559,1.695
65.4559,1.714
65.4569,1.732
65.4569,1.763
65.4569,1.797
65.4569,1.833
65.4579,1.807
65.4579,1.784
65.4579,1.742
65.4579,1.722
65.4579,1.702
65.4589,1.674
65.4589,1.658
65.4589,1.662
65.4589,1.693
65.4599,1.702
65.4599,1.713
65.4599,1.724
65.4599,1.754
65.4609,1.782
65.4609,1.789
65.4609,1.773
65.4609,1.749
65.4619,1.733
65.4619,1.714
65.4619,1.695
65.4619,1.652
65.4619,1.655
65.4629,1.685
65.4629,1.673
65.4629,1.689
65.4629,1.723
65.4639,1.747
65.4639,1.77
65.4639,1.799
65.4639,1.804
65.4649,1.772
65.4649,1.732
65.4649,1.715
65.4649,1.7
65.4659,1.672
65.4659,1.665
65.4659,1.676
65.4659,1.679
65.4669,1.694
65.4669,1.712
65.4669,1.722
65.4669,1.748
65.4679,1.775
65.4679,1.784
65.4679,1.771
65.4679,1.755
65.4679,1.736
65.4689,1.71
65.4689,1.697
65.4689,1.651
65.4689,1.651
65.4699,1.685
65.4699,1.679
65.4699,1.691
65.4699,1.728
65.4709,1.748
65.4709,1.771
65.4709,1.788
65.4709,1.813
65.4719,1.78
65.4719,1.732
65.4719,1.723
65.4719,1.706
65.4719,1.676
65.4729,1.658
65.4729,1.677
65.4729,1.687
65.4729,1.697
65.4739,1.715
65.4739,1.73
65.4739,1.746
65.4739,1.783
65.4749,1.799
65.4749,1.781
65.4749,1.764
65.4749,1.743
65.4759,1.721
65.4759,1.681
65.4759,1.661
65.4759,1.674
65.4769,1.676
65.4769,1.681
65.4769,1.688
65.4769,1.725
65.4779,1.75
65.4779,1.782
65.4779,1.787
65.4779,1.8
65.4789,1.803
65.4789,1.746
65.4789,1.729
65.4789,1.715
65.4789,1.686
65.4799,1.661
65.4799,1.68
65.4799,1.68
65.4799,1.684
65.4809,1.698
65.4809,1.705
65.4809,1.715
65.4809,1.768
65.4809,1.769
65.4819,1.75
65.4819,1.727
65.4819,1.709
65.4819,1.688
65.4828,1.639
65.4828,1.622
65.4828,1.614
65.4828,1.63
65.4828,1.647
65.4838,1.664
65.4838,1.693
65.4838,1.712
65.4838,1.744
65.4838,1.764
65.4848,1.775
65.4848,1.742
65.4848,1.725
65.4848,1.705
65.4858,1.694
65.4858,1.67
65.4858,1.645
65.4858,1.687
65.4868,1.686
65.4868,1.693
65.4868,1.71
65.4868,1.728
65.4878,1.74
65.4878,1.804
65.4878,1.825
65.4878,1.798
65.4878,1.763
65.4888,1.748
65.4888,1.727
65.4888,1.682
65.4888,1.663
65.4898,1.664
65.4898,1.668
65.4898,1.683
65.4898,1.702
65.4908,1.729
65.4908,1.752
65.4908,1.779
65.4908,1.793
65.4908,1.799
65.4918,1.769
65.4918,1.752
65.4918,1.739
65.4918,1.72
65.4928,1.701
65.4928,1.669
65.4928,1.706
65.4928,1.693
65.4928,1.706
65.4938,1.726
65.4938,1.742
65.4938,1.811
65.4938,1.831
65.4948,1.807
65.4948,1.777
65.4948,1.742
66.0473,1.722
66.0473,1.704
66.0473,1.68
66.0473,1.684
66.0483,1.684
66.0483,1.705
66.0483,1.721
66.0483,1.738
66.0493,1.754
66.0493,1.79
66.0493,1.809
66.0493,1.805
66.0503,1.784
66.0503,1.765
66.0503,1.747
66.0503,1.727
66.0503,1.713
66.0513,1.691
66.0513,1.691
66.0513,1.688
66.0513,1.702
66.0523,1.721
66.0523,1.743
66.0523,1.773
66.0523,1.806
66.0523,1.829
66.0533,1.818
66.0533,1.788
66.0533,1.749
66.0533,1.715
66.0543,1.675
66.0543,1.647
66.0543,1.637
66.0543,1.651
66.0553,1.676
66.0553,1.678
66.0553,1.671
66.0553,1.638
66.0553,1.606
66.0563,1.558
66.0563,1.463
66.0563,1.411
66.0563,1.322
66.0563,1.272
66.0563,1.251
66.0573,1.244
66.0573,1.235
66.0573,1.241
66.0573,1.243
66.0573,1.309
66.0573,1.566
66.0583,1.725
66.0583,1.745
66.0583,1.8
66.0583,1.959
66.0583,2.055
66.0593,2.111
66.0593,2.255
66.0593,2.425
66.0593,2.422
66.0603,2.354
66.0623,2.313
66.0643,2.324
66.0723,2.249
66.0743,2.234
66.0763,2.231
66.0763,2.23
66.0763,2.21
66.0773,2.201
66.0773,2.151
66.0773,2.092
66.0773,2.042
66.0773,1.993
66.0783,1.936
66.0783,1.883
66.0783,1.772
66.0783,1.782
66.0793,1.772
66.0793,1.765
66.0793,1.772
66.0793,1.774
66.0793,1.793
66.0793,1.818
66.0803,1.834
66.0803,1.823
66.0803,1.796
66.0803,1.78
66.0812,1.726
66.0812,1.704
66.0812,1.662
66.0812,1.634
66.0822,1.641
66.0822,1.66
66.0822,1.671
66.0822,1.684
66.0822,1.699
66.0832,1.718
66.0832,1.734
66.0832,1.772
66.0832,1.744
66.0842,1.708
66.0842,1.696
66.0842,1.673
66.0842,1.657
66.0852,1.61
66.0852,1.636
66.0852,1.631
66.0852,1.637
66.0862,1.65
66.0862,1.67
66.0862,1.697
66.0872,1.731
66.0872,1.748
66.0872,1.746
66.0872,1.718
66.0872,1.701
66.0882,1.669
66.0882,1.651
66.0882,1.625
66.0882,1.599
66.0892,1.609
66.0892,1.615
66.0892,1.638
66.0892,1.653
66.0892,1.672
66.0902,1.694
66.0902,1.72
66.0902,1.727
66.0902,1.731
66.0912,1.701
66.0912,1.683
66.0912,1.668
66.0912,1.654
66.0922,1.616
66.0922,1.621
66.0922,1.619
66.0922,1.619
66.0922,1.629
66.0932,1.649
66.0932,1.662
66.0932,1.717
66.0932,1.733
66.0942,1.733
66.0942,1.719
66.0942,1.698
66.0942,1.68
66.0942,1.639
66.0952,1.616
66.0952,1.584
66.0952,1.586
66.0952,1.621
66.0952,1.616
66.0952,1.646
66.0962,1.66
66.0962,1.668
66.0962,1.691
66.0962,1.725
66.0962,1.737
66.0962,1.677
66.0972,1.657
66.0972,1.643
66.0972,1.624
66.0972,1.589
66.0972,1.571
66.0972,1.584
66.0982,1.587
66.0982,1.603
66.0982,1.613
66.0982,1.626
66.0982,1.642
66.0992,1.689
66.0992,1.698
66.0992,1.663
66.0992,1.644
66.0992,1.624
66.0992,1.604
66.1002,1.553
66.1002,1.52
66.1002,1.521
66.1002,1.526
66.1012,1.546
66.1012,1.545
66.1012,1.569
66.1012,1.587
66.1022,1.611
66.1022,1.618
66.1022,1.622
66.1022,1.626
66.1022,1.547
66.1032,1.522
66.1032,1.499
66.1032,1.468
66.1042,1.439
66.1042,1.452
66.1042,1.438
66.1052,1.445
66.1052,1.449
66.1052,1.459
66.1052,1.469
66.1052,1.5
66.1062,1.513
66.1062,1.496
66.1062,1.475
66.1062,1.442
66.1062,1.42
66.1072,1.381
66.1072,1.349
66.1072,1.339
66.1072,1.34
66.1072,1.361
66.1072,1.367
66.1082,1.4
66.1082,1.407
66.1082,1.434
66.1082,1.448
66.1082,1.471
66.1082,1.475
66.1092,1.415
66.1092,1.398
66.1092,1.382
66.1092,1.363
66.1092,1.342
66.1092,1.349
66.1092,1.363
66.1102,1.376
66.1102,1.395
66.1102,1.412
66.1102,1.426
66.1112,1.459
66.1112,1.518
66.1112,1.511
66.1112,1.489
66.1112,1.482
66.1122,1.472
66.1122,1.46
66.1122,1.435
66.1122,1.43
66.1132,1.458
66.1132,1.469
66.1132,1.491
66.1132,1.521
66.1142,1.569
66.1142,1.608
66.1142,1.634
66.1142,1.657
66.1142,1.661
66.1152,1.622
66.1152,1.614
66.1152,1.608
66.1152,1.598
66.1162,1.57
66.1162,1.569
66.1162,1.615
66.1162,1.622
66.1162,1.648
66.1172,1.675
66.1172,1.689
66.1172,1.71
66.1172,1.79
66.1181,1.768
66.1181,1.744
66.1181,1.725
66.1181,1.711
66.1191,1.696
66.1191,1.654
66.1191,1.652
66.1191,1.655
66.1201,1.666
66.1201,1.684
66.1201,1.702
66.1211,1.734
66.1211,1.77
66.1211,1.79
66.1211,1.811
66.1211,1.798
66.1221,1.754
66.1221,1.738
66.1221,1.725
66.1221,1.71
66.1231,1.676
66.1231,1.673
66.1231,1.698
66.1231,1.704
66.1231,1.716
66.1241,1.731
66.1241,1.744
66.1241,1.762
66.1241,1.819
66.1251,1.793
66.1251,1.773
66.1251,1.756
66.1251,1.737
66.1261,1.719
66.1261,1.681
66.1261,1.672
66.1261,1.679
66.1261,1.675
66.1271,1.695
66.1271,1.727
66.1271,1.745
66.1271,1.774
66.1271,1.798
66.1271,1.817
66.1281,1.805
66.1281,1.761
66.1281,1.751
66.1281,1.727
66.1291,1.715
66.1291,1.672
66.1291,1.656
66.1291,1.697
66.1291,1.693
66.1301,1.709
66.1301,1.727
66.1301,1.742
66.1301,1.762
66.1311,1.795
66.1311,1.817
66.1311,1.795
66.1311,1.767
66.1311,1.748
66.1321,1.716
66.1321,1.679
66.1321,1.661
66.1321,1.688
66.1331,1.684
66.1331,1.685
66.1331,1.717
66.1331,1.735
66.1331,1.747
66.1341,1.771
66.1341,1.812
66.1341,1.806
66.1341,1.757
66.1351,1.734
66.1351,1.72
66.1351,1.702
66.1351,1.667
66.1351,1.657
66.1361,1.676
66.1361,1.68
66.1361,1.696
66.1361,1.717
66.1371,1.728
66.1371,1.78
66.1371,1.789
66.1371,1.79
66.1371,1.762
66.1371,1.746
66.1381,1.728
66.1381,1.697
66.1381,1.669
66.1381,1.647
66.1381,1.654
66.1381,1.683
66.1391,1.682
66.1391,1.715
66.1391,1.732
66.1391,1.753
66.1391,1.773
66.1391,1.794
66.1391,1.809
66.1401,1.741
66.1401,1.723
66.1401,1.701
66.1401,1.682
66.1411,1.657
66.1411,1.643
66.1411,1.672
66.1411,1.677
66.1421,1.692
66.1421,1.704
66.1421,1.719
66.1421,1.775
66.1421,1.795
66.1431,1.798
66.1431,1.775
66.1431,1.753
66.1431,1.739
66.1431,1.702
66.1441,1.676
66.1441,1.651
66.1441,1.662
66.1441,1.67
66.1441,1.686
66.1451,1.712
66.1451,1.728
66.1451,1.749
66.1451,1.775
66.1451,1.796
66.1451,1.784
66.1451,1.756
66.1461,1.735
66.1461,1.717
66.1461,1.708
66.1461,1.686
66.1461,1.683
66.1471,1.677
66.1471,1.673
66.1471,1.685
66.1471,1.708
66.1471,1.726
66.1481,1.765
66.1481,1.797
66.1481,1.797
66.1481,1.781
66.1481,1.749
66.1491,1.736
66.1491,1.702
66.1491,1.674
66.1491,1.649
66.1491,1.646
66.1501,1.649
66.1501,1.658
66.1501,1.682
66.1501,1.697
66.1511,1.709
66.1511,1.73
66.1511,1.75
66.1511,1.774
66.1511,1.713
66.1521,1.698
66.1521,1.676
66.1521,1.656
66.1521,1.636
66.1531,1.603
66.1531,1.626
66.1531,1.632
66.1531,1.643
66.1531,1.66
66.1541,1.685
66.1541,1.727
66.1541,1.748
66.1541,1.785
66.1541,1.769
66.1541,1.728
66.1550,1.713
66.1550,1.684
66.1550,1.665
66.1550,1.64
66.1550,1.641
66.1550,1.662
66.1560,1.664
66.1560,1.685
66.1560,1.705
66.1560,1.719
66.1560,1.765
66.1560,1.785
66.1560,1.794
66.1570,1.756
66.1570,1.741
66.1570,1.72
66.1570,1.702
66.1570,1.687
66.1570,1.639
66.1580,1.671
66.1580,1.681
66.1580,1.683
66.1580,1.705
66.1580,1.72
66.1590,1.765
66.1590,1.781
66.1590,1.799
66.1590,1.798
66.1590,1.757
66.1590,1.741
66.1600,1.707
66.1620,1.688
66.1640,1.663
66.1710,1.668
66.1730,1.673
66.1750,1.689
66.1750,1.709
66.1750,1.727
66.1760,1.748
66.1760,1.775
66.1760,1.785
66.1760,1.811
66.1760,1.763
66.1770,1.747
66.1770,1.73
66.1770,1.708
66.1770,1.692
66.1780,1.663
66.1780,1.663
66.1780,1.674
66.1780,1.684
66.1780,1.7
66.1790,1.715
66.1790,1.766
66.1790,1.778
66.1790,1.803
66.1800,1.764
66.1800,1.724
66.1800,1.709
66.1800,1.697
66.7285,1.671
66.7295,1.659
66.7295,1.669
66.7295,1.696
66.7295,1.712
66.7305,1.726
66.7305,1.739
66.7305,1.772
66.7305,1.81
66.7305,1.798
66.7315,1.77
66.7315,1.728
66.7315,1.688
66.7315,1.669
66.7315,1.627
66.7325,1.62
66.7325,1.636
66.7325,1.643
66.7325,1.613
66.7335,1.587
66.7335,1.504
66.7335,1.468
66.7335,1.457
66.7335,1.472
66.7345,1.411
66.7345,1.322
66.7345,1.254
66.7345,1.253
66.7345,1.242
66.7355,1.241
66.7355,1.263
66.7355,1.454
66.7355,1.761
66.7355,1.728
66.7365,1.734
66.7365,1.757
66.7365,1.962
66.7365,2.109
66.7375,2.463
66.7375,2.541
66.7375,2.514
66.7375,2.483
66.7385,2.433
66.7385,2.398
66.7385,2.3
66.7385,2.27
66.7395,2.248
66.7395,2.209
66.7395,2.187
66.7395,2.133
66.7395,2.106
66.7405,2.105
66.7405,2.111
66.7405,2.064
66.7405,1.997
66.7415,1.887
66.7415,1.832
66.7415,1.774
66.7415,1.725
66.7415,1.698
66.7425,1.703
66.7425,1.69
66.7425,1.702
66.7425,1.712
66.7425,1.724
66.7435,1.745
66.7435,1.771
66.7435,1.793
66.7435,1.773
66.7445,1.73
66.7445,1.704
66.7445,1.679
66.7445,1.625
66.7445,1.606
66.7455,1.609
66.7455,1.618
66.7455,1.608
66.7455,1.626
66.7465,1.66
66.7465,1.673
66.7465,1.71
66.7465,1.741
66.7475,1.741
66.7475,1.707
66.7475,1.659
66.7475,1.642
66.7475,1.62
66.7485,1.589
66.7485,1.574
66.7485,1.574
66.7485,1.597
66.7485,1.614
66.7495,1.631
66.7495,1.644
66.7495,1.67
66.7495,1.697
66.7505,1.706
66.7505,1.696
66.7505,1.667
66.7505,1.643
66.7505,1.628
66.7515,1.616
66.7515,1.56
66.7515,1.577
66.7515,1.598
66.7524,1.587
66.7524,1.595
66.7524,1.635
66.7524,1.655
66.7524,1.683
66.7534,1.688
66.7534,1.702
66.7534,1.688
66.7534,1.655
66.7534,1.621
66.7534,1.604
66.7544,1.579
66.7544,1.563
66.7544,1.563
66.7544,1.574
66.7544,1.593
66.7544,1.608
66.7544,1.626
66.7554,1.638
66.7554,1.661
66.7554,1.699
66.7554,1.67
66.7554,1.648
66.7554,1.636
66.7554,1.616
66.7564,1.6
66.7564,1.573
66.7564,1.544
66.7564,1.571
66.7564,1.562
66.7564,1.57
66.7564,1.588
66.7574,1.604
66.7574,1.644
66.7574,1.678
66.7574,1.684
66.7574,1.658
66.7574,1.633
66.7574,1.61
66.7574,1.573
66.7584,1.542
66.7584,1.51
66.7584,1.525
66.7584,1.54
66.7584,1.532
66.7584,1.551
66.7594,1.561
66.7594,1.577
66.7594,1.604
66.7594,1.613
66.7594,1.623
66.7594,1.575
66.7594,1.555
66.7604,1.532
66.7604,1.515
66.7604,1.483
66.7604,1.457
66.7614,1.467
66.7614,1.461
66.7614,1.47
66.7614,1.476
66.7624,1.49
66.7624,1.507
66.7624,1.541
66.7624,1.541
66.7634,1.517
66.7634,1.484
66.7634,1.461
66.7634,1.413
66.7634,1.385
66.7644,1.351
66.7644,1.347
66.7644,1.368
66.7644,1.359
66.7654,1.354
66.7654,1.372
66.7654,1.378
66.7654,1.415
66.7654,1.427
66.7664,1.425
66.7664,1.428
66.7664,1.362
66.7664,1.343
66.7674,1.322
66.7674,1.302
66.7674,1.28
66.7674,1.289
66.7674,1.292
66.7684,1.296
66.7684,1.307
66.7684,1.322
66.7684,1.336
66.7694,1.362
66.7694,1.41
66.7694,1.384
66.7694,1.35
66.7694,1.34
66.7704,1.329
66.7704,1.308
66.7704,1.277
66.7704,1.276
