52.8802,1.706
52.8802,1.878
52.8812,1.781
52.8812,1.344
52.8832,1.242
52.8901,1.242
52.9051,1.242
52.9061,1.242
52.9076,1.242
52.9113,1.236
52.9171,1.219
52.9710,1.213
52.9749,1.233
52.9863,1.312
52.9909,1.524
52.9940,1.708
53.0021,1.903
53.0278,1.833
53.0298,1.372
53.0357,1.242
53.0357,1.242
53.0367,1.242
53.0377,1.242
53.0377,1.242
53.0387,1.238
53.0387,1.219
53.0397,1.219
53.0407,1.234
53.0407,1.313
53.0417,1.528
53.0417,1.706
53.0427,1.912
53.0427,1.795
53.0437,1.242
53.0437,1.242
53.0447,1.242
53.0447,1.242
53.0457,1.242
53.0457,1.242
53.0467,1.239
53.0467,1.214
53.0477,1.219
53.0477,1.233
53.0487,1.307
53.0497,1.519
53.0507,1.699
53.0517,1.874
53.0527,1.428
53.0527,1.242
53.0537,1.242
53.0537,1.242
53.0547,1.242
53.0547,1.241
53.0557,1.24
53.0567,1.221
53.0577,1.214
53.0587,1.218
53.0587,1.232
53.0597,1.299
53.0597,1.504
53.0607,1.904
53.0617,1.888
53.0627,1.459
53.0627,1.242
53.0637,1.242
53.0637,1.242
53.0647,1.242
53.0647,1.242
53.0657,1.241
53.0677,1.221
53.0687,1.214
53.0697,1.218
53.0697,1.23
53.0707,1.29
53.0707,1.673
53.0717,1.89
53.0717,1.907
53.0727,1.486
53.0736,1.242
53.0746,1.242
53.0746,1.242
53.0756,1.242
53.0756,1.242
53.0766,1.242
53.0766,1.221
53.0776,1.214
53.0787,1.218
53.0796,1.281
53.0806,1.474
53.0806,1.658
53.0816,1.881
53.0816,1.882
53.0896,1.451
53.1046,1.242
53.1067,1.242
53.1226,1.242
53.1275,1.242
53.1275,1.241
53.1285,1.242
53.1285,1.222
53.1295,1.217
53.1295,1.227
53.1305,1.274
53.1315,1.464
53.1325,1.651
53.1336,1.874
53.1345,1.909
53.1355,1.243
53.1355,1.242
53.1365,1.242
53.1365,1.242
53.1375,1.242
53.1375,1.242
53.1385,1.224
53.1385,1.214
53.1395,1.217
53.1395,1.226
53.1405,1.268
53.1415,1.448
53.1415,1.636
53.1425,1.917
53.1425,1.57
53.1435,1.247
53.1435,1.242
53.1445,1.242
53.1445,1.242
53.1455,1.242
53.1455,1.242
53.1465,1.225
53.1465,1.216
53.1475,1.216
53.1484,1.226
53.1484,1.262
53.1495,1.629
53.1505,1.86
53.1514,1.932
53.1514,1.608
53.1525,1.253
53.1525,1.242
53.1535,1.242
53.1535,1.242
53.1545,1.242
53.1545,1.242
53.1555,1.226
53.1555,1.215
53.1565,1.216
53.1565,1.257
53.1575,1.429
53.1575,1.617
53.1585,1.856
53.1585,1.933
53.1595,1.56
53.1595,1.252
53.1605,1.242
53.1605,1.242
53.1615,1.242
53.1615,1.242
53.1624,1.242
53.1635,1.228
53.1644,1.215
53.1644,1.224
53.1654,1.252
53.1656,1.415
53.1664,1.606
53.1674,1.85
53.1674,1.935
53.1684,1.272
53.1684,1.242
53.1694,1.242
53.1694,1.242
53.1704,1.242
53.1704,1.242
53.1714,1.231
53.1714,1.216
53.1724,1.215
53.1724,1.223
53.1734,1.249
53.1734,1.399
53.1744,1.596
53.1744,1.93
53.1754,1.677
53.1754,1.28
53.1764,1.242
53.1774,1.242
53.1774,1.242
53.1784,1.242
53.1784,1.242
53.1794,1.231
53.1794,1.218
53.1804,1.214
53.1804,1.222
53.1816,1.243
53.1824,1.377
53.1824,1.802
53.1843,1.914
53.1843,1.701
53.1853,1.289
53.1863,1.242
53.1863,1.242
53.1873,1.242
53.1873,1.242
53.1883,1.242
53.1883,1.232
53.1893,1.217
53.1893,1.214
53.1903,1.221
53.1903,1.242
53.1913,1.576
53.1923,1.792
53.1923,1.919
53.1933,1.689
53.1933,1.29
53.1943,1.242
53.1947,1.242
53.2003,1.242
53.2133,1.242
53.2266,1.242
53.2339,1.233
53.2342,1.218
53.2354,1.214
53.2354,1.24
53.2363,1.355
53.2373,1.569
53.2373,1.774
53.2382,1.916
53.2382,1.773
53.2392,1.325
53.2392,1.242
53.2402,1.242
53.2402,1.242
53.2412,1.242
53.2412,1.242
53.2422,1.234
53.2422,1.219
53.2432,1.22
53.2442,1.239
53.2452,1.344
53.2452,1.563
53.2462,1.755
53.2462,1.916
53.2472,1.801
53.2472,1.242
53.2482,1.242
53.2482,1.242
53.2492,1.242
53.2502,1.242
53.2512,1.242
53.2512,1.236
53.2522,1.214
53.2532,1.22
53.2532,1.238
53.2542,1.334
53.2542,1.555
53.2552,1.738
53.2552,1.918
53.2562,1.368
53.2562,1.242
53.2572,1.242
53.2572,1.242
53.2584,1.242
53.2592,1.242
53.2592,1.237
53.2602,1.219
53.2611,1.214
53.2611,1.22
53.2621,1.236
53.2621,1.322
53.2631,1.544
53.2631,1.92
53.2641,1.827
53.2641,1.349
53.2651,1.242
53.2661,1.242
53.2661,1.242
53.2671,1.242
53.2681,1.242
53.2691,1.238
53.2691,1.22
53.2701,1.214
53.2701,1.22
53.2711,1.235
53.2711,1.314
53.2721,1.709
53.2721,1.919
53.2731,1.878
53.2731,1.411
53.2741,1.242
53.2751,1.242
53.2751,1.242
53.2761,1.242
53.2761,1.242
53.2771,1.239
53.2771,1.219
53.2781,1.212
53.2791,1.214
53.2791,1.22
53.2801,1.352
53.2801,1.524
53.2811,1.731
53.2811,1.705
53.2821,1.352
53.2831,1.242
53.2833,1.242
53.2841,1.242
53.2841,1.242
53.2851,1.242
53.2861,1.241
53.2861,1.222
53.2871,1.217
53.2871,1.231
53.2881,1.407
53.2881,1.634
53.2891,1.791
53.2891,2.009
53.2901,2.0
53.2911,1.562
53.2912,1.242
53.2921,1.242
53.2921,1.241
53.2931,1.242
53.2931,1.242
53.2941,1.242
53.2941,1.223
53.2951,1.224
53.2951,1.238
53.2961,1.316
53.2961,1.529
53.2971,1.699
53.2971,1.915
53.2980,1.924
53.2990,1.242
53.2990,1.242
53.3002,1.242
53.3010,1.242
53.3010,1.242
53.3020,1.242
53.3020,1.242
53.3031,1.214
53.3041,1.218
53.3093,1.229
53.3130,1.279
53.3260,1.471
53.3399,1.655
53.3439,1.873
53.3449,1.522
53.3449,1.242
53.3449,1.242
53.3449,1.242
53.3459,1.242
53.3459,1.242
53.3459,1.242
53.3469,1.224
53.3469,1.214
53.3469,1.217
53.3479,1.226
53.3479,1.268
53.3479,1.45
53.3489,1.861
53.3489,1.909
53.3499,1.544
53.3499,1.244
53.3509,1.242
53.3509,1.242
53.3509,1.242
53.3519,1.242
53.3519,1.242
53.3519,1.224
53.3519,1.215
53.3529,1.216
53.3529,1.225
53.3529,1.26
53.3529,1.622
53.3539,1.849
53.3539,1.891
53.3539,1.573
53.3539,1.247
53.3549,1.242
53.3571,1.242
53.3579,1.242
53.3606,1.242
53.3610,1.242
53.3620,1.226
53.3643,1.215
53.3647,1.215
53.3653,1.224
53.3673,1.423
53.3695,1.607
53.3695,1.844
53.3717,1.916
53.3723,1.557
53.3733,1.25
53.3753,1.242
53.3763,1.242
53.3773,1.242
53.3799,1.242
53.3811,1.242
53.3819,1.227
53.3839,1.215
53.3849,1.223
53.3860,1.25
53.3877,1.408
53.3890,1.598
53.3899,1.838
53.3929,1.924
53.3929,1.625
53.3939,1.242
53.3961,1.242
53.3969,1.242
53.3991,1.242
53.3999,1.242
53.4009,1.242
53.4031,1.23
53.4059,1.214
53.4149,1.222
53.4269,1.246
53.4295,1.392
53.4298,1.586
53.4302,1.829
53.4309,1.916
53.4309,1.274
53.4309,1.242
53.4309,1.242
53.4318,1.242
53.4318,1.242
53.4328,1.242
53.4328,1.242
53.4338,1.217
53.4338,1.214
53.4348,1.221
53.4349,1.242
53.4349,1.37
53.4358,1.57
53.4358,1.803
53.4358,1.656
53.4368,1.285
53.4368,1.242
53.4368,1.242
53.4378,1.241
53.4400,1.242
53.4400,1.242
53.4408,1.231
53.4439,1.217
53.4439,1.213
53.4449,1.219
53.4471,1.237
53.4479,1.342
53.4493,1.771
53.4510,1.882
53.4519,1.659
53.4543,1.275
53.4548,1.242
53.4558,1.242
53.4580,1.242
53.4588,1.242
53.4598,1.242
53.4621,1.231
53.4629,1.217
53.4638,1.212
53.4663,1.218
53.4664,1.233
53.4673,1.518
53.4694,1.731
53.4713,1.862
53.4713,1.695
53.4747,1.297
53.4747,1.242
53.4757,1.242
53.4780,1.242
53.4787,1.242
53.4797,1.242
53.4828,1.233
53.4835,1.217
53.4846,1.212
53.4857,1.217
53.4867,1.301
53.4877,1.5
53.4897,1.706
53.4907,1.853
53.4937,1.312
53.4947,1.242
53.4967,1.242
53.4977,1.241
53.4989,1.242
53.5007,1.242
53.5017,1.234
53.5027,1.212
53.5047,1.217
53.5057,1.229
53.5077,1.294
53.5088,1.494
53.5099,1.689
53.5118,1.858
53.5128,1.341
53.5138,1.242
53.5159,1.242
53.5169,1.242
53.5179,1.242
53.5199,1.242
53.5210,1.235
53.5210,1.218
53.5262,1.213
53.5293,1.217
53.5368,1.231
53.5479,1.302
53.5508,1.514
53.5518,1.888
53.5518,1.809
53.5528,1.335
53.5528,1.242
53.5528,1.242
53.5528,1.242
53.5539,1.242
53.5539,1.242
53.5539,1.237
53.5549,1.219
53.5549,1.213
53.5549,1.218
53.5559,1.233
53.5559,1.52
53.5559,1.699
53.5569,1.907
53.5569,1.844
53.5569,1.391
53.5569,1.242
53.5579,1.242
53.5579,1.242
53.5589,1.242
53.5600,1.242
53.5630,1.239
53.5630,1.221
53.5630,1.214
53.5659,1.233
53.5669,1.308
53.5679,1.519
53.5706,1.694
53.5706,1.911
53.5716,1.868
53.5749,1.425
53.5749,1.242
53.5758,1.242
53.5790,1.242
53.5790,1.242
53.5800,1.242
53.5824,1.24
53.5836,1.214
53.5854,1.218
53.5854,1.231
53.5863,1.296
53.5895,1.505
53.5895,1.687
53.5903,1.902
53.5928,1.455
53.5940,1.242
53.5948,1.242
53.5980,1.242
53.5980,1.242
53.5980,1.242
53.6012,1.242
53.6020,1.22
53.6030,1.214
53.6054,1.218
53.6054,1.23
53.6064,1.289
53.6095,1.492
53.6095,1.892
53.6106,1.9
53.6127,1.448
53.6135,1.242
53.6160,1.242
53.6168,1.242
53.6177,1.242
53.6200,1.242
53.6212,1.242
53.6220,1.221
53.6252,1.214
53.6252,1.218
53.6260,1.228
53.6290,1.281
53.6290,1.658
53.6290,1.879
53.6324,1.916
53.6324,1.507
53.6332,1.242
53.6372,1.242
53.6463,1.242
53.6586,1.242
53.6594,1.242
53.6596,1.242
53.6596,1.223
53.6596,1.215
53.6606,1.217
53.6606,1.274
53.6606,1.462
53.6616,1.647
53.6616,1.874
53.6616,1.904
53.6626,1.529
53.6626,1.243
53.6626,1.242
53.6636,1.242
53.6636,1.242
53.6636,1.242
53.6647,1.242
53.6649,1.223
53.6649,1.214
53.6656,1.226
53.6666,1.268
53.6676,1.451
53.6686,1.638
53.6709,1.865
53.6719,1.874
53.6729,1.247
53.6761,1.242
53.6761,1.242
53.6771,1.242
53.6796,1.242
53.6801,1.242
53.6801,1.242
53.6827,1.215
53.6837,1.216
53.6847,1.225
53.6870,1.261
53.6870,1.438
53.6910,1.626
53.6910,1.862
53.6921,1.578
53.6949,1.247
53.6949,1.242
53.6960,1.242
53.6983,1.242
53.6987,1.242
53.6996,1.242
53.7029,1.226
53.7035,1.216
53.7035,1.216
53.7071,1.225
53.7071,1.257
53.7081,1.425
53.7109,1.619
53.7112,1.928
53.7123,1.62
53.7146,1.257
53.7146,1.242
53.7157,1.242
53.7189,1.242
53.7199,1.242
53.7209,1.242
53.7218,1.229
53.7228,1.217
53.7238,1.215
53.7268,1.224
53.7268,1.252
53.7290,1.418
53.7298,1.85
53.7308,1.931
53.7329,1.646
53.7340,1.268
53.7349,1.242
53.7359,1.242
53.7389,1.242
53.7389,1.242
53.7422,1.242
53.7500,1.23
53.7804,1.217
53.7887,1.215
53.7897,1.223
53.7897,1.399
53.7907,1.597
53.7907,1.835
53.7917,1.914
53.7917,1.607
53.7927,1.285
53.7937,1.242
53.7937,1.242
53.7950,1.242
53.7950,1.242
53.7960,1.242
53.7960,1.231
53.7970,1.217
53.7980,1.214
53.7980,1.244
53.7990,1.377
53.8000,1.58
53.8012,1.809
53.8020,1.912
53.8020,1.699
53.8030,1.242
53.8040,1.242
53.8050,1.242
53.8050,1.242
53.8060,1.242
53.8060,1.242
53.8072,1.232
53.8083,1.214
53.8083,1.222
53.8092,1.242
53.8103,1.37
53.8103,1.581
53.8112,1.798
53.8112,1.746
53.8124,1.308
53.8124,1.242
53.8135,1.242
53.8145,1.242
53.8145,1.242
53.8155,1.242
53.8164,1.233
53.8171,1.22
53.8186,1.214
53.8195,1.221
53.8205,1.241
53.8215,1.363
53.8215,1.576
53.8225,1.921
53.8225,1.766
53.8235,1.325
53.8235,1.241
53.8246,1.242
53.8246,1.242
53.8257,1.242
53.8267,1.242
53.8267,1.234
53.8277,1.219
53.8277,1.214
53.8287,1.221
53.8298,1.24
53.8298,1.572
53.8309,1.763
53.8309,1.92
53.8319,1.719
53.8355,1.345
53.8365,1.242
53.8365,1.242
53.8375,1.242
53.8384,1.242
53.8394,1.242
53.8418,1.235
53.8429,1.219
53.8459,1.214
53.8471,1.239
53.8471,1.34
53.8488,1.562
53.8500,1.744
53.8594,1.924
53.8669,1.831
53.8984,1.242
53.9109,1.242
53.9189,1.242
53.9199,1.242
53.9209,1.242
53.9209,1.241
53.9219,1.237
53.9229,1.214
53.9229,1.221
53.9229,1.238
53.9240,1.329
53.9240,1.549
53.9250,1.725
53.9250,1.856
53.9260,1.392
53.9260,1.242
53.9270,1.242
53.9270,1.242
53.9280,1.242
53.9280,1.242
53.9290,1.238
53.9290,1.222
53.9290,1.214
53.9303,1.22
53.9312,1.237
53.9312,1.325
53.9312,1.721
53.9322,1.933
53.9332,1.881
53.9332,1.419
53.9342,1.242
53.9342,1.242
53.9342,1.242
53.9352,1.242
53.9352,1.242
53.9352,1.239
53.9352,1.219
53.9363,1.212
53.9363,1.215
53.9363,1.223
53.9363,1.398
53.9374,1.58
53.9374,1.787
53.9374,1.714
53.9374,1.391
53.9384,1.242
53.9384,1.242
53.9384,1.242
53.9394,1.242
53.9394,1.242
53.9394,1.241
53.9394,1.224
53.9403,1.22
53.9403,1.274
53.9403,1.421
53.9403,1.639
53.9414,1.794
53.9414,2.015
53.9414,2.022
53.9414,1.242
53.9414,1.242
53.9424,1.242
53.9424,1.242
53.9424,1.242
53.9424,1.242
53.9434,1.242
53.9434,1.217
53.9456,1.225
53.9456,1.241
53.9464,1.327
53.9487,1.542
53.9495,1.711
53.9505,1.931
53.9527,1.513
53.9538,1.242
53.9547,1.242
53.9579,1.242
53.9579,1.242
53.9589,1.242
53.9629,1.242
53.9648,1.223
53.9719,1.216
53.9780,1.22
53.9790,1.231
53.9790,1.289
53.9790,1.491
53.9790,1.888
53.9800,1.913
53.9800,1.528
53.9800,1.243
53.9800,1.242
53.9811,1.242
53.9811,1.242
53.9811,1.242
53.9811,1.242
53.9811,1.223
53.9843,1.215
53.9843,1.218
53.9851,1.229
53.9880,1.473
53.9880,1.655
53.9900,1.879
53.9924,1.874
53.9930,1.488
53.9960,1.246
53.9960,1.242
53.9960,1.242
53.9993,1.242
54.0002,1.242
54.0011,1.242
54.0036,1.225
54.0036,1.215
54.0046,1.228
54.0079,1.273
54.0079,1.463
54.0090,1.644
54.0113,1.875
54.0113,1.926
54.0123,1.248
54.0147,1.242
54.0157,1.242
54.0166,1.242
54.0200,1.242
54.0200,1.242
54.0210,1.242
54.0232,1.216
54.0240,1.217
54.0263,1.228
54.0263,1.266
54.0274,1.451
54.0309,1.638
54.0315,1.943
54.0315,1.621
54.0349,1.256
54.0349,1.242
54.0359,1.242
54.0380,1.242
54.0391,1.242
54.0391,1.242
54.0425,1.228
54.0425,1.219
54.0461,1.217
54.0461,1.226
54.0471,1.259
54.0493,1.625
54.0497,1.859
54.0503,1.952
54.0513,1.645
54.0534,1.266
54.0544,1.242
54.0577,1.242
54.0586,1.242
54.0586,1.242
54.0616,1.242
54.0616,1.229
54.0626,1.217
54.0659,1.216
54.0659,1.226
54.0669,1.428
54.0695,1.615
54.0695,1.85
54.0805,1.915
54.0900,1.548
54.0942,1.273
54.0952,1.242
54.0952,1.242
54.0952,1.242
54.0962,1.242
54.0962,1.242
54.0962,1.231
54.0972,1.217
54.0972,1.225
54.0980,1.25
54.0980,1.406
54.0980,1.602
54.0990,1.831
54.0993,1.931
54.1000,1.287
54.1000,1.242
54.1010,1.242
54.1010,1.242
54.1010,1.242
54.1020,1.242
54.1020,1.242
54.1020,1.217
54.1046,1.215
54.1046,1.223
54.1081,1.245
54.1081,1.378
54.1081,1.585
54.1114,1.916
54.1114,1.716
54.1124,1.301
54.1156,1.242
54.1156,1.242
54.1167,1.242
54.1191,1.242
54.1195,1.242
54.1205,1.232
54.1228,1.22
54.1237,1.214
54.1269,1.222
54.1269,1.24
54.1280,1.349
54.1299,1.76
54.1310,1.898
54.1319,1.739
54.1341,1.311
54.1349,1.242
54.1359,1.242
54.1383,1.242
54.1391,1.242
54.1391,1.242
54.1429,1.233
54.1434,1.218
54.1434,1.214
54.1468,1.22
54.1483,1.333
54.1483,1.546
54.1498,1.742
54.1504,1.889
54.1540,1.636
54.1546,1.307
54.1546,1.242
54.1580,1.242
54.1580,1.242
54.1580,1.242
54.1615,1.242
54.1615,1.234
54.1656,1.221
54.1661,1.238
54.1677,1.338
54.1699,1.555
54.1709,1.737
54.1718,1.8
54.1729,1.354
54.1738,1.242
54.1762,1.242
54.1762,1.242
54.1772,1.242
54.1812,1.242
54.1905,1.237
54.2006,1.22
54.2037,1.215
54.2038,1.223
54.2046,1.243
54.2046,1.352
54.2046,1.576
54.2056,1.941
54.2056,1.876
54.2066,1.397
54.2066,1.242
54.2066,1.242
54.2076,1.242
54.2076,1.242
54.2076,1.242
54.2086,1.238
54.2086,1.225
54.2086,1.217
54.2098,1.226
54.2098,1.249
54.2106,1.595
54.2106,1.755
54.2106,1.965
54.2116,1.935
54.2150,1.43
54.2150,1.242
54.2160,1.242
54.2180,1.242
54.2201,1.242
54.2201,1.242
54.2225,1.239
54.2225,1.223
54.2232,1.217
54.2265,1.253
54.2265,1.373
54.2275,1.598
54.2296,1.76
54.2305,1.978
54.2315,1.793
54.2337,1.242
54.2347,1.242
54.2366,1.242
54.2387,1.242
54.2387,1.242
54.2409,1.242
54.2419,1.24
54.2430,1.217
54.2450,1.228
54.2462,1.251
54.2470,1.368
54.2491,1.59
54.2499,1.756
54.2510,1.946
54.2531,1.515
54.2539,1.242
54.2549,1.242
54.2574,1.242
54.2580,1.242
54.2610,1.242
54.2610,1.241
54.2610,1.224
54.2644,1.217
54.2644,1.228
54.2655,1.248
54.2672,1.355
54.2692,1.749
54.2692,1.96
54.2730,1.975
54.2730,1.555
54.2743,1.242
54.2771,1.242
54.2781,1.242
54.2781,1.242
54.2801,1.242
54.2811,1.242
54.2821,1.226
54.2850,1.22
54.2860,1.228
54.2860,1.246
54.2880,1.57
54.2900,1.733
54.2980,1.95
54.3277,1.999
54.3370,1.578
54.3380,1.242
54.3390,1.242
54.3400,1.242
54.3400,1.242
54.3410,1.242
54.3410,1.242
54.3420,1.225
54.3420,1.218
54.3430,1.246
54.3440,1.337
54.3442,1.564
54.3452,1.727
54.3452,1.949
54.3462,1.891
54.3462,1.441
54.3472,1.242
54.3482,1.242
54.3482,1.242
54.3493,1.242
54.3502,1.242
54.3512,1.242
54.3523,1.227
54.3529,1.227
54.3532,1.245
54.3542,1.329
54.3542,1.559
54.3552,1.723
54.3572,1.946
54.3582,1.998
54.3582,1.254
54.3592,1.242
54.3602,1.242
54.3608,1.242
54.3612,1.242
54.3625,1.242
54.3625,1.229
54.3635,1.219
54.3635,1.226
54.3645,1.246
54.3655,1.325
54.3664,1.553
54.3674,1.723
54.3687,2.018
54.3687,1.688
54.3697,1.263
54.3697,1.242
54.3707,1.242
54.3717,1.242
54.3717,1.242
54.3727,1.242
54.3727,1.229
54.3739,1.223
54.3749,1.226
54.3754,1.246
54.3759,1.321
54.3769,1.553
54.3769,1.939
54.3779,2.035
54.3779,1.731
54.3791,1.274
54.3791,1.242
54.3801,1.242
54.3811,1.242
54.3811,1.242
54.3831,1.242
54.3831,1.231
54.3841,1.222
54.3851,1.225
54.3861,1.246
54.3871,1.544
54.3891,1.708
54.3901,1.944
54.3911,2.008
54.3932,1.531
54.4022,1.269
54.4150,1.242
54.4240,1.242
54.4280,1.242
54.4290,1.242
54.4290,1.242
54.4300,1.232
54.4300,1.222
54.4300,1.224
54.4300,1.307
54.4300,1.534
54.4309,1.701
54.4309,1.931
54.4309,2.027
54.4309,1.775
54.4321,1.311
54.4321,1.242
54.4329,1.242
54.4331,1.242
54.4331,1.242
54.4341,1.242
54.4341,1.234
54.4341,1.222
54.4341,1.241
54.4341,1.296
54.4351,1.506
54.4351,1.687
54.4351,1.906
54.4351,2.019
54.4361,1.331
54.4361,1.242
54.4361,1.242
54.4361,1.242
54.4371,1.242
54.4392,1.242
54.4402,1.242
54.4451,1.226
54.4517,1.223
54.4531,1.242
54.4571,1.295
54.4692,1.5
54.4702,1.694
54.4702,2.023
54.4772,1.879
54.4802,1.343
54.4812,1.242
54.4921,1.242
54.4921,1.242
54.4931,1.242
54.5013,1.242
54.5071,1.235
54.5081,1.225
54.5101,1.224
54.5121,1.244
54.5290,1.302
54.5330,1.496
54.5380,1.874
54.5410,2.024
54.5541,1.703
54.5590,1.302
54.5681,1.242
54.5701,1.242
54.5701,1.242
54.5773,1.242
54.5792,1.242
54.5842,1.236
54.5862,1.225
54.5865,1.224
54.5873,1.243
54.5873,1.483
54.5873,1.688
54.5873,1.855
54.5873,2.022
54.5883,1.922
54.5883,1.398
54.5883,1.242
54.5883,1.242
54.5883,1.242
54.5883,1.242
54.5893,1.242
54.5893,1.238
54.5893,1.225
54.5893,1.241
54.5893,1.294
54.5903,1.469
54.5903,1.677
54.5903,1.842
54.5903,2.023
54.5903,1.431
54.5903,1.242
54.5913,1.242
54.5913,1.242
54.5913,1.242
54.5913,1.242
54.5913,1.242
54.5924,1.227
54.5924,1.224
54.5924,1.241
54.5924,1.289
54.5924,1.456
54.5934,1.675
54.5936,2.027
54.5936,2.005
54.5962,1.457
54.6034,1.242
54.6054,1.241
54.6062,1.242
54.6084,1.242
54.6114,1.242
54.6117,1.239
54.6196,1.226
54.6266,1.222
54.6286,1.241
54.6350,1.289
54.6396,1.446
54.6406,1.815
54.6477,2.029
54.6516,1.869
54.6576,1.352
54.6607,1.242
54.6647,1.242
54.6653,1.242
54.6658,1.242
54.6667,1.242
54.6667,1.24
54.6678,1.222
54.6678,1.216
54.6678,1.223
54.6678,1.312
54.6687,1.527
54.6687,1.715
54.6687,1.97
54.6687,1.995
54.6687,1.526
54.6697,1.242
54.6697,1.242
54.6697,1.242
54.6697,1.242
54.6697,1.242
54.6697,1.241
54.6707,1.235
54.6707,1.322
54.6707,1.402
54.6707,1.55
54.6707,1.724
54.6717,1.858
54.6717,2.073
54.6717,1.664
54.6717,1.242
54.6717,1.242
54.6727,1.242
54.6727,1.242
54.6727,1.242
54.6727,1.242
54.6727,1.23
54.6738,1.226
54.6738,1.252
54.6738,1.291
54.6838,1.431
54.6841,1.647
54.6841,1.998
54.6847,2.048
54.6847,1.621
54.6847,1.243
54.6847,1.242
54.6847,1.242
54.6847,1.242
54.6858,1.242
54.6858,1.242
54.6858,1.228
54.6858,1.221
54.6858,1.237
54.6869,1.266
54.6872,1.616
54.6872,1.764
54.6872,1.984
54.6878,2.005
54.6878,1.433
54.6898,1.242
54.6950,1.242
54.6950,1.242
54.6950,1.242
54.6960,1.242
54.6960,1.242
54.6960,1.228
54.6970,1.22
54.6971,1.257
54.6971,1.367
54.6971,1.604
54.6971,1.75
54.6980,1.973
54.6980,2.023
54.6980,1.664
54.6980,1.242
54.6980,1.242
54.6990,1.242
54.6991,1.242
54.6991,1.242
54.6991,1.242
54.7000,1.231
54.7000,1.232
54.7000,1.256
54.7000,1.357
54.7000,1.586
54.7010,1.739
54.7010,1.964
54.7010,1.708
54.7010,1.261
54.7019,1.242
54.7023,1.242
54.7024,1.242
54.7029,1.242
54.7034,1.242
54.7034,1.23
54.7079,1.223
54.7105,1.229
54.7105,1.253
54.7105,1.341
54.7114,1.574
54.7114,1.952
54.7114,2.04
54.7114,1.747
54.7124,1.268
54.7124,1.242
54.7124,1.242
54.7124,1.242
54.7124,1.242
54.7135,1.242
54.7135,1.231
54.7135,1.222
54.7135,1.227
54.7135,1.25
54.7145,1.329
54.7145,1.718
54.7145,1.951
54.7145,2.045
54.7155,1.57
54.7155,1.255
54.7162,1.242
54.7165,1.242
54.7177,1.242
54.7205,1.242
54.7256,1.242
54.7330,1.233
54.7340,1.222
54.7360,1.226
54.7401,1.319
54.7411,1.546
54.7411,1.707
54.7411,1.939
54.7411,2.03
54.7411,1.785
54.7411,1.242
54.7421,1.242
54.7421,1.242
54.7421,1.242
54.7421,1.242
54.7421,1.242
54.7432,1.235
54.7445,1.224
54.7445,1.244
54.7463,1.306
54.7516,1.524
54.7538,1.698
54.7544,1.92
54.7548,1.825
54.7548,1.327
54.7548,1.242
54.7560,1.242
54.7568,1.242
54.7597,1.242
54.7597,1.242
54.7607,1.234
54.7658,1.225
54.7689,1.222
54.7689,1.24
54.7689,1.291
54.7689,1.49
54.7698,1.88
54.7712,1.997
54.7712,1.849
54.7740,1.335
54.7752,1.242
54.7760,1.242
54.7782,1.242
54.7790,1.242
54.7790,1.242
54.7826,1.234
54.7836,1.222
54.7836,1.22
54.7869,1.234
54.7876,1.449
54.7879,1.659
54.7901,1.851
54.7909,1.99
54.7949,1.739
54.8019,1.288
54.8019,1.242
54.8029,1.242
54.8029,1.242
54.8029,1.242
54.8039,1.242
54.8043,1.235
54.8043,1.222
54.8049,1.219
54.8060,1.265
54.8069,1.429
54.8099,1.645
54.8099,1.824
54.8109,1.979
54.8130,1.866
54.8239,1.242
54.8279,1.242
54.8318,1.242
54.8448,1.242
54.8539,1.242
54.8579,1.242
54.8610,1.237
54.8768,1.219
54.8768,1.232
54.8778,1.266
54.8883,1.421
54.8951,1.64
54.9076,1.814
54.9116,1.917
54.9217,1.409
54.9295,1.242
54.9335,1.242
54.9435,1.242
54.9535,1.242
54.9651,1.237
54.9666,1.224
54.9696,1.221
54.9736,1.233
54.9837,1.272
54.9917,1.652
54.9947,1.809
55.0062,1.996
55.0138,1.89
55.0180,1.455
55.0258,1.242
55.0298,1.242
55.0368,1.242
55.0401,1.242
55.0491,1.242
55.0517,1.239
55.0557,1.225
55.0567,1.22
55.0697,1.277
55.0809,1.424
55.0948,1.654
55.1028,1.805
55.1098,2.016
55.1188,1.945
55.1258,1.242
55.1320,1.242
55.1337,1.241
55.1417,1.242
55.1527,1.242
55.1529,1.242
55.1567,1.238
55.1787,1.221
55.1836,1.238
55.1867,1.275
55.1968,1.419
55.2056,1.647
55.2104,1.797
55.2186,1.991
55.2205,1.514
55.2235,1.242
55.2345,1.242
55.2355,1.242
55.2425,1.242
55.2535,1.242
55.2575,1.24
55.2657,1.229
55.2724,1.22
55.2734,1.236
55.2745,1.267
55.2893,1.405
55.3033,1.629
55.3083,2.003
55.3173,2.011
55.3242,1.561
55.3283,1.242
55.3372,1.242
55.3421,1.242
55.3422,1.242
55.3468,1.242
55.3532,1.241
55.3552,1.226
55.3581,1.221
55.3622,1.235
55.3631,1.263
55.3641,1.614
55.3644,1.773
55.3644,1.985
55.3644,1.938
55.3651,1.597
55.3701,1.242
55.3731,1.242
55.3741,1.242
55.3801,1.242
55.3871,1.242
55.3891,1.242
55.3911,1.225
55.3960,1.219
55.3970,1.256
55.3980,1.369
55.3980,1.601
55.3980,1.757
55.3980,1.976
55.3990,2.021
55.3990,1.242
55.3990,1.242
55.3990,1.242
55.4000,1.242
55.4000,1.242
55.4000,1.242
55.4000,1.242
55.4007,1.22
55.4011,1.231
55.4011,1.253
55.4011,1.351
55.4011,1.586
55.4020,1.741
55.4020,1.965
55.4020,1.632
55.4020,1.247
55.4020,1.242
55.4020,1.242
55.4031,1.242
55.4031,1.242
55.4031,1.242
55.4031,1.231
55.4031,1.22
55.4041,1.229
55.4041,1.25
55.4041,1.34
55.4041,1.572
55.4041,1.727
55.4041,2.014
55.4051,1.677
55.4051,1.257
55.4051,1.242
55.4051,1.242
55.4051,1.242
55.4060,1.242
55.4060,1.242
55.4060,1.229
55.4060,1.221
55.4060,1.227
55.4070,1.247
55.4070,1.328
55.4070,1.722
55.4070,1.946
55.4070,1.947
55.4070,1.689
55.4080,1.268
55.4080,1.242
55.4080,1.242
55.4090,1.242
55.4150,1.242
55.4170,1.242
55.4170,1.23
55.4170,1.221
55.4180,1.225
55.4180,1.245
55.4180,1.544
55.4180,1.71
55.4180,1.943
55.4190,2.032
55.4190,1.631
55.4190,1.258
55.4190,1.242
55.4190,1.242
55.4200,1.242
55.4200,1.242
55.4200,1.242
55.4200,1.231
55.4200,1.221
55.4210,1.243
55.4210,1.304
55.4210,1.531
55.4210,1.7
55.4210,1.932
55.4220,2.024
55.4220,1.751
55.4220,1.242
55.4220,1.242
55.4220,1.241
55.4231,1.242
55.4231,1.242
55.4231,1.242
55.4231,1.234
55.4240,1.223
55.4240,1.241
55.4240,1.295
55.4240,1.512
55.4240,1.687
55.4250,1.916
55.4250,2.013
55.4250,1.317
55.4250,1.242
55.4260,1.242
55.4260,1.242
55.4260,1.242
55.4260,1.242
55.4260,1.242
55.4270,1.223
55.4270,1.222
55.4270,1.238
55.4270,1.289
55.4270,1.491
55.4280,1.681
55.4280,1.894
55.4280,1.696
55.4280,1.343
55.4280,1.242
55.4289,1.242
55.4289,1.242
55.4289,1.242
55.4289,1.242
55.4289,1.234
55.4289,1.222
55.4299,1.22
55.4299,1.234
55.4304,1.277
55.4309,1.46
55.4377,1.857
55.4389,1.992
55.4389,1.798
55.4389,1.283
55.4399,1.242
55.4399,1.242
55.4399,1.242
55.4399,1.242
55.4399,1.242
55.4409,1.234
55.4409,1.222
55.4409,1.219
55.4409,1.232
55.4409,1.434
55.4419,1.658
55.4419,1.834
55.4419,1.994
55.4419,1.877
55.4419,1.356
55.4429,1.242
55.4429,1.242
55.4429,1.242
55.4429,1.242
55.4429,1.242
55.4429,1.237
55.4439,1.226
55.4439,1.232
55.4439,1.269
55.4439,1.429
55.4439,1.65
55.4450,1.819
55.4450,1.99
55.4459,1.9
55.4522,1.242
55.4539,1.242
55.4539,1.242
55.4539,1.242
55.4539,1.242
55.4539,1.242
55.4549,1.223
55.4549,1.219
55.4549,1.231
55.4549,1.265
55.4549,1.412
55.4559,1.64
55.4559,1.803
55.4559,1.778
55.4559,1.439
55.4559,1.242
55.4569,1.242
55.4569,1.242
55.4569,1.242
55.4569,1.242
55.4569,1.238
55.4569,1.223
55.4579,1.218
55.4579,1.23
55.4579,1.261
55.4579,1.396
55.4579,1.785
55.4589,1.989
55.4589,1.953
55.4589,1.368
55.4589,1.242
55.4589,1.242
55.4589,1.242
55.4599,1.242
55.4601,1.242
55.4601,1.239
55.4601,1.223
55.4601,1.218
55.4609,1.229
55.4609,1.377
55.4609,1.612
55.4609,1.769
55.4609,1.985
55.4619,1.969
55.4619,1.469
55.4619,1.242
55.4619,1.242
55.4619,1.242
55.4619,1.242
55.4629,1.242
55.4629,1.24
55.4629,1.228
55.4629,1.229
55.4629,1.252
55.4639,1.365
55.4639,1.595
55.4639,1.754
55.4639,1.98
55.4639,1.962
55.4649,1.242
55.4649,1.242
55.4649,1.242
55.4649,1.242
55.4649,1.242
55.4660,1.242
55.4660,1.222
55.4660,1.215
55.4669,1.219
55.4669,1.229
55.4669,1.275
55.4678,1.447
55.4678,1.623
55.4699,1.686
55.4748,1.425
55.4758,1.242
55.4758,1.242
55.4758,1.242
55.4768,1.242
55.4768,1.242
55.4768,1.242
55.4768,1.224
55.4768,1.218
55.4778,1.237
55.4778,1.283
55.4778,1.455
55.4778,1.815
55.4778,2.028
55.4778,2.093
55.4788,1.608
55.4788,1.243
55.4788,1.242
55.4788,1.241
55.4788,1.242
55.4798,1.242
55.4798,1.242
55.4798,1.227
55.4798,1.221
55.4798,1.236
55.4808,1.372
55.4808,1.594
55.4808,1.746
55.4814,1.964
55.4814,2.008
55.4818,1.628
55.4848,1.242
55.4898,1.242
55.4968,1.242
55.5008,1.242
55.5028,1.242
55.5067,1.242
55.5077,1.229
55.5077,1.223
55.5087,1.238
55.5087,1.306
55.5087,1.532
55.5087,1.693
55.5087,1.925
55.5097,1.981
55.5099,1.251
55.5099,1.242
55.5099,1.242
55.5107,1.242
55.5107,1.242
55.5107,1.242
55.5107,1.227
55.5107,1.217
55.5117,1.221
55.5117,1.234
55.5117,1.289
55.5117,1.508
55.5117,1.678
55.5127,1.904
55.5127,1.541
55.5127,1.267
55.5127,1.242
55.5127,1.242
55.5137,1.242
55.5137,1.242
55.5137,1.242
55.5137,1.228
55.5137,1.217
55.5147,1.22
55.5147,1.232
55.5147,1.279
55.5147,1.665
55.5147,1.897
55.5157,1.984
55.5161,1.66
55.5161,1.253
55.5167,1.242
55.5167,1.242
55.5167,1.242
55.5167,1.242
55.5167,1.242
55.5178,1.229
55.5178,1.218
55.5178,1.218
55.5188,1.27
55.5188,1.462
55.5251,1.654
55.5251,1.886
55.5267,1.975
55.5270,1.711
55.5270,1.273
55.5277,1.242
55.5277,1.242
55.5277,1.242
55.5277,1.242
55.5277,1.242
55.5277,1.233
55.5287,1.217
55.5287,1.229
55.5287,1.261
55.5287,1.445
55.5287,1.636
55.5297,1.867
55.5297,1.961
55.5297,1.297
55.5297,1.242
55.5297,1.242
55.5307,1.242
55.5307,1.242
55.5307,1.242
55.5307,1.232
55.5307,1.219
55.5317,1.217
55.5317,1.228
55.5317,1.258
55.5324,1.427
55.5327,1.626
55.5327,1.929
55.5327,1.579
55.5337,1.321
55.5337,1.242
55.5337,1.242
55.5337,1.242
55.5347,1.242
55.5347,1.242
55.5347,1.233
55.5347,1.219
55.5347,1.216
55.5357,1.226
55.5357,1.252
55.5357,1.616
55.5357,1.818
55.5357,1.943
55.5357,1.787
55.5367,1.289
55.5367,1.242
55.5367,1.242
55.5367,1.242
55.5367,1.242
55.5377,1.242
55.5377,1.234
55.5377,1.219
55.5377,1.215
55.5377,1.247
55.5387,1.373
55.5387,1.597
55.5387,1.782
55.5387,1.931
55.5387,1.801
55.5397,1.34
55.5397,1.242
55.5397,1.242
55.5397,1.242
55.5397,1.242
55.5397,1.242
55.5407,1.235
55.5407,1.214
55.5407,1.221
55.5407,1.24
55.5407,1.342
55.5417,1.563
55.5417,1.743
55.5417,1.912
55.5417,1.35
55.5417,1.242
55.5427,1.242
55.5427,1.242
55.5427,1.242
55.5427,1.242
55.5427,1.242
55.5427,1.22
55.5437,1.214
55.5437,1.22
55.5437,1.237
55.5437,1.326
55.5437,1.539
55.5447,1.899
55.5447,1.619
55.5447,1.352
55.5447,1.242
55.5456,1.242
55.5456,1.242
55.5456,1.242
55.5456,1.242
55.5456,1.237
55.5456,1.219
55.5466,1.214
55.5469,1.234
55.5469,1.525
55.5469,1.708
55.5469,1.899
55.5477,1.84
55.5477,1.375
55.5477,1.242
55.5477,1.242
55.5477,1.242
55.5486,1.242
55.5486,1.242
55.5488,1.239
55.5488,1.219
55.5496,1.214
55.5496,1.235
55.5496,1.311
55.5496,1.527
55.5506,1.704
55.5506,1.921
55.5506,1.89
55.5506,1.242
55.5506,1.242
55.5516,1.242
55.5516,1.242
55.5516,1.242
55.5516,1.242
55.5516,1.24
55.5526,1.215
55.5526,1.221
55.5526,1.236
55.5526,1.316
55.5526,1.534
55.5526,1.709
55.5536,1.903
55.5540,1.459
55.5540,1.242
55.5559,1.242
55.5568,1.242
55.5576,1.242
55.5598,1.242
55.5608,1.241
55.5616,1.222
55.5657,1.215
55.5686,1.221
55.5696,1.235
55.5696,1.313
55.5706,1.53
55.5706,1.922
55.5717,1.876
55.5726,1.459
55.5736,1.242
55.5768,1.242
55.5768,1.242
55.5778,1.242
55.5800,1.242
55.5807,1.242
55.5827,1.222
55.5840,1.215
55.5847,1.221
55.5871,1.234
55.5876,1.512
55.5885,1.694
55.5906,1.909
55.5914,1.933
55.5925,1.526
55.5946,1.242
55.5984,1.242
55.6074,1.242
55.6174,1.242
55.6203,1.242
55.6207,1.242
55.6207,1.223
55.6213,1.215
55.6213,1.232
55.6213,1.289
55.6223,1.495
55.6223,1.677
55.6223,1.896
55.6233,1.94
55.6233,1.244
55.6233,1.242
55.6243,1.242
55.6243,1.242
55.6243,1.242
55.6253,1.242
55.6253,1.242
55.6253,1.217
55.6263,1.219
55.6263,1.23
55.6263,1.28
55.6273,1.481
55.6295,1.659
55.6304,1.943
55.6314,1.58
55.6333,1.247
55.6343,1.242
55.6369,1.242
55.6391,1.242
55.6391,1.242
55.6412,1.242
55.6412,1.226
55.6420,1.216
55.6452,1.218
55.6461,1.228
55.6461,1.27
55.6489,1.461
55.6499,1.879
55.6509,1.851
55.6533,1.431
55.6537,1.253
55.6543,1.242
55.6575,1.242
55.6582,1.242
55.6582,1.242
55.6620,1.242
55.6620,1.227
55.6620,1.216
55.6654,1.217
55.6662,1.227
55.6664,1.264
55.6699,1.631
55.6706,1.868
55.6706,1.929
55.6727,1.635
55.6736,1.257
55.6745,1.242
55.6769,1.242
55.6776,1.242
55.6787,1.242
55.6808,1.242
55.6818,1.229
55.6842,1.217
55.6850,1.216
55.6860,1.258
55.6882,1.433
55.6893,1.622
55.6893,1.855
55.6923,1.949
55.6926,1.684
55.6933,1.277
55.6958,1.242
55.6970,1.242
55.6978,1.242
55.7002,1.242
55.7010,1.242
55.7019,1.231
55.7040,1.222
55.7148,1.225
55.7249,1.253
55.7279,1.415
55.7279,1.612
55.7279,1.838
55.7291,1.948
55.7291,1.696
55.7299,1.242
55.7300,1.242
55.7300,1.242
55.7300,1.242
55.7310,1.242
55.7310,1.242
55.7310,1.232
55.7323,1.216
55.7330,1.224
55.7334,1.248
55.7340,1.399
55.7340,1.601
55.7340,1.829
55.7350,1.519
55.7353,1.287
55.7353,1.242
55.7362,1.242
55.7362,1.242
55.7399,1.242
55.7405,1.242
55.7405,1.233
55.7428,1.218
55.7450,1.215
55.7462,1.223
55.7470,1.245
55.7480,1.386
55.7490,1.593
55.7513,1.929
55.7523,1.762
55.7530,1.32
55.7552,1.242
55.7560,1.242
55.7560,1.242
55.7604,1.242
55.7611,1.242
55.7630,1.234
55.7630,1.218
55.7640,1.215
55.7641,1.223
55.7671,1.243
55.7681,1.36
55.7704,1.775
55.7704,1.924
55.7715,1.787
55.7747,1.324
55.7759,1.242
55.7767,1.242
55.7777,1.242
55.7801,1.242
55.7812,1.242
55.7821,1.234
55.7831,1.223
55.7831,1.214
55.7870,1.221
55.7873,1.346
55.7880,1.565
55.7900,1.747
55.7910,1.913
55.7920,1.808
55.7949,1.346
55.7960,1.242
55.7970,1.242
55.7981,1.242
55.7990,1.242
55.8019,1.242
55.8027,1.235
55.8030,1.219
55.8049,1.22
55.8066,1.236
55.8066,1.326
55.8088,1.543
55.8099,1.725
55.8106,1.906
55.8165,1.619
55.8345,1.242
55.8395,1.242
55.8395,1.242
55.8405,1.242
55.8405,1.242
55.8405,1.242
55.8415,1.219
55.8415,1.214
55.8415,1.22
55.8426,1.236
55.8426,1.323
55.8435,1.539
55.8435,1.718
55.8435,1.856
55.8435,1.4
55.8446,1.242
55.8446,1.242
55.8455,1.242
55.8456,1.242
55.8456,1.242
55.8466,1.239
55.8479,1.219
55.8479,1.214
55.8489,1.22
55.8490,1.235
55.8500,1.313
55.8500,1.709
55.8509,1.913
55.8520,1.878
55.8530,1.416
55.8540,1.242
55.8560,1.242
55.8570,1.242
55.8590,1.242
55.8599,1.242
55.8609,1.24
55.8629,1.223
55.8639,1.215
55.8649,1.22
55.8663,1.305
55.8671,1.515
55.8681,1.692
55.8713,1.903
55.8713,1.904
55.8735,1.44
55.8756,1.242
55.8763,1.242
55.8774,1.242
55.8783,1.242
55.8793,1.242
55.8824,1.241
55.8824,1.221
55.8836,1.219
55.8869,1.232
55.8869,1.296
55.8880,1.499
55.8894,1.683
55.8909,1.901
55.8919,1.748
55.8941,1.242
55.8951,1.242
55.8979,1.242
55.8979,1.242
55.8992,1.242
55.9011,1.242
55.9019,1.221
55.9029,1.214
55.9049,1.218
55.9062,1.229
55.9062,1.287
55.9100,1.481
55.9100,1.668
55.9110,1.91
55.9130,1.514
55.9140,1.243
55.9140,1.242
55.9174,1.242
55.9180,1.242
55.9180,1.242
55.9224,1.242
55.9312,1.224
55.9412,1.214
55.9452,1.218
55.9452,1.228
55.9452,1.274
55.9464,1.625
55.9464,1.828
55.9472,1.853
55.9475,1.479
55.9475,1.242
55.9475,1.242
55.9482,1.242
55.9502,1.242
55.9512,1.242
55.9512,1.242
55.9522,1.221
55.9524,1.215
55.9524,1.214
55.9524,1.255
55.9534,1.403
55.9534,1.595
55.9534,1.819
55.9544,1.92
55.9544,1.581
55.9544,1.247
55.9558,1.242
55.9574,1.242
55.9588,1.242
55.9600,1.242
55.9608,1.242
55.9640,1.228
55.9640,1.226
55.9648,1.246
55.9668,1.331
55.9678,1.567
55.9688,1.72
55.9710,1.945
55.9718,1.942
55.9751,1.249
55.9751,1.242
55.9761,1.242
55.9775,1.242
55.9788,1.242
55.9799,1.242
55.9823,1.242
55.9823,1.216
55.9841,1.217
55.9864,1.226
55.9864,1.258
55.9874,1.439
55.9900,1.621
55.9910,1.936
55.9920,1.625
55.9940,1.262
55.9950,1.242
55.9973,1.242
55.9981,1.242
55.9990,1.242
56.0007,1.242
56.0018,1.229
56.0028,1.216
56.0050,1.215
56.0060,1.223
56.0070,1.25
56.0092,1.599
56.0100,1.831
56.0110,1.918
56.0131,1.639
56.0140,1.262
56.0150,1.242
56.0170,1.242
56.0179,1.242
56.0199,1.242
56.0211,1.242
56.0211,1.229
56.0239,1.221
56.0249,1.214
56.0261,1.245
56.0278,1.388
56.0315,1.581
56.0357,1.81
56.0508,1.915
56.0555,1.676
56.0569,1.275
56.0575,1.242
56.0579,1.242
56.0579,1.242
56.0579,1.242
56.0589,1.242
56.0589,1.23
56.0589,1.214
56.0589,1.221
56.0600,1.241
56.0600,1.369
56.0609,1.568
56.0611,1.798
56.0611,1.902
56.0621,1.256
56.0621,1.242
56.0621,1.242
56.0621,1.242
56.0631,1.242
56.0631,1.242
56.0640,1.232
56.0646,1.217
56.0651,1.214
56.0651,1.221
56.0670,1.238
56.0670,1.348
56.0680,1.554
56.0720,1.897
56.0720,1.718
56.0729,1.303
56.0749,1.242
56.0758,1.242
56.0781,1.242
56.0792,1.242
56.0792,1.242
56.0822,1.233
56.0833,1.217
56.0835,1.213
56.0869,1.22
56.0869,1.236
56.0880,1.546
56.0899,1.752
56.0910,1.892
56.0919,1.739
56.0944,1.319
56.0944,1.242
56.0954,1.242
56.0994,1.242
56.0998,1.242
56.1006,1.242
56.1019,1.234
56.1029,1.219
56.1052,1.213
56.1052,1.234
56.1063,1.319
56.1099,1.535
56.1104,1.724
56.1104,1.889
56.1139,1.778
56.1146,1.33
56.1146,1.242
56.1180,1.242
56.1180,1.242
56.1180,1.242
56.1215,1.242
56.1215,1.235
56.1224,1.213
56.1259,1.218
56.1265,1.231
56.1279,1.302
56.1291,1.51
56.1299,1.696
56.1321,1.877
56.1330,1.313
56.1339,1.242
56.1371,1.242
56.1401,1.242
56.1492,1.242
56.1581,1.242
56.1622,1.242
56.1634,1.218
56.1634,1.213
56.1642,1.216
56.1642,1.228
56.1642,1.283
56.1655,1.472
56.1662,1.848
56.1668,1.776
56.1672,1.354
56.1672,1.242
56.1672,1.242
56.1682,1.242
56.1682,1.242
56.1682,1.242
56.1692,1.238
56.1692,1.219
56.1692,1.212
56.1702,1.215
56.1702,1.225
56.1702,1.269
56.1712,1.636
56.1712,1.836
56.1712,1.781
56.1722,1.373
56.1772,1.242
56.1772,1.242
56.1800,1.242
56.1800,1.242
56.1823,1.239
56.1832,1.219
56.1832,1.213
56.1869,1.224
56.1873,1.263
56.1873,1.426
56.1900,1.617
56.1910,1.826
56.1920,1.796
56.1942,1.242
56.1950,1.242
56.1960,1.242
56.1983,1.242
56.1990,1.242
56.2020,1.242
56.2020,1.241
56.2020,1.213
56.2052,1.215
56.2052,1.224
56.2060,1.265
56.2093,1.433
56.2093,1.622
56.2104,1.84
56.2136,1.3
56.2136,1.242
56.2146,1.242
56.2180,1.242
56.2180,1.242
56.2191,1.242
56.2212,1.242
56.2220,1.22
56.2230,1.213
56.2250,1.216
56.2260,1.225
56.2270,1.266
56.2294,1.444
56.2300,1.633
56.2310,1.854
56.2330,1.485
56.2340,1.242
56.2350,1.242
56.2372,1.242
56.2380,1.242
56.2390,1.242
56.2412,1.242
56.2420,1.225
56.2430,1.214
56.2453,1.217
56.2460,1.226
56.2470,1.267
56.2490,1.442
56.2500,1.853
56.2530,1.897
56.2541,1.55
56.2541,1.243
56.2558,1.242
56.2565,1.242
56.2575,1.242
56.2596,1.242
56.2656,1.242
56.2684,1.223
56.2844,1.215
56.3033,1.218
56.3094,1.225
56.3103,1.435
56.3103,1.63
56.3113,1.856
56.3124,1.752
56.3124,1.393
56.3134,1.248
56.3134,1.242
56.3144,1.242
56.3144,1.242
56.3156,1.242
56.3173,1.242
56.3183,1.224
56.3183,1.214
56.3193,1.216
56.3193,1.261
56.3203,1.424
56.3203,1.614
56.3213,1.845
56.3223,1.916
56.3223,1.592
56.3234,1.256
56.3243,1.242
56.3244,1.242
56.3253,1.242
56.3253,1.242
56.3253,1.242
56.3263,1.23
56.3263,1.215
56.3263,1.223
56.3263,1.252
56.3263,1.411
56.3273,1.598
56.3273,1.841
56.3273,1.91
56.3273,1.264
56.3273,1.242
56.3283,1.242
56.3283,1.242
56.3283,1.242
56.3283,1.242
56.3283,1.242
56.3293,1.215
56.3293,1.215
56.3293,1.223
56.3293,1.248
56.3303,1.395
56.3303,1.589
56.3303,1.821
56.3314,1.398
56.3333,1.285
56.3342,1.242
56.3352,1.242
56.3374,1.242
56.3382,1.242
56.3394,1.242
56.3414,1.23
56.3423,1.216
56.3432,1.214
56.3468,1.222
56.3468,1.243
56.3488,1.385
56.3498,1.818
56.3505,1.903
56.3527,1.65
56.3538,1.281
56.3545,1.242
56.3567,1.242
56.3577,1.242
56.3585,1.242
56.3619,1.242
56.3619,1.232
56.3629,1.221
56.3650,1.214
56.3659,1.221
56.3668,1.359
56.3693,1.561
56.3693,1.8
56.3721,1.9
56.3731,1.691
56.3784,1.3
56.3842,1.242
56.3870,1.242
56.3870,1.242
56.3930,1.242
56.3930,1.242
56.3940,1.232
56.3950,1.218
56.3950,1.22
56.3950,1.238
56.3950,1.349
56.3950,1.554
56.3960,1.768
56.3960,1.901
56.3960,1.508
56.3960,1.242
56.3960,1.242
56.3970,1.242
56.3970,1.242
56.3991,1.242
56.4000,1.242
56.4034,1.217
56.4037,1.213
56.4045,1.219
56.4069,1.237
56.4083,1.336
56.4090,1.558
56.4147,1.747
56.4159,1.762
56.4169,1.317
56.4169,1.242
56.4169,1.242
56.4169,1.242
56.4191,1.242
56.4200,1.242
56.4200,1.234
56.4235,1.223
56.4235,1.214
56.4241,1.219
56.4274,1.235
56.4274,1.324
56.4305,1.718
56.4306,1.852
56.4316,1.799
56.4336,1.352
56.4348,1.242
56.4356,1.242
56.4382,1.242
56.4388,1.242
56.4398,1.242
56.4421,1.235
56.4429,1.218
56.4439,1.213
56.4459,1.218
56.4470,1.309
56.4470,1.529
56.4501,1.707
56.4509,1.89
56.4519,1.823
56.4543,1.306
56.4550,1.242
56.4560,1.242
56.4588,1.242
56.4595,1.242
56.4595,1.242
56.4616,1.238
56.4625,1.217
56.4647,1.214
56.4665,1.232
56.4673,1.3
56.4685,1.51
56.4707,1.692
56.4707,1.884
56.4732,1.829
56.4739,1.384
56.4751,1.242
56.4771,1.242
56.4779,1.242
56.4790,1.242
56.4829,1.242
56.4913,1.239
56.5020,1.219
56.5046,1.217
56.5053,1.229
56.5062,1.289
56.5062,1.484
56.5092,1.668
56.5167,1.873
56.5187,1.414
56.5197,1.242
56.5197,1.242
56.5211,1.242
56.5211,1.242
56.5217,1.242
56.5217,1.242
56.5217,1.219
56.5228,1.213
56.5228,1.217
56.5237,1.228
56.5237,1.286
56.5237,1.478
56.5247,1.665
56.5247,1.855
56.5247,1.43
56.5257,1.242
56.5257,1.242
56.5257,1.242
56.5267,1.242
56.5267,1.242
56.5267,1.241
56.5277,1.22
56.5277,1.213
56.5277,1.217
56.5287,1.228
56.5288,1.279
56.5288,1.469
56.5299,1.871
56.5323,1.87
56.5328,1.457
56.5338,1.242
56.5362,1.242
56.5369,1.242
56.5379,1.242
56.5401,1.242
56.5410,1.242
56.5420,1.221
56.5451,1.214
56.5453,1.217
56.5453,1.227
56.5475,1.273
56.5488,1.644
56.5493,1.863
56.5518,1.875
56.5528,1.484
56.5538,1.242
56.5562,1.242
56.5562,1.242
56.5600,1.242
56.5600,1.242
56.5610,1.242
56.5622,1.223
56.5644,1.214
56.5644,1.216
56.5675,1.225
56.5676,1.448
56.5686,1.632
56.5719,1.857
56.5726,1.889
56.5728,1.519
56.5759,1.243
56.5759,1.242
56.5769,1.242
56.5803,1.242
56.5819,1.242
56.5850,1.242
56.5982,1.223
56.6024,1.214
56.6033,1.224
56.6033,1.261
56.6043,1.435
56.6043,1.623
56.6043,1.846
56.6043,1.872
56.6055,1.548
56.6055,1.242
56.6055,1.242
56.6065,1.242
56.6065,1.242
56.6065,1.242
56.6075,1.242
56.6075,1.225
56.6075,1.216
56.6075,1.224
56.6085,1.256
56.6085,1.421
56.6095,1.608
56.6108,1.832
56.6118,1.874
56.6150,1.247
56.6161,1.242
56.6161,1.242
56.6190,1.242
56.6190,1.242
56.6200,1.242
56.6222,1.242
56.6230,1.213
56.6230,1.212
56.6250,1.218
56.6270,1.244
56.6280,1.395
56.6310,1.576
56.6310,1.807
56.6320,1.572
56.6331,1.256
56.6343,1.242
56.6353,1.242
56.6384,1.242
56.6392,1.242
56.6392,1.242
56.6429,1.231
56.6429,1.22
56.6442,1.221
56.6463,1.238
56.6463,1.299
56.6473,1.528
56.6514,1.925
56.6515,2.004
56.6541,1.716
56.6546,1.285
56.6551,1.242
56.6561,1.242
56.6583,1.242
56.6592,1.242
56.6613,1.242
56.6613,1.229
56.6621,1.217
56.6655,1.215
56.6655,1.223
56.6665,1.246
56.6689,1.585
56.6701,1.817
56.6709,1.899
56.6731,1.633
56.6741,1.284
56.6741,1.242
56.6773,1.242
56.6780,1.242
56.6780,1.242
56.6814,1.242
56.6821,1.231
56.6821,1.217
56.6855,1.214
56.6855,1.22
56.6866,1.354
56.6898,1.557
56.6898,1.785
56.6932,1.892
56.6946,1.668
56.7098,1.275
56.7140,1.242
56.7143,1.242
56.7150,1.242
56.7150,1.242
56.7165,1.242
56.7170,1.231
56.7170,1.217
56.7170,1.213
56.7180,1.236
56.7180,1.335
56.7180,1.546
56.7190,1.759
56.7191,1.887
56.7191,1.707
56.7191,1.242
56.7202,1.242
56.7202,1.242
56.7202,1.242
56.7212,1.242
56.7212,1.242
56.7212,1.233
56.7246,1.213
56.7246,1.218
56.7256,1.234
56.7289,1.324
56.7289,1.532
56.7298,1.733
56.7322,1.876
56.7333,1.32
56.7333,1.242
56.7365,1.242
56.7365,1.242
56.7373,1.242
56.7399,1.242
56.7405,1.242
56.7440,1.217
56.7440,1.213
56.7440,1.218
56.7475,1.232
56.7475,1.31
56.7485,1.519
56.7515,1.712
56.7516,1.624
56.7526,1.349
56.7547,1.242
56.7557,1.242
56.7566,1.242
56.7589,1.242
56.7610,1.242
56.7610,1.236
56.7630,1.218
56.7640,1.212
56.7640,1.217
56.7672,1.23
56.7682,1.295
56.7682,1.505
56.7703,1.875
56.7712,1.79
56.7722,1.294
56.7749,1.242
56.7759,1.242
56.7769,1.242
56.7791,1.242
56.7801,1.242
56.7801,1.237
56.7834,1.218
56.7834,1.212
56.7852,1.217
56.7880,1.229
56.7880,1.287
56.7890,1.67
56.7913,1.872
56.7913,1.793
56.7945,1.368
56.7945,1.242
56.7953,1.242
56.7978,1.242
56.8018,1.242
56.8061,1.242
56.8150,1.238
56.8266,1.224
56.8306,1.212
56.8336,1.216
56.8346,1.278
56.8346,1.461
56.8356,1.642
56.8360,1.855
56.8366,1.798
56.8375,1.392
56.8387,1.242
56.8395,1.242
56.8395,1.242
56.8405,1.242
56.8405,1.242
56.8415,1.24
56.8415,1.218
56.8425,1.212
56.8425,1.224
56.8425,1.262
56.8440,1.422
56.8445,1.611
56.8478,1.815
56.8487,1.673
56.8487,1.393
56.8499,1.242
56.8507,1.242
56.8517,1.242
56.8529,1.242
56.8529,1.242
56.8537,1.241
56.8537,1.218
56.8549,1.221
56.8549,1.252
56.8549,1.391
56.8559,1.581
56.8559,1.797
56.8569,1.382
56.8569,1.242
56.8569,1.242
56.8579,1.242
56.8589,1.242
56.8611,1.242
56.8611,1.242
56.8621,1.218
56.8651,1.212
56.8665,1.214
56.8673,1.22
56.8683,1.247
56.8683,1.379
56.8693,1.785
56.8728,1.802
56.8739,1.423
56.8740,1.242
56.8769,1.242
56.8769,1.242
56.8779,1.242
56.8809,1.242
56.8817,1.242
56.8837,1.224
56.8837,1.214
56.8849,1.214
56.8859,1.221
56.8888,1.383
56.8896,1.573
56.8926,1.802
56.8926,1.826
56.8936,1.484
56.8953,1.243
56.8966,1.242
56.8971,1.242
56.8991,1.242
56.9001,1.242
56.9011,1.242
56.9024,1.222
56.9076,1.213
56.9204,1.222
56.9343,1.252
56.9392,1.404
56.9422,1.598
56.9432,1.827
56.9432,1.788
56.9432,1.461
56.9442,1.242
56.9442,1.242
56.9452,1.242
56.9458,1.242
56.9462,1.242
56.9482,1.242
56.9482,1.215
56.9492,1.215
56.9502,1.223
56.9502,1.255
56.9512,1.419
56.9512,1.608
56.9512,1.841
56.9525,1.561
56.9530,1.245
56.9536,1.242
56.9536,1.242
56.9546,1.242
56.9546,1.242
56.9556,1.242
56.9556,1.226
56.9556,1.215
56.9566,1.215
56.9566,1.223
56.9577,1.251
56.9577,1.409
56.9577,1.843
56.9588,1.921
56.9588,1.603
56.9597,1.26
56.9597,1.242
56.9607,1.242
56.9607,1.242
56.9618,1.242
56.9618,1.242
56.9628,1.23
56.9650,1.219
56.9661,1.215
56.9670,1.222
56.9670,1.402
56.9690,1.588
56.9700,1.832
56.9729,1.913
56.9735,1.64
56.9735,1.272
56.9755,1.242
56.9778,1.242
56.9785,1.242
56.9799,1.242
56.9806,1.242
56.9815,1.23
56.9838,1.216
56.9845,1.214
56.9857,1.245
56.9891,1.383
56.9899,1.58
56.9899,1.817
56.9922,1.896
56.9931,1.584
56.9931,1.242
56.9961,1.242
56.9971,1.242
56.9971,1.242
57.0002,1.242
57.0010,1.242
57.0026,1.231
57.0036,1.214
57.0046,1.221
57.0067,1.241
57.0076,1.364
57.0086,1.571
57.0119,1.793
57.0119,1.906
57.0131,1.287
57.0153,1.242
57.0210,1.242
57.0312,1.242
57.0430,1.242
57.0471,1.242
57.0481,1.242
57.0482,1.217
57.0492,1.214
57.0501,1.22
57.0512,1.238
57.0512,1.349
57.0522,1.561
57.0522,1.768
57.0522,1.734
57.0531,1.309
57.0531,1.242
57.0543,1.242
57.0543,1.242
57.0543,1.242
57.0553,1.242
57.0553,1.233
57.0563,1.219
57.0563,1.213
57.0563,1.219
57.0573,1.237
57.0573,1.339
57.0583,1.553
57.0583,1.899
57.0583,1.762
57.0593,1.327
57.0593,1.242
57.0605,1.242
57.0605,1.242
57.0605,1.242
57.0615,1.242
57.0615,1.234
57.0625,1.218
57.0635,1.213
57.0655,1.219
57.0665,1.236
57.0675,1.328
57.0709,1.731
57.0717,1.902
57.0723,1.736
57.0750,1.345
57.0750,1.242
57.0761,1.242
57.0785,1.242
57.0785,1.242
57.0795,1.242
57.0825,1.236
57.0825,1.218
57.0833,1.213
57.0871,1.219
57.0882,1.318
57.0882,1.539
57.0903,1.72
57.0903,1.907
57.0913,1.832
57.0935,1.37
57.0945,1.242
57.0979,1.242
57.0988,1.242
57.0988,1.242
57.0996,1.242
57.1022,1.238
57.1031,1.219
57.1060,1.214
57.1060,1.233
57.1071,1.308
57.1095,1.527
57.1095,1.702
57.1105,1.907
57.1139,1.847
57.1148,1.399
57.1148,1.242
57.1169,1.242
57.1179,1.242
57.1188,1.242
57.1212,1.242
57.1217,1.239
57.1227,1.214
57.1263,1.218
57.1263,1.232
57.1290,1.302
57.1290,1.513
57.1301,1.692
57.1322,1.904
57.1322,1.427
57.1372,1.242
57.1393,1.242
57.1527,1.242
57.1630,1.242
57.1672,1.242
57.1672,1.24
57.1672,1.22
57.1682,1.213
57.1682,1.218
57.1692,1.23
57.1692,1.296
57.1692,1.501
57.1702,1.896
57.1702,1.819
57.1712,1.42
57.1712,1.242
57.1712,1.242
57.1723,1.242
57.1723,1.242
57.1734,1.242
57.1734,1.242
57.1734,1.221
57.1744,1.214
57.1744,1.217
57.1754,1.228
57.1754,1.477
57.1754,1.664
57.1764,1.88
57.1764,1.889
57.1774,1.481
57.1775,1.242
57.1785,1.242
57.1785,1.242
57.1785,1.242
57.1795,1.242
57.1816,1.242
57.1825,1.22
57.1837,1.214
57.1855,1.226
57.1866,1.276
57.1875,1.46
57.1900,1.651
57.1910,1.869
57.1920,1.9
57.1941,1.501
57.1942,1.242
57.1953,1.242
57.1975,1.242
57.1987,1.242
57.1998,1.242
57.2018,1.242
57.2028,1.216
57.2049,1.217
57.2059,1.227
57.2069,1.272
57.2089,1.462
57.2099,1.644
57.2112,1.87
57.2129,1.535
57.2140,1.244
57.2148,1.242
57.2171,1.242
57.2181,1.242
57.2181,1.242
57.2209,1.242
57.2220,1.224
57.2231,1.214
57.2248,1.217
57.2259,1.226
57.2268,1.267
57.2288,1.451
57.2299,1.867
57.2318,1.87
57.2328,1.483
57.2338,1.249
57.2371,1.242
57.2371,1.242
57.2379,1.242
57.2403,1.242
57.2408,1.242
57.2418,1.225
57.2460,1.215
57.2488,1.216
57.2722,1.225
57.2774,1.443
57.2791,1.628
57.2791,1.86
57.2801,1.929
57.2803,1.607
57.2803,1.255
57.2813,1.242
57.2813,1.242
57.2826,1.242
57.2833,1.242
57.2833,1.242
57.2843,1.227
57.2843,1.216
57.2843,1.225
57.2855,1.257
57.2855,1.431
57.2865,1.622
57.2865,1.859
57.2875,1.94
57.2875,1.644
57.2875,1.242
57.2885,1.242
57.2885,1.242
57.2897,1.242
57.2897,1.242
57.2906,1.242
57.2906,1.217
57.2915,1.215
57.2915,1.224
57.2925,1.252
57.2925,1.418
57.2925,1.612
57.2935,1.851
57.2935,1.676
57.2945,1.279
57.2945,1.242
57.2955,1.242
57.2988,1.242
57.3001,1.242
57.3007,1.242
57.3021,1.231
57.3031,1.217
57.3041,1.214
57.3062,1.223
57.3072,1.244
57.3073,1.368
57.3110,1.778
57.3110,1.855
57.3133,1.542
57.3134,1.267
57.3144,1.242
57.3179,1.242
57.3187,1.242
57.3187,1.242
57.3209,1.242
57.3217,1.231
57.3227,1.216
57.3250,1.213
57.3261,1.22
57.3270,1.352
57.3300,1.565
57.3314,1.808
57.3320,1.952
57.3330,1.775
57.3342,1.326
57.3350,1.242
57.3370,1.242
57.3380,1.242
57.3390,1.242
57.3410,1.242
57.3420,1.235
57.3435,1.222
57.3523,1.235
57.3666,1.282
57.3839,1.47
57.3873,1.674
57.3883,1.853
57.3883,1.996
57.3883,1.849
57.3895,1.242
57.3895,1.242
57.3903,1.242
57.3903,1.242
57.3914,1.242
57.3914,1.242
57.3924,1.224
57.3924,1.214
57.3924,1.221
57.3934,1.241
57.3934,1.359
57.3944,1.582
57.3944,1.765
57.3944,1.819
57.3955,1.34
57.3955,1.242
57.3955,1.242
57.3965,1.242
57.3972,1.242
57.3975,1.242
57.3975,1.236
57.3975,1.218
57.3988,1.214
57.3995,1.22
57.4005,1.237
57.4005,1.336
57.4015,1.739
57.4017,1.914
57.4017,1.593
57.4027,1.289
57.4027,1.242
57.4027,1.242
57.4037,1.242
57.4037,1.242
57.4047,1.242
57.4047,1.237
57.4047,1.219
57.4057,1.213
57.4057,1.219
57.4068,1.235
57.4078,1.539
57.4105,1.723
57.4105,1.912
57.4125,1.848
57.4136,1.387
57.4145,1.242
57.4165,1.242
57.4178,1.242
57.4191,1.242
57.4206,1.242
57.4215,1.239
57.4225,1.218
57.4255,1.214
57.4265,1.233
57.4265,1.311
57.4286,1.525
57.4297,1.707
57.4305,1.909
57.4336,1.869
57.4345,1.242
57.4345,1.242
57.4369,1.242
57.4377,1.242
57.4399,1.242
57.4404,1.242
57.4416,1.24
57.4449,1.215
57.4449,1.218
57.4459,1.232
57.4477,1.303
57.4486,1.511
57.4496,1.685
57.4518,1.888
57.4581,1.423
57.4793,1.242
57.4864,1.242
57.4876,1.242
57.4884,1.242
57.4884,1.242
57.4894,1.241
57.4894,1.221
57.4904,1.214
57.4904,1.218
57.4904,1.23
57.4914,1.295
57.4919,1.493
57.4925,1.895
57.4937,1.736
57.4946,1.329
57.4946,1.242
57.4956,1.242
57.4956,1.242
57.4956,1.242
57.4966,1.242
57.4966,1.242
57.4976,1.221
57.4976,1.214
57.4986,1.218
57.5005,1.228
57.5015,1.478
57.5026,1.667
57.5026,1.881
57.5036,1.896
57.5036,1.497
57.5047,1.242
57.5047,1.242
57.5057,1.242
57.5057,1.242
57.5068,1.242
57.5068,1.242
57.5068,1.223
57.5078,1.214
57.5078,1.227
57.5088,1.272
57.5088,1.454
57.5097,1.646
57.5109,1.86
57.5119,1.895
57.5149,1.242
57.5169,1.242
57.5179,1.242
57.5189,1.242
57.5217,1.242
57.5228,1.224
57.5237,1.217
57.5258,1.216
57.5258,1.224
57.5269,1.26
57.5299,1.433
57.5299,1.834
57.5321,1.901
57.5329,1.532
57.5339,1.244
57.5361,1.242
57.5369,1.242
57.5381,1.242
57.5410,1.242
57.5410,1.242
57.5421,1.224
57.5445,1.214
57.5445,1.215
57.5455,1.222
57.5486,1.252
57.5498,1.589
57.5498,1.827
57.5560,1.808
57.5707,1.359
57.5717,1.246
57.5767,1.242
57.5992,1.242
57.6030,1.242
57.6100,1.242
57.6211,1.242
57.6426,1.226
57.6568,1.214
57.6769,1.214
57.6779,1.246
57.6841,1.394
57.6953,1.58
57.7092,1.816
57.7184,1.891
57.7358,1.587
57.7387,1.242
57.7491,1.242
57.7533,1.242
57.7634,1.242
57.7656,1.242
57.7664,1.242
57.7674,1.227
57.7682,1.214
57.7694,1.221
57.7721,1.245
57.7726,1.388
57.7726,1.584
57.7736,1.821
57.7736,1.634
57.7746,1.26
57.7746,1.242
57.7746,1.242
57.7756,1.242
57.7756,1.242
57.7768,1.242
57.7768,1.229
57.7768,1.22
57.7778,1.214
57.7778,1.223
57.7788,1.247
57.7788,1.399
57.7788,1.593
57.7798,1.926
57.7798,1.694
57.7808,1.281
57.7808,1.242
57.7808,1.242
57.7823,1.242
57.7829,1.242
57.7838,1.242
57.7848,1.231
57.7859,1.217
57.7938,1.215
57.8069,1.223
57.8235,1.247
57.8291,1.595
57.8300,1.83
57.8300,1.929
57.8320,1.486
57.8330,1.262
57.8340,1.242
57.8350,1.242
57.8350,1.242
57.8360,1.242
57.8370,1.242
57.8380,1.233
57.8380,1.217
57.8390,1.214
57.8400,1.245
57.8400,1.387
57.8410,1.592
57.8420,1.809
57.8430,1.929
57.8430,1.756
57.8440,1.321
57.8450,1.242
57.8450,1.242
57.8459,1.242
57.8469,1.242
57.8479,1.242
57.8489,1.235
57.8499,1.218
57.8509,1.222
57.8509,1.243
57.8519,1.367
57.8529,1.582
57.8539,1.784
57.8549,1.927
57.8549,1.795
57.8559,1.242
57.8569,1.242
57.8579,1.242
57.8579,1.242
57.8589,1.242
57.8599,1.242
57.8609,1.234
57.8609,1.214
57.8619,1.221
57.8629,1.241
57.8639,1.351
57.8649,1.572
57.8652,1.754
57.8659,1.842
57.8669,1.343
57.8669,1.242
57.8679,1.242
57.8689,1.242
57.8689,1.242
57.8699,1.242
57.8709,1.235
57.8720,1.219
57.8729,1.214
57.8729,1.22
57.8739,1.238
57.8749,1.34
57.8755,1.561
57.8759,1.928
57.8769,1.669
57.8779,1.283
57.8779,1.242
57.8789,1.242
57.8800,1.242
57.8800,1.242
57.8809,1.242
57.8819,1.237
57.8819,1.219
57.8828,1.214
57.8838,1.22
57.8838,1.236
57.8848,1.328
57.8858,1.726
57.8858,1.926
57.8868,1.868
57.8878,1.405
57.8878,1.242
57.8888,1.242
57.8898,1.242
57.8898,1.242
57.8908,1.242
57.8918,1.238
57.8918,1.221
57.8928,1.214
57.8938,1.219
57.8948,1.235
57.8948,1.534
57.9018,1.713
57.9079,1.922
57.9168,1.88
57.9287,1.429
57.9327,1.242
57.9327,1.242
57.9337,1.242
57.9337,1.242
57.9347,1.242
57.9347,1.24
57.9352,1.221
57.9357,1.215
57.9357,1.234
57.9357,1.31
57.9367,1.523
57.9367,1.703
57.9377,1.916
57.9377,1.904
57.9377,1.458
57.9387,1.242
57.9387,1.242
57.9387,1.242
57.9387,1.242
57.9387,1.242
57.9397,1.241
57.9397,1.221
57.9397,1.219
57.9397,1.232
57.9407,1.302
57.9407,1.511
57.9407,1.69
57.9407,1.912
57.9407,1.432
57.9417,1.242
57.9417,1.242
57.9417,1.242
57.9417,1.242
57.9427,1.242
57.9427,1.242
57.9427,1.221
57.9437,1.214
57.9438,1.219
57.9438,1.23
57.9447,1.288
57.9447,1.493
57.9447,1.681
57.9457,1.917
57.9457,1.527
57.9457,1.242
57.9457,1.242
57.9457,1.242
57.9467,1.242
57.9467,1.242
57.9475,1.242
57.9477,1.223
57.9477,1.214
57.9477,1.218
57.9477,1.229
57.9487,1.284
57.9489,1.669
57.9489,1.889
57.9497,1.922
57.9497,1.548
57.9507,1.243
57.9507,1.242
57.9507,1.242
57.9517,1.242
57.9517,1.242
57.9527,1.242
57.9527,1.224
57.9527,1.215
57.9537,1.217
57.9537,1.276
57.9537,1.476
57.9547,1.656
57.9547,1.882
57.9547,1.936
57.9557,1.579
57.9557,1.242
57.9557,1.242
57.9567,1.242
57.9567,1.242
57.9567,1.242
57.9576,1.242
57.9576,1.225
57.9576,1.217
57.9586,1.227
57.9586,1.267
57.9596,1.459
57.9596,1.642
57.9596,1.875
57.9606,1.573
57.9606,1.25
57.9606,1.242
57.9616,1.242
57.9616,1.242
57.9616,1.242
57.9626,1.242
57.9626,1.226
57.9626,1.216
57.9636,1.215
57.9636,1.226
57.9636,1.258
57.9646,1.438
57.9646,1.621
57.9646,1.934
57.9656,1.62
57.9666,1.26
57.9666,1.242
57.9666,1.242
57.9676,1.242
57.9676,1.242
57.9676,1.242
57.9686,1.229
57.9686,1.216
57.9686,1.215
57.9686,1.225
57.9696,1.256
57.9696,1.622
57.9696,1.861
57.9706,1.946
57.9706,1.662
57.9706,1.275
57.9716,1.242
57.9716,1.242
57.9716,1.242
57.9726,1.242
57.9726,1.242
57.9726,1.23
57.9736,1.217
57.9736,1.215
57.9736,1.252
57.9736,1.417
57.9746,1.616
57.9746,1.844
57.9756,1.946
57.9756,1.696
57.9756,1.242
57.9756,1.242
57.9766,1.242
57.9766,1.242
57.9766,1.242
57.9776,1.242
57.9776,1.232
57.9776,1.215
57.9786,1.224
57.9786,1.25
57.9786,1.405
57.9796,1.608
57.9796,1.829
57.9796,1.713
57.9806,1.298
57.9806,1.242
57.9806,1.242
57.9816,1.242
57.9816,1.242
57.9816,1.242
57.9826,1.232
57.9826,1.219
57.9836,1.215
57.9836,1.223
57.9846,1.247
57.9846,1.388
57.9846,1.803
57.9856,1.937
57.9856,1.759
57.9856,1.319
57.9866,1.242
57.9866,1.242
57.9866,1.242
57.9876,1.242
57.9876,1.242
57.9876,1.233
57.9886,1.219
57.9886,1.214
57.9886,1.223
57.9896,1.245
57.9896,1.594
57.9896,1.785
57.9906,1.936
57.9926,1.796
57.9936,1.338
57.9955,1.242
57.9965,1.242
57.9975,1.242
57.9995,1.242
58.0005,1.242
58.0015,1.235
58.0037,1.22
58.0065,1.214
58.0085,1.244
58.0169,1.357
58.0257,1.575
58.0305,1.751
58.0307,1.905
58.0315,1.772
58.0315,1.242
58.0315,1.242
58.0324,1.242
58.0324,1.242
58.0334,1.242
58.0334,1.242
58.0334,1.235
58.0344,1.211
58.0344,1.214
58.0344,1.227
58.0344,1.312
58.0354,1.541
58.0354,1.719
58.0354,1.82
58.0354,1.371
58.0364,1.242
58.0364,1.242
58.0364,1.242
58.0384,1.242
58.0394,1.242
58.0404,1.239
58.0425,1.226
58.0434,1.222
58.0444,1.24
58.0464,1.285
58.0474,1.454
58.0495,1.675
58.0504,2.028
58.0514,1.967
58.0535,1.465
58.0544,1.242
58.0554,1.242
58.0574,1.242
58.0584,1.242
58.0594,1.242
58.0614,1.239
58.0624,1.221
58.0634,1.215
58.0654,1.222
58.0674,1.24
58.0674,1.549
58.0695,1.728
58.0705,1.939
58.0725,1.898
58.0735,1.439
58.0744,1.242
58.0764,1.242
58.0774,1.242
58.0784,1.242
58.0804,1.242
58.0819,1.241
58.0824,1.221
58.0844,1.22
58.0854,1.234
58.0865,1.311
58.0885,1.523
58.0896,1.701
58.0905,1.918
58.0927,1.903
58.0937,1.242
58.0957,1.242
58.0967,1.242
58.0977,1.242
58.0997,1.242
58.1007,1.242
58.1017,1.241
58.1037,1.214
58.1048,1.219
58.1057,1.231
58.1077,1.294
58.1087,1.498
58.1097,1.68
58.1117,1.896
58.1127,1.485
58.1137,1.242
58.1157,1.242
58.1167,1.242
58.1177,1.242
58.1197,1.242
58.1227,1.242
58.1247,1.222
58.1338,1.214
58.1436,1.219
58.1476,1.23
58.1476,1.287
58.1476,1.67
58.1486,1.888
58.1486,1.903
58.1496,1.513
58.1496,1.243
58.1506,1.242
58.1506,1.242
58.1506,1.242
58.1516,1.242
58.1516,1.242
58.1526,1.223
58.1526,1.215
58.1526,1.218
58.1526,1.278
58.1536,1.474
58.1536,1.654
58.1546,1.881
58.1546,1.917
58.1546,1.542
58.1556,1.245
58.1556,1.242
58.1576,1.242
58.1586,1.242
58.1596,1.242
58.1616,1.242
58.1626,1.224
58.1636,1.215
58.1656,1.227
58.1665,1.269
58.1676,1.459
58.1695,1.643
58.1705,1.872
58.1725,1.918
58.1735,1.249
58.1745,1.242
58.1765,1.242
58.1775,1.242
58.1785,1.242
58.1805,1.242
58.1815,1.242
58.1825,1.215
58.1855,1.216
58.1875,1.262
58.1885,1.447
58.1895,1.865
58.1915,1.928
58.1927,1.594
58.1936,1.255
58.1956,1.242
58.1966,1.242
58.1976,1.242
58.1996,1.242
58.2006,1.242
58.2016,1.227
58.2036,1.216
58.2046,1.215
58.2056,1.224
58.2075,1.425
58.2086,1.612
58.2095,1.851
58.2115,1.923
58.2125,1.615
58.2145,1.265
58.2155,1.242
58.2165,1.242
58.2185,1.242
58.2195,1.242
58.2205,1.242
58.2227,1.229
58.2235,1.216
58.2265,1.222
58.2335,1.246
58.2435,1.392
58.2455,1.583
58.2482,1.82
58.2485,1.904
58.2495,1.626
58.2495,1.242
58.2495,1.242
58.2505,1.242
58.2505,1.242
58.2505,1.242
58.2515,1.242
58.2515,1.23
58.2515,1.213
58.2525,1.22
58.2525,1.24
58.2525,1.36
58.2534,1.559
58.2534,1.79
58.2534,1.643
58.2544,1.28
58.2544,1.242
58.2554,1.242
58.2574,1.242
58.2584,1.242
58.2594,1.242
58.2614,1.232
58.2624,1.217
58.2644,1.213
58.2654,1.219
58.2664,1.237
58.2684,1.34
58.2694,1.762
58.2704,1.88
58.2724,1.668
58.2734,1.291
58.2744,1.242
58.2764,1.242
58.2774,1.242
58.2784,1.242
58.2804,1.242
58.2815,1.232
58.2824,1.217
58.2844,1.213
58.2854,1.219
58.2864,1.236
58.2884,1.547
58.2894,1.752
58.2913,1.89
58.2923,1.719
58.2933,1.311
58.2953,1.242
58.2963,1.242
58.2973,1.242
58.2993,1.242
58.3003,1.242
58.3013,1.234
58.3033,1.219
58.3043,1.214
58.3053,1.239
58.3073,1.345
58.3083,1.563
58.3093,1.754
58.3113,1.916
58.3123,1.775
58.3133,1.242
58.3153,1.242
58.3163,1.242
58.3183,1.242
58.3193,1.242
58.3203,1.242
58.3223,1.235
58.3233,1.214
58.3243,1.221
58.3263,1.24
58.3273,1.348
58.3282,1.574
58.3302,1.752
58.3312,1.933
58.3322,1.364
58.3342,1.242
58.3352,1.242
58.3383,1.242
58.3452,1.242
58.3492,1.242
58.3552,1.242
58.3572,1.22
58.3572,1.214
58.3582,1.221
58.3582,1.24
58.3582,1.34
58.3582,1.563
58.3592,1.739
58.3592,1.852
58.3592,1.39
58.3602,1.242
58.3602,1.242
58.3602,1.242
58.3602,1.242
58.3612,1.242
58.3612,1.238
58.3622,1.22
58.3632,1.214
58.3642,1.221
58.3661,1.238
58.3672,1.332
58.3681,1.553
58.3701,1.935
58.3711,1.874
58.3731,1.418
58.4001,1.242
58.4001,1.242
58.4001,1.242
58.4011,1.242
58.4011,1.242
58.4011,1.24
58.4021,1.221
58.4021,1.214
58.4021,1.221
58.4021,1.236
58.4030,1.319
58.4030,1.714
58.4030,1.928
58.4040,1.891
58.4040,1.45
58.4040,1.242
58.4040,1.242
58.4050,1.242
58.4050,1.242
58.4050,1.242
58.4060,1.241
58.4060,1.221
58.4060,1.214
58.4060,1.22
58.4070,1.307
58.4082,1.52
58.4096,1.697
58.4101,1.916
58.4123,1.899
58.4133,1.477
58.4143,1.242
58.4163,1.242
58.4176,1.242
58.4183,1.242
58.4203,1.242
58.4213,1.242
58.4223,1.221
58.4243,1.215
58.4253,1.232
58.4263,1.297
58.4283,1.505
58.4293,1.686
58.4303,1.901
58.4323,1.911
58.4333,1.242
58.4343,1.242
58.4363,1.242
58.4373,1.242
58.4383,1.242
58.4413,1.242
58.4463,1.242
58.4522,1.215
58.4612,1.219
58.4642,1.23
58.4652,1.288
58.4652,1.493
58.4662,1.672
58.4662,1.89
58.4672,1.541
58.4672,1.243
58.4672,1.242
58.4682,1.242
58.4682,1.242
58.4682,1.242
58.4692,1.242
58.4692,1.223
58.4692,1.215
58.4692,1.218
58.4702,1.229
58.4702,1.282
58.4702,1.482
58.4712,1.886
58.4712,1.928
58.4722,1.565
58.4732,1.247
58.4752,1.242
58.4762,1.242
58.4782,1.242
58.4792,1.242
58.4802,1.242
58.4824,1.225
58.4832,1.215
58.4842,1.218
58.4864,1.229
58.4871,1.466
58.4881,1.654
58.4901,1.884
58.4911,1.937
58.4921,1.593
58.4941,1.253
58.4951,1.242
58.4961,1.242
58.4984,1.242
58.4991,1.242
58.5001,1.242
58.5022,1.226
58.5031,1.216
58.5051,1.217
58.5061,1.266
58.5071,1.455
58.5091,1.639
58.5102,1.874
58.5111,1.946
58.5131,1.63
58.5151,1.242
58.5151,1.242
58.5171,1.242
58.5181,1.242
58.5191,1.242
58.5211,1.242
58.5221,1.228
58.5240,1.216
58.5250,1.227
58.5270,1.26
58.5270,1.44
58.5300,1.631
58.5300,1.868
58.5320,1.667
58.5331,1.274
58.5350,1.242
58.5360,1.242
58.5370,1.242
58.5390,1.242
58.5400,1.242
58.5420,1.23
58.5430,1.217
58.5440,1.216
58.5460,1.226
58.5470,1.255
58.5484,1.424
58.5500,1.851
58.5540,1.945
58.5619,1.688
58.5699,1.289
58.5739,1.242
58.5749,1.242
58.5749,1.242
58.5749,1.242
58.5759,1.242
58.5759,1.231
58.5759,1.218
58.5769,1.215
58.5769,1.224
58.5769,1.25
58.5779,1.604
58.5779,1.825
58.5784,1.935
58.5784,1.713
58.5789,1.303
58.5789,1.242
58.5789,1.242
58.5799,1.242
58.5799,1.242
58.5809,1.242
58.5829,1.232
58.5839,1.218
58.5849,1.215
58.5859,1.245
58.5879,1.381
58.5889,1.595
58.5909,1.807
58.5919,1.935
58.5929,1.751
58.5949,1.242
58.5959,1.242
58.5969,1.242
58.5988,1.242
58.5998,1.242
58.6008,1.242
58.6028,1.233
58.6038,1.215
58.6048,1.223
58.6068,1.246
58.6078,1.374
58.6088,1.592
58.6108,1.787
58.6118,1.791
58.6139,1.34
58.6148,1.242
58.6158,1.242
58.6178,1.242
58.6188,1.242
58.6198,1.242
58.6218,1.234
58.6228,1.22
58.6238,1.215
58.6258,1.222
58.6268,1.244
58.6278,1.362
58.6298,1.583
58.6308,1.938
58.6328,1.822
58.6338,1.356
58.6348,1.242
58.6367,1.242
58.6377,1.242
58.6387,1.242
58.6407,1.242
58.6417,1.236
58.6427,1.22
58.6447,1.215
58.6457,1.222
58.6467,1.242
58.6487,1.574
58.6497,1.752
58.6507,1.941
58.6527,1.843
58.6537,1.381
58.6547,1.242
58.6567,1.242
58.6577,1.242
58.6587,1.242
58.6617,1.242
58.6661,1.237
58.6711,1.22
58.6798,1.215
58.6816,1.24
58.6846,1.34
58.6846,1.563
58.6846,1.737
58.6856,1.942
58.6856,1.865
58.6856,1.242
58.6866,1.242
58.6866,1.242
58.6866,1.242
58.6876,1.242
58.6876,1.242
58.6876,1.238
58.6886,1.214
58.6886,1.221
58.6886,1.239
58.6896,1.331
58.6896,1.549
58.6906,1.721
58.6916,1.933
58.6926,1.433
58.6946,1.242
58.6956,1.242
58.6966,1.242
58.6986,1.242
58.6996,1.242
58.7006,1.24
58.7026,1.22
58.7036,1.213
58.7046,1.217
58.7066,1.227
58.7076,1.27
58.7086,1.43
58.7105,1.806
58.7115,1.773
58.7135,1.378
58.7145,1.242
58.7157,1.242
58.7175,1.242
58.7185,1.242
58.7195,1.242
58.7205,1.241
58.7226,1.221
58.7235,1.215
58.7255,1.225
58.7265,1.257
58.7275,1.667
58.7295,1.811
58.7305,2.028
58.7315,2.05
58.7335,1.604
58.7345,1.242
58.7355,1.242
58.7375,1.242
58.7385,1.242
58.7405,1.242
58.7415,1.242
58.7425,1.225
58.7445,1.218
58.7455,1.247
58.7465,1.347
58.7484,1.575
58.7494,1.734
58.7504,1.943
58.7524,1.959
58.7534,1.553
58.7544,1.242
58.7564,1.242
58.7574,1.242
58.7584,1.242
58.7604,1.242
58.7614,1.242
58.7624,1.215
58.7644,1.219
58.7654,1.231
58.7674,1.287
58.7684,1.495
58.7694,1.673
58.7724,1.892
58.7769,1.556
58.7824,1.244
58.7913,1.242
58.7933,1.242
58.7959,1.242
58.7959,1.242
58.7963,1.242
58.7963,1.224
58.7963,1.215
58.7973,1.217
58.7973,1.228
58.7973,1.271
58.7983,1.465
58.7990,1.872
58.7993,1.924
58.7993,1.574
58.8003,1.247
58.8003,1.242
58.8003,1.242
58.8003,1.242
58.8013,1.242
58.8013,1.242
58.8023,1.226
58.8033,1.215
58.8043,1.217
58.8063,1.226
58.8073,1.448
58.8083,1.633
58.8103,1.868
58.8113,1.934
58.8123,1.6
58.8143,1.256
58.8163,1.242
58.8174,1.242
58.8183,1.242
58.8193,1.242
58.8213,1.242
58.8222,1.227
58.8232,1.216
58.8252,1.225
58.8262,1.255
58.8272,1.426
58.8292,1.619
58.8302,1.853
58.8312,1.932
58.8332,1.631
58.8342,1.242
58.8352,1.242
58.8372,1.242
58.8382,1.242
58.8402,1.242
58.8412,1.242
58.8422,1.217
58.8442,1.215
58.8452,1.224
58.8462,1.251
58.8484,1.411
58.8492,1.606
58.8502,1.844
58.8524,1.657
58.8534,1.274
58.8564,1.242
58.8574,1.242
58.8594,1.242
58.8604,1.242
58.8614,1.23
58.8634,1.217
58.8644,1.215
58.8654,1.223
58.8673,1.246
58.8684,1.588
58.8693,1.82
58.8713,1.922
58.8723,1.685
58.8743,1.29
58.8753,1.242
58.8763,1.242
58.8783,1.242
58.8793,1.242
58.8803,1.242
58.8823,1.232
58.8833,1.217
58.8873,1.214
58.8953,1.242
58.9052,1.368
58.9072,1.575
58.9092,1.793
58.9102,1.908
58.9102,1.708
58.9102,1.242
58.9112,1.242
58.9112,1.242
58.9112,1.242
58.9122,1.242
58.9122,1.242
58.9122,1.232
58.9132,1.213
58.9132,1.219
58.9132,1.236
58.9132,1.334
58.9142,1.54
58.9142,1.744
58.9152,1.879
58.9156,1.313
58.9162,1.242
58.9162,1.242
58.9172,1.242
58.9182,1.242
58.9192,1.242
58.9212,1.233
58.9222,1.217
58.9232,1.213
58.9252,1.218
58.9262,1.232
58.9272,1.304
58.9292,1.504
58.9312,1.852
58.9322,1.733
58.9332,1.318
58.9342,1.242
58.9362,1.242
58.9372,1.242
58.9382,1.242
58.9402,1.242
58.9411,1.235
58.9421,1.217
58.9441,1.212
58.9451,1.217
58.9462,1.229
58.9483,1.489
58.9491,1.678
58.9501,1.855
58.9521,1.758
58.9531,1.336
58.9541,1.242
58.9561,1.242
58.9571,1.242
58.9591,1.242
58.9601,1.242
58.9611,1.236
58.9631,1.217
58.9641,1.212
58.9651,1.229
58.9671,1.287
58.9681,1.484
58.9691,1.667
58.9711,1.864
58.9721,1.787
58.9731,1.365
58.9751,1.242
58.9761,1.242
58.9771,1.242
58.9790,1.242
58.9800,1.242
58.9810,1.238
58.9830,1.218
58.9840,1.218
58.9850,1.231
58.9870,1.3
58.9880,1.508
58.9900,1.688
58.9920,1.899
58.9930,1.415
58.9960,1.242
58.9980,1.242
59.0060,1.242
59.0150,1.242
59.0170,1.242
59.0197,1.242
59.0199,1.219
59.0199,1.213
59.0209,1.219
59.0209,1.233
59.0209,1.306
59.0219,1.517
59.0219,1.699
59.0219,1.894
59.0229,1.459
59.0229,1.242
59.0229,1.242
59.0239,1.242
59.0239,1.242
59.0239,1.242
59.0249,1.241
59.0249,1.22
59.0249,1.214
59.0259,1.22
59.0269,1.234
59.0279,1.307
59.0289,1.52
59.0309,1.914
59.0319,1.918
59.0329,1.496
59.0349,1.242
59.0359,1.242
59.0369,1.242
59.0389,1.242
59.0399,1.242
59.0419,1.242
59.0429,1.221
59.0439,1.214
59.0459,1.22
59.0469,1.232
59.0479,1.299
59.0489,1.688
59.0509,1.904
59.0519,1.927
59.0538,1.527
59.0548,1.242
59.0558,1.242
59.0578,1.242
59.0588,1.242
59.0598,1.242
59.0618,1.242
59.0628,1.221
59.0638,1.215
59.0658,1.219
59.0668,1.289
59.0678,1.494
59.0698,1.678
59.0708,1.896
59.0728,1.953
59.0738,1.566
59.0748,1.244
59.0768,1.242
59.0778,1.242
59.0788,1.242
59.0808,1.242
59.0818,1.242
59.0828,1.223
59.0848,1.215
59.0858,1.229
59.0868,1.279
59.0888,1.477
59.0898,1.659
59.0907,1.881
59.0927,1.941
59.0937,1.248
59.0947,1.242
59.0967,1.242
59.0977,1.242
59.0987,1.242
59.1007,1.242
59.1017,1.242
59.1027,1.215
59.1057,1.217
59.1077,1.227
59.1157,1.268
59.1257,1.46
59.1277,1.644
59.1286,1.874
59.1286,1.622
59.1286,1.254
59.1296,1.242
59.1296,1.242
59.1296,1.242
59.1306,1.242
59.1306,1.242
59.1306,1.226
59.1318,1.216
59.1318,1.217
59.1326,1.227
59.1326,1.264
59.1326,1.451
59.1336,1.634
59.1336,1.947
59.1336,1.649
59.1346,1.265
59.1356,1.242
59.1366,1.242
59.1376,1.242
59.1396,1.242
59.1406,1.242
59.1426,1.228
59.1436,1.216
59.1446,1.216
59.1466,1.226
59.1476,1.258
59.1489,1.623
59.1506,1.856
59.1516,1.949
59.1526,1.688
59.1546,1.28
59.1556,1.242
59.1566,1.242
59.1586,1.242
59.1596,1.242
59.1606,1.242
59.1626,1.229
59.1636,1.217
59.1646,1.216
59.1665,1.255
59.1675,1.423
59.1695,1.616
59.1705,1.85
59.1715,1.947
59.1735,1.72
59.1745,1.242
59.1755,1.242
59.1775,1.242
59.1785,1.242
59.1795,1.242
59.1816,1.242
59.1826,1.231
59.1835,1.215
59.1855,1.225
59.1865,1.251
59.1875,1.404
59.1895,1.606
59.1905,1.827
59.1925,1.755
59.1935,1.31
59.1945,1.242
59.1965,1.242
59.1975,1.242
59.1985,1.242
59.2005,1.242
59.2015,1.232
59.2024,1.218
59.2044,1.215
59.2054,1.224
59.2064,1.247
59.2084,1.386
59.2094,1.596
59.2104,1.931
59.2124,1.778
59.2134,1.327
59.2174,1.242
59.2254,1.242
59.2284,1.242
59.2364,1.242
59.2384,1.242
59.2393,1.233
59.2393,1.218
59.2393,1.215
59.2393,1.222
59.2403,1.244
59.2403,1.581
59.2403,1.776
59.2413,1.925
59.2413,1.813
59.2413,1.344
59.2423,1.242
59.2423,1.242
59.2423,1.242
59.2433,1.242
59.2433,1.242
59.2433,1.234
59.2443,1.219
59.2443,1.215
59.2464,1.244
59.2473,1.362
59.2493,1.587
59.2503,1.766
59.2513,1.939
59.2523,1.855
59.2543,1.242
59.2553,1.242
59.2563,1.242
59.2583,1.242
59.2593,1.242
59.2603,1.242
59.2624,1.236
59.2633,1.215
59.2643,1.222
59.2663,1.244
59.2673,1.356
59.2683,1.58
59.2703,1.748
59.2713,1.94
59.2733,1.404
59.2743,1.242
59.2753,1.242
59.2763,1.242
59.2784,1.242
59.2792,1.242
59.2816,1.238
59.2822,1.22
59.2832,1.215
59.2852,1.223
59.2862,1.243
59.2872,1.348
59.2892,1.573
59.2902,1.944
59.2912,1.903
59.2932,1.429
59.2942,1.242
59.2962,1.242
59.2972,1.242
59.2982,1.242
59.3002,1.242
59.3012,1.239
59.3022,1.221
59.3042,1.215
59.3052,1.223
59.3072,1.242
59.3082,1.564
59.3092,1.733
59.3142,1.942
59.3218,1.929
59.3301,1.468
59.3351,1.242
59.3351,1.242
59.3361,1.242
59.3361,1.242
59.3361,1.242
59.3371,1.241
59.3371,1.221
59.3371,1.215
59.3381,1.241
59.3381,1.335
59.3381,1.557
59.3391,1.727
59.3391,1.94
59.3391,1.947
59.3401,1.242
59.3401,1.242
59.3401,1.242
59.3411,1.242
59.3411,1.242
59.3411,1.242
59.3411,1.241
59.3431,1.215
59.3441,1.223
59.3451,1.239
59.3471,1.326
59.3491,1.546
59.3501,1.718
59.3511,1.933
59.3521,1.543
59.3540,1.242
59.3551,1.242
59.3560,1.242
59.3581,1.242
59.3590,1.242
59.3610,1.242
59.3620,1.22
59.3630,1.213
59.3650,1.216
59.3660,1.223
59.3670,1.257
59.3690,1.402
59.3700,1.898
59.3720,1.973
59.3730,1.601
59.3740,1.244
59.3750,1.242
59.3770,1.242
59.3781,1.242
59.3800,1.242
59.3816,1.242
59.3830,1.231
59.3840,1.226
59.3850,1.254
59.3870,1.3
59.3880,1.658
59.3890,1.796
59.3909,2.015
59.3919,2.098
59.3939,1.731
59.3949,1.254
59.3959,1.242
59.3979,1.242
59.3989,1.242
59.3999,1.242
59.4019,1.242
59.4029,1.228
59.4040,1.219
59.4059,1.244
59.4069,1.322
59.4079,1.546
59.4099,1.705
59.4109,1.927
59.4129,1.998
59.4140,1.671
59.4140,1.242
59.4140,1.242
59.4140,1.242
59.4140,1.242
59.4140,1.242
59.4140,1.242
59.4140,1.217
59.4140,1.221
59.4140,1.236
59.4140,1.293
59.4302,1.513
59.4347,1.683
59.4403,1.911
59.4502,1.705
59.4532,1.266
59.4536,1.242
59.4543,1.242
59.4543,1.242
59.4543,1.242
59.4552,1.242
59.4552,1.229
59.4552,1.218
59.4552,1.221
59.4552,1.236
59.4552,1.289
59.4552,1.502
59.4552,1.905
59.4552,1.998
59.4552,1.73
59.4552,1.282
59.4552,1.242
59.4552,1.242
59.4552,1.242
59.4552,1.242
59.4552,1.242
59.4622,1.231
59.4632,1.219
59.4642,1.22
59.4662,1.235
59.4672,1.495
59.4682,1.668
59.4703,1.901
59.4712,1.998
59.4722,1.773
59.4742,1.302
59.4752,1.242
59.4772,1.242
59.4782,1.242
59.4792,1.242
59.4816,1.242
59.4822,1.232
59.4832,1.22
59.4852,1.234
59.4862,1.277
59.4872,1.475
59.4891,1.666
59.4901,1.883
59.4911,1.993
59.4931,1.803
59.4941,1.242
59.4951,1.242
59.4971,1.242
59.4981,1.242
59.5001,1.242
59.5012,1.242
59.5021,1.22
59.5041,1.22
59.5051,1.235
59.5061,1.278
59.5081,1.471
59.5091,1.666
59.5111,1.87
59.5121,1.86
59.5131,1.348
59.5151,1.242
59.5161,1.242
59.5171,1.242
59.5181,1.242
59.5211,1.242
59.5211,1.234
59.5221,1.222
59.5241,1.22
59.5270,1.235
59.5290,1.668
59.5300,1.853
59.5310,1.995
59.5330,1.882
59.5370,1.355
59.5450,1.242
59.5550,1.242
59.5565,1.242
59.5591,1.242
59.5591,1.242
59.5591,1.235
59.5600,1.222
59.5600,1.22
59.5600,1.277
59.5610,1.449
59.5610,1.663
59.5610,1.829
59.5620,1.992
59.5620,1.916
59.5620,1.4
59.5620,1.242
59.5629,1.242
59.5629,1.242
59.5629,1.242
59.5639,1.242
59.5639,1.237
59.5639,1.219
59.5655,1.232
59.5660,1.267
59.5679,1.422
59.5689,1.643
59.5701,1.803
59.5719,1.987
59.5729,1.423
59.5749,1.242
59.5759,1.242
59.5779,1.242
59.5789,1.242
59.5799,1.242
59.5810,1.238
59.5829,1.222
59.5839,1.218
59.5859,1.229
59.5869,1.261
59.5879,1.4
59.5899,1.622
59.5909,1.977
59.5919,1.952
59.5939,1.446
59.5949,1.242
59.5959,1.242
59.5979,1.242
59.5989,1.242
59.6008,1.242
59.6018,1.239
59.6028,1.223
59.6048,1.217
59.6058,1.23
59.6068,1.259
59.6088,1.618
59.6098,1.773
59.6108,1.982
59.6128,1.973
59.6138,1.484
59.6158,1.242
59.6168,1.242
59.6178,1.242
59.6198,1.242
59.6208,1.242
59.6218,1.24
59.6238,1.223
59.6248,1.218
59.6258,1.264
59.6278,1.406
59.6288,1.628
59.6298,1.782
59.6318,2.001
59.6328,2.014
59.6345,1.242
59.6358,1.242
59.6367,1.242
59.6387,1.242
59.6397,1.242
59.6407,1.242
59.6427,1.241
59.6457,1.22
59.6477,1.241
59.6550,1.279
59.6647,1.43
59.6677,1.649
59.6680,1.8
59.6680,2.052
59.6687,1.617
59.6687,1.242
59.6687,1.242
59.6697,1.242
59.6697,1.242
59.6697,1.242
59.6707,1.242
59.6707,1.227
59.6707,1.223
59.6707,1.249
59.6717,1.293
59.6717,1.452
59.6717,1.663
59.6727,2.021
59.6727,2.083
59.6737,1.676
59.6747,1.244
59.6756,1.242
59.6776,1.242
59.6786,1.242
59.6796,1.242
59.6816,1.242
59.6826,1.229
59.6836,1.225
59.6856,1.256
59.6866,1.307
59.6876,1.464
59.6896,1.807
59.6907,2.022
59.6916,2.102
59.6936,1.717
59.6946,1.249
59.6956,1.242
59.6976,1.242
59.6986,1.242
59.6996,1.242
59.7016,1.242
59.7026,1.23
59.7036,1.225
59.7056,1.25
59.7066,1.444
59.7076,1.66
59.7096,1.794
59.7106,2.015
59.7125,2.106
59.7135,1.769
59.7145,1.262
59.7165,1.242
59.7175,1.242
59.7185,1.242
59.7205,1.242
59.7215,1.242
59.7225,1.231
59.7245,1.226
59.7255,1.298
59.7265,1.434
59.7285,1.651
59.7295,1.785
59.7305,2.011
59.7325,2.104
59.7335,1.28
59.7345,1.242
59.7366,1.242
59.7375,1.242
59.7385,1.242
59.7405,1.242
59.7415,1.242
59.7425,1.226
59.7445,1.245
59.7455,1.295
59.7475,1.422
59.7485,1.64
59.7494,1.778
59.7514,2.003
59.7544,1.843
59.7577,1.296
59.7634,1.242
59.7725,1.242
59.7764,1.242
59.7764,1.242
59.7764,1.242
59.7774,1.233
59.7774,1.227
59.7784,1.242
59.7784,1.292
59.7784,1.412
59.7794,1.629
59.7794,1.768
59.7794,2.099
59.7804,1.87
59.7804,1.318
59.7804,1.242
59.7804,1.242
59.7814,1.242
59.7824,1.242
59.7824,1.242
59.7834,1.234
59.7834,1.227
59.7844,1.239
59.7864,1.288
59.7873,1.401
59.7883,1.762
59.7903,1.98
59.7913,2.09
59.7923,1.906
59.7943,1.346
59.7953,1.242
59.7963,1.242
59.7983,1.242
59.7993,1.242
59.8003,1.242
59.8023,1.235
59.8033,1.228
59.8043,1.239
59.8063,1.288
59.8073,1.603
59.8083,1.76
59.8103,1.964
59.8113,2.083
59.8133,1.953
59.8143,1.376
59.8153,1.241
59.8173,1.242
59.8183,1.242
59.8193,1.242
59.8213,1.242
59.8223,1.236
59.8233,1.228
59.8252,1.281
59.8262,1.389
59.8272,1.585
59.8294,1.755
59.8302,1.937
59.8312,2.075
59.8332,1.406
59.8342,1.242
59.8362,1.242
59.8372,1.242
59.8382,1.242
59.8402,1.242
59.8412,1.242
59.8422,1.229
59.8442,1.237
59.8452,1.281
59.8462,1.384
59.8482,1.57
59.8492,1.752
59.8502,2.073
59.8522,2.011
59.8532,1.432
59.8542,1.242
59.8562,1.242
59.8572,1.242
59.8582,1.242
59.8621,1.242
59.8641,1.238
59.8711,1.229
59.8801,1.236
59.8822,1.28
59.8851,1.377
59.8851,1.745
59.8861,1.893
59.8861,2.075
59.8861,2.043
59.8871,1.472
59.8871,1.242
59.8871,1.241
59.8881,1.242
59.8881,1.242
59.8881,1.242
59.8891,1.239
59.8891,1.229
59.8891,1.232
59.8891,1.362
59.8901,1.54
59.8901,1.735
59.8901,1.873
59.8911,2.071
59.8921,2.064
59.8941,1.503
59.8951,1.242
59.8961,1.242
59.8983,1.242
59.8990,1.242
59.9000,1.242
59.9020,1.24
59.9030,1.231
59.9040,1.277
59.9060,1.359
59.9070,1.534
59.9090,1.729
59.9100,1.867
59.9110,2.079
59.9130,1.561
59.9150,1.242
59.9160,1.242
59.9170,1.242
59.9182,1.242
59.9200,1.242
59.9210,1.241
59.9230,1.229
59.9240,1.229
59.9250,1.279
59.9270,1.358
59.9280,1.529
59.9290,1.72
59.9310,2.071
59.9321,2.107
59.9330,1.6
59.9350,1.242
59.9359,1.242
59.9379,1.242
59.9389,1.242
59.9399,1.242
59.9419,1.241
59.9429,1.23
59.9439,1.228
59.9459,1.28
59.9469,1.353
59.9481,1.712
59.9499,1.846
59.9509,2.067
59.9529,2.11
59.9539,1.652
59.9549,1.242
59.9562,1.242
59.9579,1.242
59.9589,1.242
59.9609,1.242
59.9619,1.242
59.9629,1.23
59.9649,1.227
59.9659,1.345
59.9679,1.509
59.9689,1.701
59.9700,1.837
59.9729,2.053
59.9810,2.112
59.9890,1.244
59.9928,1.242
59.9928,1.242
59.9928,1.242
59.9938,1.242
59.9938,1.242
59.9938,1.242
59.9938,1.226
59.9948,1.271
59.9948,1.338
59.9948,1.495
59.9958,1.691
59.9958,1.825
59.9958,2.04
59.9968,1.735
59.9968,1.247
59.9968,1.242
59.9978,1.242
59.9988,1.242
59.9998,1.242
60.0008,1.242
60.0028,1.231
60.0038,1.226
60.0048,1.262
60.0068,1.326
60.0078,1.478
60.0088,1.679
60.0107,2.032
60.0117,2.114
60.0137,1.766
60.0147,1.258
60.0157,1.242
60.0177,1.242
60.0187,1.242
60.0197,1.242
60.0217,1.242
60.0227,1.228
60.0237,1.22
60.0257,1.228
60.0267,1.249
60.0277,1.559
60.0297,1.722
60.0307,1.959
60.0327,2.081
60.0337,1.79
60.0347,1.274
60.0367,1.242
60.0377,1.242
60.0387,1.242
60.0407,1.242
60.0417,1.242
60.0447,1.239
60.0447,1.256
60.0457,1.547
60.0467,1.598
60.0486,1.749
60.0496,1.849
60.0506,2.075
60.0526,2.18
60.0536,1.316
60.0556,1.242
60.0566,1.242
60.0576,1.242
60.0596,1.242
60.0606,1.242
60.0616,1.242
60.0636,1.235
60.0646,1.274
60.0656,1.367
60.0676,1.477
60.0686,1.668
60.0696,1.793
60.0716,2.115
60.0726,1.889
60.0736,1.315
60.0756,1.242
60.0766,1.242
60.0776,1.242
60.0816,1.242
60.0836,1.242
60.0905,1.234
60.1025,1.228
60.1055,1.242
60.1065,1.295
60.1065,1.413
60.1065,1.772
60.1075,1.99
60.1075,2.095
60.1075,1.899
60.1085,1.335
60.1085,1.242
60.1085,1.242
60.1095,1.242
60.1095,1.242
60.1095,1.242
60.1105,1.235
60.1105,1.227
60.1105,1.235
60.1115,1.387
60.1115,1.597
60.1115,1.754
60.1125,1.962
60.1125,2.076
60.1135,1.927
60.1145,1.359
60.1155,1.242
60.1175,1.242
60.1185,1.242
60.1195,1.242
60.1215,1.242
60.1225,1.235
60.1234,1.233
60.1254,1.267
60.1264,1.37
60.1284,1.576
60.1294,1.744
60.1304,1.932
60.1324,2.062
60.1334,1.383
60.1344,1.242
60.1364,1.242
60.1374,1.242
60.1384,1.242
60.1405,1.242
60.1414,1.236
60.1424,1.226
60.1444,1.23
60.1454,1.26
60.1464,1.351
60.1484,1.552
60.1494,1.737
60.1514,2.053
60.1524,1.973
60.1534,1.41
60.1554,1.242
60.1564,1.242
60.1574,1.242
60.1594,1.242
60.1603,1.242
60.1614,1.237
60.1633,1.226
60.1643,1.229
60.1653,1.256
60.1673,1.341
60.1683,1.726
60.1693,1.88
60.1714,2.051
60.1723,2.005
60.1733,1.437
60.1753,1.242
60.1763,1.242
60.1783,1.242
60.1793,1.242
60.1803,1.242
60.1823,1.237
60.1833,1.226
60.1843,1.226
60.1863,1.32
60.1893,1.508
60.1933,1.711
60.1992,1.859
60.2133,2.045
60.2182,2.018
60.2182,1.467
60.2182,1.242
60.2192,1.242
60.2192,1.242
60.2192,1.242
60.2202,1.225
60.2202,1.223
60.2202,1.246
60.2202,1.305
60.2212,1.48
60.2212,1.69
60.2212,1.837
60.2222,2.022
60.2222,1.497
60.2222,1.242
60.2232,1.242
60.2232,1.242
60.2232,1.242
60.2242,1.242
60.2242,1.24
60.2242,1.224
60.2242,1.22
60.2252,1.239
60.2262,1.283
60.2282,1.443
60.2292,1.809
60.2302,2.016
60.2322,2.017
60.2332,1.527
60.2352,1.242
60.2361,1.242
60.2371,1.242
60.2391,1.242
60.2401,1.242
60.2411,1.241
60.2431,1.224
60.2441,1.218
60.2451,1.233
60.2471,1.4
60.2481,1.626
60.2491,1.781
60.2511,1.992
60.2521,2.009
60.2531,1.542
60.2551,1.242
60.2561,1.242
60.2581,1.242
60.2593,1.242
60.2601,1.242
60.2621,1.242
60.2631,1.223
60.2651,1.23
60.2661,1.257
60.2671,1.379
60.2681,1.603
60.2701,1.764
60.2711,1.977
60.2720,1.583
60.2740,1.242
60.2750,1.242
60.2760,1.242
60.2780,1.242
60.2790,1.242
60.2800,1.242
60.2820,1.224
60.2840,1.218
60.2850,1.23
60.2860,1.254
60.2880,1.372
60.2890,1.598
60.2901,1.756
60.2920,2.022
60.2930,1.624
60.2950,1.243
60.2960,1.242
60.2990,1.242
60.3010,1.242
60.3052,1.242
60.3109,1.242
60.3209,1.225
60.3223,1.218
60.3252,1.23
60.3252,1.254
60.3259,1.37
60.3259,1.757
60.3259,1.97
60.3269,2.04
60.3269,1.684
60.3269,1.248
60.3269,1.242
60.3279,1.242
60.3279,1.242
60.3279,1.242
60.3289,1.242
60.3289,1.227
60.3289,1.22
60.3299,1.232
60.3299,1.37
60.3299,1.601
60.3309,1.755
60.3309,1.975
60.3329,2.058
60.3339,1.724
60.3349,1.261
60.3369,1.242
60.3379,1.242
60.3389,1.242
60.3409,1.242
60.3419,1.242
60.3429,1.229
60.3449,1.231
60.3459,1.258
60.3469,1.364
60.3488,1.597
60.3498,1.747
60.3518,1.972
60.3528,2.061
60.3538,1.276
60.3548,1.242
60.3568,1.242
60.3578,1.242
60.3598,1.242
60.3608,1.242
60.3618,1.242
60.3638,1.221
60.3650,1.227
60.3658,1.253
60.3678,1.343
60.3688,1.576
60.3698,1.735
60.3718,1.96
60.3728,1.79
60.3738,1.29
60.3758,1.242
60.3768,1.242
60.3778,1.242
60.3798,1.242
60.3808,1.242
60.3818,1.231
60.3838,1.221
60.3847,1.225
60.3857,1.249
60.3877,1.327
60.3887,1.555
60.3897,1.72
60.3917,2.041
60.3927,1.81
60.3947,1.307
60.3957,1.242
60.3967,1.242
60.3987,1.242
60.3997,1.242
60.4007,1.242
60.4027,1.232
60.4037,1.221
60.4047,1.223
60.4069,1.243
60.4100,1.309
60.4177,1.706
60.4276,1.923
60.4298,2.029
60.4326,1.847
60.4326,1.327
60.4326,1.242
60.4336,1.242
60.4336,1.242
60.4336,1.242
60.4346,1.242
60.4346,1.233
60.4346,1.221
60.4356,1.222
60.4356,1.24
60.4356,1.504
60.4366,1.693
60.4366,1.896
60.4366,2.015
60.4376,1.875
60.4376,1.349
60.4376,1.242
60.4387,1.242
60.4387,1.242
60.4396,1.242
60.4416,1.242
60.4426,1.234
60.4440,1.221
60.4456,1.238
60.4466,1.289
60.4476,1.484
60.4496,1.685
60.4506,1.872
60.4516,2.005
60.4536,1.9
60.4546,1.242
60.4556,1.242
60.4576,1.242
60.4586,1.242
60.4596,1.242
60.4615,1.242
60.4625,1.235
60.4645,1.22
60.4655,1.235
60.4665,1.279
60.4685,1.459
60.4696,1.67
60.4705,1.844
60.4725,1.919
60.4735,1.397
60.4745,1.242
60.4765,1.242
60.4775,1.242
60.4785,1.242
60.4805,1.242
60.4815,1.236
60.4825,1.221
60.4845,1.219
60.4855,1.232
60.4867,1.274
60.4885,1.439
60.4895,1.66
60.4915,1.998
60.4925,1.947
60.4935,1.414
60.4955,1.242
60.4964,1.242
60.4974,1.242
60.4996,1.242
60.5006,1.242
60.5016,1.237
60.5036,1.222
60.5046,1.218
60.5056,1.231
60.5076,1.268
60.5085,1.646
60.5095,1.805
60.5115,1.996
60.5125,1.974
60.5135,1.451
60.5155,1.242
60.5165,1.242
60.5187,1.242
60.5215,1.242
60.5295,1.242
60.5392,1.238
60.5420,1.222
60.5421,1.218
60.5425,1.262
60.5425,1.405
60.5425,1.629
60.5435,1.787
60.5435,1.991
60.5435,1.982
60.5445,1.242
60.5445,1.242
60.5445,1.242
60.5445,1.242
60.5445,1.242
60.5455,1.242
60.5455,1.24
60.5455,1.217
60.5455,1.228
60.5465,1.253
60.5475,1.377
60.5485,1.604
60.5506,1.763
60.5515,1.975
60.5535,1.508
60.5545,1.242
60.5555,1.242
60.5575,1.242
60.5585,1.242
60.5595,1.242
60.5615,1.241
60.5625,1.222
60.5648,1.216
60.5661,1.226
60.5665,1.248
60.5685,1.361
60.5695,1.59
60.5705,1.966
60.5725,1.991
60.5735,1.552
60.5745,1.242
60.5765,1.242
60.5775,1.242
60.5785,1.242
60.5806,1.242
60.5816,1.242
60.5826,1.223
60.5846,1.216
60.5856,1.226
60.5866,1.246
60.5886,1.578
60.5896,1.741
60.5916,1.951
60.5926,1.988
60.5936,1.582
60.5956,1.242
60.5966,1.242
60.5980,1.242
60.5996,1.242
60.6006,1.242
60.6016,1.242
60.6036,1.223
60.6046,1.216
60.6056,1.243
60.6076,1.335
60.6086,1.562
60.6096,1.727
60.6115,1.941
60.6125,1.994
60.6147,1.244
60.6155,1.242
60.6165,1.242
60.6185,1.242
60.6195,1.242
60.6205,1.242
60.6225,1.242
60.6236,1.216
60.6245,1.223
60.6265,1.24
60.6275,1.322
60.6325,1.552
60.6405,1.714
60.6470,2.002
60.6494,1.653
60.6494,1.251
60.6494,1.242
60.6504,1.242
60.6504,1.242
60.6504,1.242
60.6514,1.242
60.6514,1.226
60.6514,1.217
60.6514,1.222
60.6514,1.239
60.6524,1.31
60.6524,1.701
60.6524,1.927
60.6524,2.003
60.6534,1.682
60.6544,1.259
60.6554,1.242
60.6574,1.242
60.6584,1.242
60.6594,1.242
60.6614,1.242
60.6624,1.228
60.6645,1.217
60.6655,1.221
60.6665,1.236
60.6685,1.521
60.6695,1.689
60.6705,1.916
60.6725,1.999
60.6735,1.713
60.6745,1.273
60.6769,1.242
60.6775,1.242
60.6785,1.242
60.6805,1.242
60.6815,1.242
60.6825,1.228
60.6845,1.216
60.6855,1.225
60.6865,1.252
60.6885,1.402
60.6895,1.577
60.6915,1.796
60.6925,1.867
60.6935,1.263
60.6955,1.242
60.6965,1.242
60.6974,1.242
60.6998,1.242
60.7004,1.242
60.7014,1.242
60.7034,1.217
60.7044,1.218
60.7054,1.237
60.7075,1.309
60.7084,1.566
60.7094,1.758
60.7114,2.102
60.7124,1.921
60.7144,1.346
60.7154,1.242
60.7164,1.242
60.7184,1.242
60.7194,1.242
60.7204,1.242
60.7224,1.234
60.7235,1.224
60.7244,1.227
60.7264,1.251
60.7274,1.326
60.7284,1.713
60.7304,1.916
60.7314,2.023
60.7324,1.858
60.7344,1.335
60.7353,1.242
60.7363,1.242
60.7383,1.242
60.7423,1.242
60.7503,1.242
60.7593,1.233
60.7623,1.219
60.7638,1.217
60.7638,1.262
60.7648,1.435
60.7648,1.645
60.7648,1.839
60.7658,1.965
60.7658,1.83
60.7658,1.341
60.7668,1.242
60.7668,1.242
60.7668,1.242
60.7668,1.242
60.7668,1.242
60.7668,1.234
60.7668,1.219
60.7668,1.225
60.7668,1.252
60.7668,1.396
60.7668,1.613
60.7668,1.801
60.7668,1.946
60.7730,1.36
60.7740,1.242
60.7740,1.242
60.7740,1.242
60.7740,1.242
60.7740,1.242
60.7820,1.242
60.7830,1.218
60.7840,1.215
60.7840,1.223
60.7840,1.246
60.7840,1.375
60.7840,1.599
60.7840,1.938
60.7919,1.866
60.7929,1.375
60.7929,1.242
60.7960,1.242
60.7970,1.242
60.7992,1.242
60.8002,1.242
60.8012,1.236
60.8012,1.219
60.8040,1.215
60.8049,1.223
60.8049,1.244
60.8049,1.585
60.8049,1.754
60.8206,1.936
60.8206,1.886
60.8206,1.402
60.8206,1.242
60.8206,1.242
60.8206,1.242
60.8206,1.242
60.8206,1.242
60.8206,1.237
60.8206,1.219
60.8206,1.214
60.8206,1.221
60.8206,1.342
60.8206,1.563
60.8206,1.736
60.8206,1.93
60.8206,1.901
60.8206,1.427
60.8206,1.242
60.8362,1.242
60.8389,1.242
60.8399,1.242
60.8409,1.242
60.8429,1.239
60.8439,1.22
60.8449,1.22
60.8469,1.237
60.8479,1.328
60.8498,1.545
60.8508,1.721
60.8538,1.925
60.8549,1.461
60.8558,1.242
60.8558,1.242
60.8578,1.242
60.8588,1.242
60.8598,1.242
60.8618,1.242
60.8628,1.22
60.8638,1.214
60.8658,1.22
60.8668,1.234
60.8740,1.309
60.8829,1.904
60.8849,1.907
60.8869,1.482
60.8879,1.242
60.8879,1.242
60.8879,1.242
60.8890,1.242
60.8890,1.242
60.8890,1.241
60.8899,1.22
60.8899,1.214
60.8899,1.218
60.8909,1.29
60.8909,1.483
60.8909,1.663
60.8919,1.871
60.8929,2.0
60.8939,1.833
60.8959,1.257
60.8969,1.242
60.8979,1.242
60.8999,1.242
60.9009,1.242
60.9019,1.242
60.9039,1.215
60.9049,1.22
60.9059,1.231
60.9079,1.284
60.9089,1.469
60.9109,1.642
60.9119,1.84
60.9129,1.964
60.9149,1.278
60.9159,1.242
60.9169,1.242
60.9188,1.242
60.9198,1.242
60.9208,1.242
60.9228,1.214
60.9238,1.213
60.9248,1.218
60.9268,1.228
60.9278,1.271
60.9288,1.441
60.9308,1.611
60.9318,1.94
60.9338,1.946
60.9348,1.336
60.9358,1.242
60.9378,1.242
60.9388,1.242
60.9398,1.242
60.9418,1.242
60.9428,1.214
60.9438,1.212
60.9458,1.217
60.9468,1.227
60.9478,1.262
60.9498,1.591
60.9508,1.794
60.9528,1.916
60.9557,1.952
60.9590,1.377
60.9647,1.242
60.9730,1.242
60.9747,1.242
60.9777,1.242
60.9777,1.242
60.9777,1.217
60.9787,1.213
60.9787,1.217
60.9787,1.26
60.9797,1.416
60.9797,1.591
60.9797,1.797
60.9807,1.909
60.9807,1.995
60.9807,1.438
60.9818,1.242
60.9818,1.242
60.9827,1.242
60.9827,1.242
60.9827,1.242
60.9837,1.218
60.9848,1.217
60.9857,1.228
60.9877,1.259
60.9887,1.412
60.9897,1.585
60.9917,1.788
60.9927,1.897
60.9936,1.514
60.9956,1.243
60.9966,1.242
60.9976,1.242
60.9996,1.242
61.0006,1.242
61.0016,1.22
61.0036,1.213
61.0046,1.217
61.0066,1.227
61.0076,1.256
61.0086,1.4
61.0106,1.57
61.0116,1.866
61.0126,2.042
61.0136,1.586
61.0156,1.244
61.0166,1.242
61.0186,1.242
61.0196,1.242
61.0206,1.242
61.0226,1.222
61.0236,1.213
61.0246,1.216
61.0266,1.225
61.0276,1.248
61.0286,1.365
61.0306,1.733
61.0315,1.833
61.0326,2.024
61.0345,1.629
61.0355,1.246
61.0365,1.242
61.0385,1.242
61.0395,1.242
61.0405,1.242
61.0425,1.223
61.0435,1.212
61.0445,1.215
61.0465,1.223
61.0475,1.241
61.0486,1.508
61.0505,1.685
61.0515,1.793
61.0535,1.987
61.0545,1.683
61.0555,1.261
61.0575,1.242
61.0585,1.242
61.0595,1.242
61.0615,1.242
61.0625,1.225
61.0635,1.212
61.0675,1.215
61.0705,1.237
61.0764,1.307
61.0844,1.473
61.0875,1.638
61.0875,1.758
61.0884,1.947
61.0884,1.731
61.0884,1.242
61.0884,1.242
61.0894,1.242
61.0894,1.242
61.0894,1.242
61.0904,1.226
61.0904,1.211
61.0904,1.22
61.0914,1.231
61.0914,1.282
61.0914,1.429
61.0914,1.581
61.0924,1.715
61.0934,1.878
61.0944,1.258
61.0964,1.242
61.0974,1.242
61.0984,1.242
61.1004,1.242
61.1014,1.242
61.1024,1.211
61.1044,1.213
61.1053,1.217
61.1063,1.227
61.1073,1.26
61.1093,1.375
61.1104,1.523
61.1123,1.814
61.1133,1.745
61.1143,1.266
61.1163,1.242
61.1173,1.242
61.1183,1.242
61.1203,1.242
61.1213,1.227
61.1223,1.211
61.1243,1.212
61.1253,1.217
61.1263,1.225
61.1283,1.25
61.1293,1.339
61.1303,1.624
61.1323,1.751
61.1333,1.726
61.1353,1.278
61.1363,1.242
61.1373,1.242
61.1393,1.242
61.1403,1.24
61.1413,1.229
61.1432,1.211
61.1442,1.212
61.1452,1.215
61.1472,1.221
61.1482,1.239
61.1492,1.419
61.1512,1.57
61.1522,1.683
61.1532,1.68
61.1552,1.283
61.1562,1.242
61.1582,1.242
61.1592,1.242
61.1602,1.239
61.1622,1.23
61.1632,1.21
61.1642,1.211
61.1662,1.214
61.1672,1.232
61.1682,1.27
61.1702,1.358
61.1712,1.501
61.1722,1.601
61.1763,1.603
61.1782,1.242
61.1813,1.242
61.1871,1.242
61.1960,1.242
61.1975,1.239
61.2003,1.232
61.2003,1.21
61.2011,1.212
61.2011,1.216
61.2011,1.225
61.2021,1.249
61.2021,1.304
61.2021,1.424
61.2031,1.521
61.2031,1.28
61.2031,1.242
61.2041,1.242
61.2041,1.242
61.2041,1.242
61.2041,1.239
61.2051,1.21
61.2051,1.21
61.2051,1.211
61.2061,1.214
61.2071,1.221
61.2091,1.236
61.2101,1.267
61.2111,1.43
61.2131,1.439
61.2151,1.268
61.2161,1.242
61.2170,1.242
61.2180,1.242
61.2201,1.24
61.2210,1.237
61.2220,1.21
61.2240,1.21
61.2250,1.211
61.2260,1.213
61.2280,1.217
61.2290,1.249
61.2310,1.293
61.2330,1.34
61.2330,1.343
61.2351,1.249
61.2360,1.241
61.2370,1.242
61.2380,1.242
61.2400,1.241
61.2410,1.238
61.2420,1.21
61.2440,1.21
61.2450,1.21
61.2474,1.215
61.2481,1.223
61.2491,1.236
61.2510,1.259
61.2521,1.282
61.2530,1.277
61.2550,1.241
61.2560,1.242
61.2570,1.242
61.2590,1.242
61.2600,1.242
61.2620,1.238
61.2631,1.21
61.2650,1.21
61.2650,1.211
61.2670,1.214
61.2680,1.22
61.2700,1.23
61.2710,1.246
61.2720,1.259
61.2740,1.238
61.2750,1.24
61.2770,1.242
61.2780,1.242
61.2812,1.242
61.2830,1.242
61.2911,1.238
61.2999,1.209
61.3009,1.21
61.3041,1.211
61.3041,1.212
61.3049,1.217
61.3049,1.225
61.3049,1.237
61.3059,1.242
61.3059,1.235
61.3059,1.238
61.3059,1.242
61.3069,1.242
61.3069,1.242
61.3069,1.239
61.3079,1.211
61.3079,1.21
61.3079,1.21
61.3079,1.21
61.3089,1.211
61.3089,1.215
61.3109,1.23
61.3119,1.234
61.3129,1.234
61.3149,1.233
61.3159,1.237
61.3169,1.242
61.3189,1.242
61.3199,1.242
61.3219,1.239
61.3229,1.214
61.3239,1.21
61.3258,1.209
61.3269,1.21
61.3278,1.214
61.3298,1.218
61.3308,1.225
61.3320,1.227
61.3338,1.227
61.3348,1.231
61.3358,1.235
61.3378,1.242
61.3388,1.242
61.3398,1.242
61.3418,1.24
61.3428,1.217
61.3438,1.21
61.3458,1.21
61.3468,1.211
61.3488,1.213
61.3498,1.216
61.3508,1.222
61.3528,1.224
61.3538,1.225
61.3548,1.233
61.3568,1.242
61.3578,1.242
61.3588,1.242
61.3608,1.242
61.3618,1.239
61.3627,1.219
61.3647,1.21
61.3657,1.21
61.3667,1.21
61.3687,1.212
61.3697,1.214
61.3717,1.217
61.3727,1.217
61.3737,1.223
61.3757,1.23
61.3767,1.242
61.3777,1.242
61.3797,1.242
61.3807,1.242
61.3817,1.221
61.3837,1.209
61.3847,1.209
61.3857,1.209
61.3877,1.21
61.3887,1.211
61.3897,1.214
61.3927,1.218
61.3947,1.221
61.4024,1.225
61.4096,1.232
61.4116,1.242
61.4140,1.242
61.4146,1.242
61.4146,1.239
61.4156,1.223
61.4156,1.209
61.4156,1.209
61.4156,1.21
61.4166,1.211
61.4166,1.214
61.4166,1.225
61.4176,1.228
61.4176,1.229
61.4176,1.225
61.4186,1.232
61.4186,1.242
61.4196,1.242
61.4196,1.242
61.4206,1.236
61.4226,1.223
61.4236,1.21
61.4246,1.209
61.4266,1.21
61.4276,1.211
61.4286,1.212
61.4306,1.215
61.4320,1.217
61.4336,1.218
61.4346,1.216
61.4356,1.227
61.4377,1.242
61.4387,1.242
61.4397,1.242
61.4417,1.235
61.4427,1.225
61.4437,1.209
61.4457,1.209
61.4467,1.21
61.4477,1.21
61.4497,1.212
61.4507,1.213
61.4517,1.215
61.4537,1.215
61.4547,1.225
61.4557,1.238
61.4577,1.242
61.4587,1.242
61.4596,1.242
61.4616,1.233
61.4626,1.224
61.4636,1.209
61.4656,1.209
61.4666,1.209
61.4686,1.21
61.4696,1.211
61.4706,1.213
61.4726,1.214
61.4736,1.213
61.4746,1.224
61.4766,1.236
61.4776,1.242
61.4786,1.242
61.4806,1.242
61.4816,1.225
61.4826,1.209
61.4846,1.209
61.4856,1.21
61.4866,1.209
61.4886,1.21
61.4896,1.211
61.4906,1.213
61.4926,1.213
61.4936,1.212
61.4946,1.222
61.4966,1.234
61.4975,1.242
61.4996,1.242
61.5015,1.233
61.5060,1.226
61.5116,1.209
61.5207,1.209
61.5221,1.209
61.5247,1.209
61.5247,1.21
61.5255,1.211
61.5255,1.212
61.5255,1.212
61.5265,1.212
61.5265,1.22
61.5275,1.232
61.5275,1.242
61.5275,1.242
61.5285,1.235
61.5285,1.226
61.5285,1.209
61.5285,1.209
61.5295,1.209
61.5295,1.21
61.5295,1.21
61.5305,1.211
61.5315,1.211
61.5325,1.212
61.5345,1.211
61.5354,1.228
61.5364,1.242
61.5394,1.242
61.5414,1.237
61.5424,1.222
61.5434,1.209
61.5454,1.209
61.5464,1.209
61.5474,1.209
61.5494,1.21
61.5505,1.21
61.5515,1.211
61.5535,1.211
61.5545,1.213
61.5555,1.223
61.5575,1.242
61.5585,1.242
61.5595,1.242
61.5615,1.217
61.5625,1.209
61.5635,1.209
61.5655,1.209
61.5665,1.209
61.5675,1.209
61.5695,1.21
61.5705,1.211
61.5715,1.211
61.5736,1.21
61.5746,1.212
61.5756,1.218
61.5776,1.242
61.5786,1.242
61.5806,1.24
61.5816,1.214
61.5826,1.209
61.5846,1.209
61.5856,1.209
61.5866,1.209
61.5885,1.21
61.5895,1.21
61.5905,1.21
61.5926,1.21
61.5935,1.21
61.5945,1.211
61.5965,1.214
61.5975,1.242
61.5985,1.242
61.6005,1.241
61.6015,1.212
61.6025,1.209
61.6045,1.209
61.6055,1.209
61.6065,1.209
61.6108,1.209
61.6125,1.21
61.6195,1.21
61.6245,1.21
61.6294,1.21
61.6324,1.211
61.6334,1.242
61.6334,1.242
61.6334,1.242
61.6344,1.242
61.6344,1.211
61.6344,1.21
61.6354,1.209
61.6354,1.209
61.6354,1.209
61.6364,1.209
61.6364,1.21
61.6364,1.21
61.6374,1.21
61.6374,1.211
61.6384,1.21
61.6384,1.241
61.6384,1.242
61.6394,1.242
61.6405,1.241
61.6414,1.212
61.6434,1.209
61.6444,1.209
61.6464,1.209
61.6479,1.209
61.6484,1.21
61.6504,1.209
61.6514,1.21
61.6524,1.21
61.6544,1.211
61.6554,1.21
61.6564,1.24
61.6584,1.242
61.6594,1.242
61.6604,1.216
61.6623,1.21
61.6633,1.209
61.6643,1.209
61.6663,1.21
61.6673,1.209
61.6683,1.21
61.6703,1.21
61.6713,1.21
61.6723,1.21
61.6743,1.211
61.6753,1.21
61.6763,1.238
61.6783,1.242
61.6793,1.242
61.6803,1.218
61.6823,1.21
61.6833,1.21
61.6843,1.209
61.6863,1.209
61.6873,1.209
61.6883,1.209
61.6903,1.21
61.6913,1.21
61.6933,1.21
61.6943,1.21
61.6953,1.21
61.6963,1.235
61.6983,1.242
61.6992,1.242
61.7012,1.22
61.7022,1.21
61.7032,1.209
61.7052,1.21
61.7062,1.209
61.7072,1.21
61.7092,1.209
61.7102,1.21
61.7112,1.21
61.7132,1.21
61.7142,1.21
61.7152,1.21
61.7172,1.242
61.7182,1.242
61.7222,1.242
61.7292,1.223
61.7322,1.21
61.7381,1.21
61.7403,1.209
61.7403,1.21
61.7411,1.209
61.7411,1.21
61.7411,1.21
61.7411,1.21
61.7421,1.21
61.7421,1.209
61.7421,1.23
61.7421,1.242
61.7431,1.242
61.7431,1.242
61.7431,1.224
61.7441,1.21
61.7441,1.21
61.7451,1.209
61.7461,1.209
61.7471,1.209
61.7491,1.209
61.7501,1.209
61.7511,1.209
61.7531,1.21
61.7541,1.211
61.7561,1.228
61.7571,1.242
61.7581,1.242
61.7601,1.242
61.7611,1.226
61.7621,1.211
61.7645,1.21
61.7651,1.21
61.7661,1.209
61.7681,1.209
61.7691,1.209
61.7701,1.21
61.7721,1.21
61.7730,1.209
61.7740,1.21
61.7760,1.226
61.7770,1.242
61.7780,1.242
61.7800,1.242
61.7810,1.226
61.7821,1.209
61.7840,1.21
61.7850,1.209
61.7860,1.209
61.7880,1.209
61.7890,1.209
61.7900,1.209
61.7920,1.21
61.7930,1.209
61.7940,1.21
61.7960,1.223
61.7970,1.242
61.7981,1.242
61.8000,1.242
61.8010,1.21
61.8020,1.209
61.8040,1.209
61.8060,1.209
61.8070,1.209
61.8080,1.209
61.8090,1.209
61.8109,1.209
61.8119,1.21
61.8129,1.21
61.8149,1.21
61.8160,1.221
61.8169,1.242
61.8189,1.242
61.8209,1.23
61.8219,1.211
61.8229,1.209
61.8249,1.21
61.8259,1.209
61.8269,1.21
61.8289,1.209
61.8299,1.209
61.8369,1.209
61.8409,1.21
61.8469,1.209
61.8501,1.21
61.8501,1.218
61.8508,1.242
61.8508,1.242
61.8508,1.232
61.8508,1.211
61.8508,1.209
61.8518,1.209
61.8518,1.209
61.8518,1.209
61.8518,1.209
61.8518,1.21
61.8528,1.21
61.8528,1.21
61.8548,1.209
61.8558,1.216
61.8568,1.242
61.8588,1.242
61.8598,1.242
61.8608,1.235
61.8628,1.211
61.8638,1.21
61.8650,1.209
61.8668,1.21
61.8678,1.209
61.8688,1.209
61.8708,1.209
61.8718,1.209
61.8728,1.209
61.8748,1.209
61.8758,1.213
61.8768,1.242
61.8788,1.242
61.8798,1.242
61.8812,1.238
61.8828,1.209
61.8838,1.209
61.8857,1.209
61.8867,1.209
61.8877,1.209
61.8897,1.209
61.8907,1.209
61.8917,1.21
61.8937,1.209
61.8947,1.21
61.8957,1.212
61.8977,1.242
61.8987,1.242
61.8997,1.242
61.9017,1.211
61.9027,1.209
61.9037,1.209
61.9057,1.21
61.9067,1.21
61.9077,1.209
61.9097,1.209
61.9107,1.209
61.9127,1.209
61.9137,1.209
61.9147,1.21
61.9167,1.21
61.9177,1.241
61.9187,1.242
61.9207,1.241
61.9217,1.211
61.9226,1.21
61.9246,1.209
61.9256,1.21
61.9266,1.209
61.9286,1.21
61.9296,1.209
61.9306,1.209
61.9328,1.21
61.9338,1.209
61.9348,1.21
61.9368,1.24
61.9378,1.242
61.9418,1.242
61.9463,1.242
61.9549,1.212
61.9597,1.21
61.9628,1.21
61.9628,1.209
61.9637,1.209
61.9637,1.209
61.9637,1.209
61.9647,1.209
61.9647,1.209
61.9657,1.209
61.9657,1.209
61.9657,1.239
61.9667,1.242
61.9667,1.242
61.9667,1.242
61.9677,1.214
61.9677,1.21
61.9677,1.209
61.9687,1.209
61.9687,1.209
61.9687,1.209
61.9697,1.209
61.9717,1.209
61.9727,1.209
61.9737,1.21
61.9757,1.209
61.9767,1.236
61.9787,1.242
61.9797,1.242
61.9807,1.242
61.9827,1.21
61.9837,1.209
61.9847,1.209
61.9866,1.209
61.9876,1.209
61.9886,1.209
61.9906,1.209
61.9916,1.209
61.9926,1.209
61.9946,1.21
61.9956,1.209
61.9966,1.234
61.9986,1.242
61.9996,1.242
62.0006,1.22
62.0026,1.21
62.0036,1.209
62.0056,1.21
62.0066,1.209
62.0076,1.209
62.0096,1.209
62.0106,1.209
62.0116,1.209
62.0126,1.209
62.0146,1.21
62.0156,1.209
62.0177,1.232
62.0186,1.242
62.0196,1.242
62.0216,1.222
62.0226,1.21
62.0235,1.21
62.0255,1.209
62.0265,1.209
62.0275,1.209
62.0295,1.209
62.0305,1.209
62.0315,1.209
62.0335,1.209
62.0345,1.209
62.0355,1.229
62.0375,1.242
62.0385,1.242
62.0405,1.242
62.0415,1.224
62.0425,1.21
62.0446,1.209
62.0456,1.209
62.0466,1.21
62.0486,1.209
62.0536,1.21
62.0635,1.209
62.0715,1.209
62.0742,1.209
62.0745,1.209
62.0745,1.226
62.0745,1.242
62.0745,1.242
62.0755,1.242
62.0755,1.225
62.0755,1.21
62.0765,1.21
62.0765,1.209
62.0765,1.209
62.0765,1.209
62.0775,1.209
62.0775,1.209
62.0775,1.209
62.0785,1.209
62.0785,1.21
62.0785,1.225
62.0795,1.242
62.0795,1.242
62.0806,1.242
62.0815,1.211
62.0835,1.209
62.0845,1.209
62.0855,1.209
62.0875,1.209
62.0885,1.209
62.0895,1.209
62.0915,1.209
62.0925,1.21
62.0935,1.209
62.0956,1.209
62.0966,1.223
62.0976,1.242
62.0996,1.242
62.1006,1.228
62.1016,1.211
62.1036,1.209
62.1046,1.21
62.1067,1.21
62.1075,1.209
62.1085,1.209
62.1105,1.209
62.1115,1.209
62.1126,1.209
62.1146,1.209
62.1155,1.21
62.1165,1.221
62.1186,1.242
62.1196,1.242
62.1206,1.23
62.1226,1.211
62.1236,1.21
62.1246,1.21
62.1266,1.21
62.1276,1.209
62.1287,1.209
62.1308,1.209
62.1316,1.209
62.1326,1.209
62.1346,1.209
62.1356,1.219
62.1366,1.242
62.1386,1.242
62.1396,1.242
62.1416,1.233
62.1426,1.212
62.1436,1.21
62.1456,1.209
62.1466,1.209
62.1476,1.209
62.1496,1.209
62.1506,1.209
62.1516,1.209
62.1536,1.21
62.1546,1.21
62.1555,1.216
62.1575,1.242
62.1585,1.242
62.1595,1.242
62.1645,1.235
62.1737,1.209
62.1825,1.21
62.1875,1.209
62.1879,1.209
62.1885,1.209
62.1885,1.209
62.1885,1.209
62.1895,1.209
62.1895,1.209
62.1905,1.209
62.1905,1.214
62.1915,1.242
62.1915,1.242
62.1915,1.242
62.1924,1.211
62.1924,1.21
62.1924,1.21
62.1934,1.21
62.1934,1.209
62.1944,1.209
62.1944,1.209
62.1944,1.209
62.1954,1.209
62.1954,1.209
62.1964,1.209
62.1964,1.212
62.1974,1.242
62.1984,1.242
62.2004,1.241
62.2014,1.211
62.2024,1.21
62.2044,1.21
62.2054,1.21
62.2084,1.209
62.2094,1.209
62.2115,1.209
62.2125,1.209
62.2135,1.209
62.2155,1.21
62.2165,1.241
62.2175,1.242
62.2195,1.242
62.2205,1.242
62.2225,1.211
62.2235,1.21
62.2245,1.21
62.2265,1.21
62.2275,1.209
62.2285,1.209
62.2305,1.209
62.2315,1.209
62.2325,1.209
62.2345,1.209
62.2355,1.21
62.2365,1.241
62.2386,1.242
62.2395,1.242
62.2405,1.242
62.2425,1.212
62.2435,1.21
62.2445,1.21
62.2464,1.209
62.2474,1.209
62.2484,1.21
62.2504,1.209
62.2514,1.209
62.2524,1.209
62.2545,1.209
62.2554,1.209
62.2574,1.24
62.2584,1.242
62.2594,1.242
62.2614,1.215
62.2624,1.21
62.2634,1.21
62.2654,1.209
62.2664,1.21
62.2674,1.21
62.2694,1.209
62.2724,1.21
62.2734,1.209
62.2804,1.209
62.2893,1.21
62.2923,1.209
62.2925,1.237
62.2925,1.242
62.2933,1.242
62.2933,1.217
62.2933,1.21
62.2943,1.21
62.2943,1.209
62.2943,1.209
62.2943,1.209
62.2953,1.21
62.2953,1.209
62.2953,1.209
62.2953,1.209
62.2953,1.209
62.2963,1.209
62.2979,1.242
62.2983,1.242
62.3004,1.242
62.3013,1.219
62.3023,1.21
62.3043,1.209
62.3053,1.21
62.3063,1.21
62.3083,1.209
62.3093,1.209
62.3103,1.209
62.3124,1.209
62.3134,1.209
62.3150,1.209
62.3164,1.231
62.3174,1.242
62.3184,1.242
62.3204,1.242
62.3214,1.221
62.3233,1.21
62.3243,1.209
62.3253,1.21
62.3273,1.209
62.3283,1.209
62.3293,1.209
62.3313,1.209
62.3323,1.209
62.3333,1.209
62.3353,1.209
62.3363,1.228
62.3373,1.242
62.3393,1.242
62.3403,1.242
62.3413,1.223
62.3433,1.209
62.3443,1.209
62.3453,1.209
62.3478,1.21
62.3483,1.209
62.3493,1.209
62.3513,1.209
62.3523,1.209
62.3533,1.21
62.3553,1.21
62.3563,1.226
62.3573,1.242
62.3593,1.242
62.3602,1.242
62.3612,1.21
62.3632,1.21
62.3644,1.21
62.3652,1.21
62.3672,1.209
62.3682,1.209
62.3692,1.209
62.3712,1.209
62.3722,1.209
62.3732,1.209
62.3752,1.209
62.3762,1.226
62.3772,1.242
62.3817,1.242
62.3892,1.227
62.3978,1.211
62.3991,1.21
62.4023,1.21
62.4023,1.21
62.4031,1.21
62.4031,1.209
62.4031,1.209
62.4041,1.21
62.4041,1.209
62.4041,1.209
62.4051,1.209
62.4051,1.224
62.4051,1.242
62.4061,1.242
62.4061,1.228
62.4061,1.212
62.4061,1.209
62.4071,1.21
62.4071,1.21
62.4071,1.209
62.4081,1.209
62.4102,1.209
62.4111,1.209
62.4121,1.209
62.4145,1.209
62.4151,1.209
62.4161,1.222
62.4181,1.242
62.4191,1.242
62.4201,1.23
62.4221,1.212
62.4232,1.21
62.4241,1.21
62.4261,1.209
62.4271,1.21
62.4281,1.209
62.4301,1.209
62.4321,1.209
62.4321,1.209
62.4341,1.209
62.4350,1.209
62.4360,1.242
62.4380,1.242
62.4390,1.242
62.4400,1.233
62.4421,1.213
62.4430,1.21
62.4440,1.209
62.4460,1.209
62.4480,1.209
62.4480,1.209
62.4500,1.209
62.4520,1.209
62.4530,1.209
62.4540,1.209
62.4560,1.217
62.4571,1.242
62.4580,1.242
62.4600,1.242
62.4610,1.236
62.4620,1.212
62.4640,1.21
62.4650,1.21
62.4661,1.21
62.4680,1.209
62.4690,1.209
62.4710,1.209
62.4719,1.209
62.4729,1.209
62.4749,1.209
62.4759,1.214
62.4769,1.242
62.4789,1.242
62.4799,1.242
62.4809,1.238
62.4829,1.213
62.4839,1.21
62.4849,1.21
62.4869,1.21
62.4879,1.21
62.4913,1.21
62.4989,1.209
62.5069,1.209
62.5084,1.209
62.5108,1.209
62.5108,1.213
62.5118,1.242
62.5118,1.242
62.5118,1.242
62.5128,1.213
62.5128,1.21
62.5128,1.21
62.5138,1.21
62.5138,1.21
62.5148,1.209
62.5148,1.209
62.5148,1.209
62.5158,1.209
62.5158,1.209
62.5158,1.209
62.5168,1.211
62.5178,1.241
62.5188,1.242
62.5208,1.241
62.5218,1.213
62.5228,1.21
62.5248,1.21
62.5258,1.209
62.5268,1.21
62.5288,1.21
62.5298,1.209
62.5311,1.209
62.5328,1.209
62.5338,1.209
62.5358,1.209
62.5368,1.21
62.5378,1.242
62.5398,1.242
62.5408,1.242
62.5418,1.214
62.5438,1.21
62.5448,1.209
62.5457,1.21
62.5477,1.21
62.5487,1.209
62.5497,1.209
62.5517,1.209
62.5527,1.209
62.5537,1.209
62.5557,1.21
62.5567,1.24
62.5577,1.242
62.5597,1.242
62.5607,1.242
62.5627,1.216
62.5637,1.21
62.5647,1.21
62.5667,1.209
62.5677,1.209
62.5687,1.209
62.5707,1.209
62.5717,1.209
62.5727,1.209
62.5747,1.209
62.5757,1.21
62.5767,1.239
62.5787,1.242
62.5797,1.242
62.5807,1.242
62.5828,1.21
62.5836,1.21
62.5846,1.21
62.5866,1.209
62.5876,1.21
62.5896,1.209
62.5906,1.209
62.5916,1.209
62.5936,1.209
62.5948,1.21
62.5958,1.209
62.5968,1.236
62.5999,1.242
62.6038,1.242
62.6168,1.222
62.6207,1.21
62.6211,1.21
62.6211,1.21
62.6217,1.209
62.6217,1.21
62.6217,1.209
62.6217,1.209
62.6217,1.209
62.6227,1.209
62.6227,1.209
62.6227,1.209
62.6227,1.233
62.6227,1.242
62.6237,1.242
62.6237,1.224
62.6237,1.21
62.6237,1.21
62.6257,1.209
62.6267,1.209
62.6287,1.209
62.6297,1.209
62.6307,1.209
62.6327,1.209
62.6337,1.209
62.6347,1.209
62.6367,1.209
62.6377,1.242
62.6387,1.242
62.6409,1.242
62.6419,1.227
62.6429,1.211
62.6440,1.21
62.6459,1.21
62.6469,1.21
62.6489,1.209
62.6499,1.209
62.6509,1.209
62.6529,1.209
62.6539,1.209
62.6549,1.209
62.6569,1.23
62.6578,1.242
62.6588,1.242
62.6608,1.242
62.6618,1.229
62.6628,1.212
62.6648,1.21
62.6658,1.21
62.6678,1.209
62.6688,1.209
62.6698,1.209
62.6718,1.209
62.6728,1.209
62.6738,1.209
62.6758,1.21
62.6768,1.228
62.6778,1.242
62.6798,1.242
62.6808,1.242
62.6818,1.214
62.6838,1.21
62.6848,1.21
62.6858,1.21
62.6878,1.209
62.6888,1.209
62.6898,1.209
62.6918,1.209
62.6928,1.209
62.6947,1.209
62.6957,1.21
62.6967,1.226
62.6987,1.242
62.6997,1.242
62.7007,1.23
62.7027,1.215
62.7037,1.21
62.7047,1.21
62.7067,1.209
62.7107,1.209
62.7187,1.209
62.7257,1.209
62.7297,1.209
62.7307,1.209
62.7307,1.209
62.7307,1.209
62.7316,1.224
62.7316,1.242
62.7326,1.242
62.7326,1.232
62.7326,1.216
62.7336,1.21
62.7336,1.21
62.7336,1.21
62.7346,1.21
62.7346,1.209
62.7346,1.209
62.7346,1.209
62.7346,1.209
62.7356,1.209
62.7356,1.209
62.7379,1.242
62.7386,1.242
62.7396,1.242
62.7416,1.234
62.7426,1.218
62.7436,1.21
62.7456,1.21
62.7466,1.21
62.7476,1.209
62.7496,1.21
62.7506,1.209
62.7516,1.209
62.7537,1.209
62.7546,1.209
62.7566,1.22
62.7576,1.242
62.7586,1.242
62.7606,1.242
62.7616,1.237
62.7626,1.219
62.7646,1.209
62.7656,1.21
62.7666,1.209
62.7686,1.209
62.7695,1.209
62.7705,1.209
62.7725,1.209
62.7736,1.209
62.7745,1.21
62.7765,1.218
62.7778,1.242
62.7785,1.242
62.7805,1.242
62.7815,1.22
62.7825,1.21
62.7845,1.209
62.7855,1.209
62.7865,1.21
62.7885,1.209
62.7895,1.209
62.7905,1.209
62.7925,1.209
62.7935,1.209
62.7955,1.21
62.7965,1.216
62.7975,1.242
62.7996,1.242
62.8005,1.241
62.8015,1.221
62.8035,1.21
62.8045,1.21
62.8055,1.21
62.8074,1.21
62.8084,1.209
62.8094,1.209
62.8114,1.209
62.8124,1.209
62.8134,1.209
62.8156,1.21
62.8195,1.214
62.8264,1.242
62.8354,1.242
62.8384,1.242
62.8384,1.222
62.8384,1.21
62.8384,1.21
62.8394,1.209
62.8394,1.209
62.8394,1.209
62.8394,1.209
62.8394,1.209
62.8404,1.209
62.8404,1.209
62.8404,1.21
62.8404,1.242
62.8404,1.242
62.8414,1.242
62.8414,1.242
62.8424,1.223
62.8433,1.21
62.8443,1.21
62.8463,1.209
62.8477,1.209
62.8483,1.209
62.8503,1.209
62.8513,1.21
62.8523,1.209
62.8543,1.21
62.8553,1.211
62.8563,1.241
62.8583,1.242
62.8593,1.242
62.8603,1.242
62.8623,1.225
62.8633,1.21
62.8653,1.21
62.8663,1.209
62.8673,1.209
62.8693,1.209
62.8703,1.209
62.8713,1.209
62.8733,1.21
62.8743,1.21
62.8773,1.21
62.8783,1.242
62.8804,1.242
62.8814,1.227
62.8824,1.21
62.8844,1.21
62.8854,1.21
62.8864,1.209
62.8884,1.209
62.8894,1.209
62.8904,1.209
62.8925,1.209
62.8935,1.209
62.8945,1.21
62.8965,1.209
62.8975,1.242
62.8985,1.242
62.9005,1.242
62.9015,1.23
62.9025,1.211
62.9046,1.21
62.9056,1.209
62.9076,1.209
62.9086,1.209
62.9096,1.209
62.9116,1.209
62.9126,1.209
62.9136,1.209
62.9157,1.209
62.9167,1.236
62.9177,1.242
62.9197,1.242
62.9207,1.242
62.9217,1.231
62.9237,1.212
62.9250,1.21
62.9287,1.209
62.9357,1.209
62.9422,1.209
62.9447,1.209
62.9447,1.21
62.9457,1.209
62.9457,1.209
62.9457,1.21
62.9457,1.234
62.9467,1.242
62.9467,1.242
62.9467,1.242
62.9477,1.232
62.9477,1.209
62.9477,1.209
62.9477,1.21
62.9487,1.21
62.9487,1.209
62.9507,1.209
62.9517,1.209
62.9528,1.21
62.9548,1.209
62.9558,1.209
62.9568,1.231
62.9589,1.242
62.9599,1.242
62.9608,1.232
62.9626,1.214
62.9637,1.209
62.9648,1.21
62.9667,1.21
62.9677,1.21
62.9687,1.21
62.9709,1.209
62.9719,1.21
62.9736,1.209
62.9747,1.209
62.9756,1.209
62.9777,1.229
62.9787,1.242
62.9797,1.242
62.9818,1.232
62.9829,1.216
62.9838,1.21
62.9856,1.209
62.9867,1.209
62.9878,1.209
62.9897,1.209
62.9907,1.209
62.9917,1.209
62.9939,1.21
62.9949,1.209
62.9959,1.209
62.9976,1.242
62.9986,1.242
62.9998,1.242
63.0017,1.232
63.0027,1.217
63.0037,1.21
63.0059,1.21
63.0069,1.209
63.0079,1.21
63.0097,1.209
63.0107,1.209
63.0118,1.209
63.0137,1.209
63.0147,1.209
63.0167,1.226
63.0177,1.242
63.0187,1.242
63.0197,1.242
63.0217,1.233
63.0228,1.219
63.0247,1.21
63.0257,1.209
63.0267,1.209
63.0287,1.209
63.0297,1.209
63.0307,1.209
63.0327,1.209
63.0339,1.209
63.0350,1.209
63.0389,1.224
63.0540,1.242
63.0584,1.242
63.0584,1.242
63.0591,1.235
63.0591,1.221
63.0591,1.21
63.0601,1.209
63.0601,1.209
63.0601,1.209
63.0612,1.209
63.0613,1.209
63.0613,1.209
63.0613,1.209
63.0623,1.209
63.0623,1.222
63.0623,1.242
63.0633,1.242
63.0633,1.242
63.0633,1.237
63.0642,1.209
63.0648,1.209
63.0653,1.21
63.0665,1.21
63.0687,1.209
63.0697,1.209
63.0707,1.209
63.0728,1.209
63.0738,1.209
63.0748,1.209
63.0768,1.22
63.0779,1.242
63.0789,1.242
63.0807,1.242
63.0819,1.225
63.0827,1.21
63.0847,1.21
63.0857,1.209
63.0867,1.209
63.0887,1.209
63.0898,1.209
63.0917,1.21
63.0927,1.209
63.0937,1.209
63.0958,1.21
63.0969,1.218
63.0979,1.242
63.0997,1.242
63.1007,1.241
63.1019,1.226
63.1037,1.21
63.1047,1.209
63.1057,1.21
63.1079,1.21
63.1087,1.209
63.1097,1.209
63.1117,1.209
63.1127,1.209
63.1138,1.209
63.1157,1.21
63.1167,1.216
63.1177,1.242
63.1198,1.242
63.1209,1.242
63.1219,1.227
63.1237,1.21
63.1247,1.21
63.1259,1.209
63.1279,1.21
63.1288,1.209
63.1298,1.209
63.1319,1.209
63.1330,1.209
63.1340,1.209
63.1357,1.21
63.1367,1.214
63.1379,1.242
63.1397,1.242
63.1407,1.242
63.1417,1.229
63.1438,1.21
63.1477,1.209
63.1547,1.209
63.1649,1.209
63.1669,1.209
63.1682,1.209
63.1682,1.209
63.1682,1.209
63.1691,1.209
63.1691,1.21
63.1691,1.242
63.1701,1.242
63.1701,1.242
63.1701,1.242
63.1711,1.232
63.1711,1.21
63.1711,1.21
63.1721,1.209
63.1721,1.209
63.1721,1.209
63.1731,1.209
63.1731,1.209
63.1731,1.209
63.1742,1.21
63.1753,1.211
63.1763,1.242
63.1787,1.242
63.1794,1.242
63.1815,1.242
63.1824,1.233
63.1834,1.21
63.1857,1.209
63.1867,1.209
63.1877,1.209
63.1897,1.209
63.1910,1.209
63.1919,1.21
63.1931,1.209
63.1949,1.21
63.1960,1.21
63.1976,1.241
63.1986,1.242
63.1996,1.242
63.2018,1.235
63.2028,1.213
63.2038,1.209
63.2051,1.21
63.2071,1.209
63.2072,1.209
63.2097,1.21
63.2107,1.209
63.2117,1.209
63.2137,1.209
63.2147,1.209
63.2167,1.21
63.2177,1.239
63.2189,1.242
63.2207,1.242
63.2217,1.237
63.2227,1.214
63.2249,1.21
63.2259,1.21
63.2269,1.209
63.2287,1.209
63.2297,1.21
63.2308,1.209
63.2328,1.209
63.2338,1.209
63.2348,1.21
63.2369,1.21
63.2370,1.242
63.2380,1.242
63.2400,1.242
63.2411,1.238
63.2432,1.217
63.2440,1.21
63.2462,1.209
63.2470,1.209
63.2490,1.209
63.2500,1.209
63.2510,1.209
63.2520,1.209
63.2600,1.209
63.2739,1.209
63.2869,1.236
63.2910,1.242
63.2920,1.242
63.2920,1.242
63.2920,1.237
63.2930,1.22
63.2930,1.209
63.2930,1.209
63.2930,1.209
63.2940,1.209
63.2940,1.209
63.2940,1.209
63.2950,1.209
63.2950,1.209
63.2950,1.21
63.2961,1.234
63.2961,1.242
63.2961,1.242
63.2971,1.242
63.2971,1.237
63.2981,1.21
63.2981,1.209
63.2993,1.209
63.2993,1.209
63.3001,1.209
63.3012,1.21
63.3012,1.209
63.3023,1.209
63.3023,1.209
63.3034,1.211
63.3034,1.232
63.3034,1.242
63.3042,1.242
63.3042,1.238
63.3042,1.225
63.3052,1.21
63.3062,1.209
63.3062,1.209
63.3073,1.209
63.3086,1.209
63.3103,1.209
63.3113,1.21
63.3123,1.209
63.3151,1.209
63.3154,1.21
63.3174,1.23
63.3184,1.242
63.3194,1.242
63.3214,1.238
63.3224,1.227
63.3241,1.209
63.3256,1.209
63.3266,1.21
63.3276,1.209
63.3296,1.209
63.3306,1.209
63.3321,1.21
63.3336,1.209
63.3345,1.209
63.3355,1.21
63.3377,1.242
63.3387,1.242
63.3397,1.242
63.3417,1.238
63.3427,1.229
63.3438,1.21
63.3458,1.21
63.3468,1.209
63.3478,1.209
63.3499,1.209
63.3508,1.209
63.3528,1.21
63.3538,1.209
63.3548,1.209
63.3559,1.226
63.3579,1.242
63.3589,1.242
63.3630,1.242
63.3659,1.239
63.3781,1.231
63.3880,1.209
63.3906,1.209
63.3911,1.209
63.3911,1.209
63.3921,1.209
63.3921,1.209
63.3921,1.209
63.3931,1.209
63.3931,1.21
63.3931,1.224
63.3941,1.242
63.3945,1.242
63.3951,1.242
63.3951,1.241
63.3951,1.209
63.3962,1.21
63.3962,1.209
63.3972,1.209
63.3972,1.209
63.3982,1.21
63.3982,1.209
63.3992,1.209
63.3992,1.209
63.3992,1.21
63.4002,1.222
63.4002,1.242
63.4013,1.242
63.4022,1.242
63.4022,1.234
63.4037,1.209
63.4042,1.21
63.4051,1.21
63.4072,1.209
63.4081,1.209
63.4091,1.209
63.4112,1.209
63.4121,1.209
63.4142,1.209
63.4152,1.21
63.4162,1.22
63.4182,1.242
63.4193,1.242
63.4203,1.242
63.4223,1.236
63.4233,1.21
63.4243,1.209
63.4264,1.209
63.4274,1.209
63.4284,1.209
63.4304,1.209
63.4314,1.209
63.4324,1.209
63.4344,1.209
63.4354,1.211
63.4366,1.242
63.4386,1.242
63.4396,1.242
63.4406,1.242
63.4427,1.238
63.4437,1.21
63.4447,1.21
63.4467,1.21
63.4478,1.209
63.4488,1.209
63.4508,1.209
63.4519,1.209
63.4528,1.209
63.4549,1.211
63.4559,1.217
63.4569,1.242
63.4589,1.242
63.4600,1.242
63.4610,1.242
63.4630,1.239
63.4630,1.209
63.4650,1.209
63.4661,1.21
63.4724,1.209
63.4945,1.209
63.4999,1.209
63.4999,1.209
63.5007,1.209
63.5007,1.211
63.5017,1.215
63.5020,1.242
63.5020,1.242
63.5027,1.242
63.5027,1.242
63.5027,1.213
63.5037,1.21
63.5037,1.209
63.5043,1.209
63.5047,1.21
63.5047,1.209
63.5047,1.21
63.5058,1.209
63.5063,1.209
63.5068,1.211
63.5068,1.213
63.5068,1.242
63.5078,1.242
63.5078,1.242
63.5078,1.24
63.5088,1.215
63.5088,1.21
63.5088,1.209
63.5098,1.209
63.5098,1.209
63.5098,1.21
63.5108,1.21
63.5129,1.21
63.5139,1.21
63.5152,1.212
63.5169,1.213
63.5180,1.242
63.5190,1.242
63.5200,1.242
63.5210,1.241
63.5230,1.217
63.5250,1.209
63.5260,1.209
63.5270,1.21
63.5291,1.209
63.5301,1.209
63.5311,1.209
63.5321,1.209
63.5331,1.21
63.5351,1.21
63.5372,1.241
63.5382,1.242
63.5392,1.242
63.5402,1.242
63.5412,1.241
63.5432,1.22
63.5462,1.209
63.5476,1.209
63.5484,1.21
63.5504,1.209
63.5514,1.209
63.5524,1.209
63.5545,1.21
63.5555,1.211
63.5568,1.239
63.5587,1.242
63.5597,1.242
63.5607,1.242
63.5627,1.223
63.5637,1.209
63.5657,1.209
63.5663,1.21
63.5673,1.209
63.5693,1.209
63.5703,1.209
63.5713,1.21
63.5734,1.209
63.5743,1.209
63.5804,1.212
63.5818,1.237
63.6004,1.242
63.6053,1.242
63.6058,1.24
63.6058,1.225
63.6063,1.209
63.6063,1.21
63.6063,1.21
63.6073,1.209
63.6083,1.209
63.6083,1.209
63.6095,1.209
63.6105,1.209
63.6115,1.209
63.6115,1.213
63.6115,1.236
63.6125,1.242
63.6125,1.242
63.6135,1.241
63.6135,1.226
63.6148,1.209
63.6148,1.21
63.6155,1.209
63.6165,1.209
63.6165,1.209
63.6175,1.209
63.6175,1.209
63.6185,1.209
63.6185,1.209
63.6195,1.234
63.6195,1.242
63.6205,1.242
63.6205,1.242
63.6215,1.241
63.6225,1.228
63.6245,1.209
63.6255,1.21
63.6275,1.21
63.6284,1.209
63.6294,1.209
63.6304,1.209
63.6324,1.209
63.6334,1.21
63.6354,1.213
63.6364,1.232
63.6374,1.242
63.6395,1.242
63.6404,1.242
63.6414,1.241
63.6434,1.209
63.6444,1.209
63.6454,1.209
63.6476,1.209
63.6484,1.209
63.6494,1.209
63.6514,1.209
63.6524,1.209
63.6534,1.209
63.6555,1.212
63.6564,1.231
63.6574,1.242
63.6594,1.242
63.6604,1.242
63.6624,1.234
63.6634,1.21
63.6644,1.209
63.6663,1.209
63.6673,1.209
63.6683,1.21
63.6705,1.209
63.6713,1.209
63.6723,1.209
63.6743,1.209
63.6753,1.212
63.6763,1.23
63.6783,1.242
63.6793,1.242
63.6803,1.242
63.6823,1.236
63.6833,1.209
63.6843,1.209
63.6883,1.209
63.6903,1.209
63.6993,1.209
63.7132,1.209
63.7168,1.209
63.7172,1.209
63.7172,1.209
63.7172,1.212
63.7182,1.228
63.7182,1.242
63.7182,1.242
63.7182,1.242
63.7192,1.238
63.7192,1.209
63.7192,1.21
63.7192,1.21
63.7202,1.209
63.7202,1.209
63.7202,1.209
63.7202,1.209
63.7212,1.209
63.7212,1.209
63.7212,1.211
63.7222,1.226
63.7222,1.242
63.7222,1.242
63.7222,1.242
63.7232,1.24
63.7232,1.209
63.7252,1.209
63.7262,1.209
63.7272,1.209
63.7282,1.209
63.7302,1.209
63.7316,1.209
63.7332,1.21
63.7342,1.209
63.7352,1.211
63.7372,1.242
63.7382,1.242
63.7392,1.242
63.7412,1.242
63.7421,1.241
63.7431,1.21
63.7451,1.209
63.7461,1.209
63.7471,1.209
63.7492,1.209
63.7501,1.209
63.7511,1.209
63.7532,1.209
63.7541,1.209
63.7551,1.22
63.7571,1.242
63.7581,1.242
63.7591,1.242
63.7611,1.242
63.7621,1.241
63.7631,1.211
63.7651,1.209
63.7661,1.209
63.7671,1.209
63.7693,1.209
63.7701,1.209
63.7718,1.21
63.7731,1.21
63.7751,1.211
63.7751,1.218
63.7776,1.242
63.7781,1.242
63.7790,1.242
63.7812,1.242
63.7822,1.241
63.7832,1.209
63.7852,1.209
63.7862,1.209
63.7873,1.209
63.7893,1.21
63.7903,1.209
63.7913,1.209
63.7933,1.21
63.7943,1.212
63.7996,1.217
63.8158,1.242
63.8194,1.242
63.8198,1.242
63.8198,1.242
63.8198,1.216
63.8208,1.209
63.8208,1.209
63.8208,1.209
63.8218,1.209
63.8218,1.209
63.8218,1.209
63.8229,1.209
63.8229,1.21
63.8229,1.213
63.8229,1.215
63.8239,1.242
63.8239,1.242
63.8239,1.242
63.8249,1.241
63.8249,1.219
63.8249,1.209
63.8259,1.209
63.8269,1.209
63.8293,1.209
63.8293,1.209
63.8314,1.21
63.8323,1.209
63.8333,1.21
63.8370,1.212
63.8370,1.214
63.8370,1.242
63.8404,1.242
63.8404,1.242
63.8414,1.242
63.8449,1.221
63.8456,1.209
63.8456,1.209
63.8477,1.209
63.8487,1.209
63.8497,1.209
63.8520,1.209
63.8528,1.21
63.8538,1.21
63.8558,1.211
63.8571,1.241
63.8578,1.242
63.8598,1.242
63.8608,1.242
63.8618,1.242
63.8639,1.224
63.8649,1.21
63.8659,1.21
63.8679,1.209
63.8690,1.21
63.8705,1.209
63.8720,1.209
63.8730,1.209
63.8740,1.21
63.8752,1.214
63.8770,1.24
63.8786,1.242
63.8791,1.242
63.8801,1.242
63.8826,1.241
63.8832,1.209
63.8842,1.209
63.8862,1.209
63.8873,1.209
63.8888,1.209
63.8903,1.209
63.8913,1.21
63.8927,1.21
63.8946,1.21
63.8953,1.216
63.8963,1.238
63.8984,1.242
63.8993,1.242
63.9013,1.242
63.9023,1.227
63.9093,1.209
63.9183,1.209
63.9296,1.209
63.9346,1.209
63.9346,1.209
63.9357,1.209
63.9367,1.21
63.9367,1.21
63.9367,1.21
63.9376,1.217
63.9376,1.238
63.9376,1.242
63.9387,1.242
63.9387,1.241
63.9387,1.229
63.9397,1.209
63.9397,1.209
63.9397,1.209
63.9407,1.209
63.9407,1.21
63.9407,1.209
63.9417,1.209
63.9417,1.21
63.9417,1.21
63.9427,1.217
63.9427,1.236
63.9427,1.242
63.9427,1.242
63.9439,1.242
63.9439,1.232
63.9439,1.209
63.9468,1.209
63.9468,1.209
63.9488,1.209
63.9503,1.209
63.9508,1.21
63.9539,1.21
63.9539,1.21
63.9550,1.21
63.9574,1.235
63.9574,1.242
63.9584,1.242
63.9615,1.242
63.9615,1.242
63.9626,1.235
63.9651,1.209
63.9651,1.21
63.9686,1.209
63.9686,1.209
63.9696,1.209
63.9719,1.21
63.9724,1.21
63.9733,1.21
63.9769,1.214
63.9776,1.233
63.9776,1.242
63.9796,1.242
63.9812,1.242
63.9815,1.242
63.9837,1.209
63.9847,1.209
63.9857,1.209
63.9882,1.21
63.9889,1.209
63.9899,1.209
63.9929,1.21
63.9929,1.21
63.9939,1.21
63.9962,1.214
63.9970,1.232
64.0000,1.242
64.0002,1.242
64.0002,1.242
64.0040,1.239
64.0040,1.209
64.0051,1.21
64.0069,1.209
64.0079,1.209
64.0089,1.209
64.0105,1.21
64.0123,1.21
64.0133,1.21
64.0159,1.21
64.0170,1.213
64.0170,1.23
64.0201,1.242
64.0201,1.242
64.0211,1.242
64.0240,1.241
64.0240,1.21
64.0251,1.209
64.0310,1.209
64.0442,1.21
64.0586,1.209
64.0656,1.21
64.0666,1.21
64.0676,1.21
64.0676,1.21
64.0689,1.213
64.0689,1.242
64.0699,1.242
64.0699,1.242
64.0709,1.242
64.0709,1.242
64.0719,1.21
64.0719,1.209
64.0729,1.209
64.0729,1.209
64.0738,1.209
64.0748,1.209
64.0750,1.21
64.0750,1.21
64.0761,1.214
64.0761,1.226
64.0771,1.242
64.0771,1.242
64.0780,1.242
64.0780,1.242
64.0790,1.242
64.0790,1.21
64.0802,1.209
64.0812,1.209
64.0822,1.209
64.0832,1.209
64.0832,1.21
64.0842,1.21
64.0842,1.21
64.0852,1.214
64.0852,1.224
64.0864,1.242
64.0864,1.242
64.0874,1.242
64.0874,1.242
64.0884,1.214
64.0884,1.209
64.0894,1.209
64.0904,1.209
64.0904,1.209
64.0914,1.209
64.0914,1.21
64.0926,1.21
64.0936,1.21
64.0946,1.215
64.0968,1.222
64.0979,1.242
64.0989,1.242
64.1019,1.242
64.1030,1.242
64.1031,1.217
64.1052,1.209
64.1061,1.209
64.1085,1.209
64.1091,1.209
64.1101,1.21
64.1129,1.21
64.1138,1.21
64.1138,1.21
64.1170,1.215
64.1170,1.221
64.1181,1.242
64.1212,1.242
64.1212,1.242
64.1223,1.242
64.1247,1.219
64.1247,1.209
64.1257,1.209
64.1287,1.209
64.1287,1.209
64.1307,1.21
64.1318,1.21
64.1327,1.21
64.1349,1.21
64.1357,1.215
64.1409,1.242
64.1470,1.242
64.1653,1.242
64.1705,1.242
64.1715,1.242
64.1715,1.222
64.1725,1.209
64.1725,1.209
64.1735,1.209
64.1735,1.209
64.1745,1.21
64.1745,1.21
64.1755,1.21
64.1757,1.213
64.1757,1.217
64.1767,1.242
64.1767,1.242
64.1777,1.242
64.1777,1.242
64.1777,1.242
64.1787,1.209
64.1787,1.209
64.1797,1.209
64.1797,1.209
64.1807,1.209
64.1815,1.209
64.1816,1.21
64.1826,1.21
64.1826,1.211
64.1837,1.217
64.1837,1.242
64.1847,1.242
64.1847,1.242
64.1847,1.242
64.1857,1.226
64.1857,1.209
64.1868,1.209
64.1868,1.209
64.1878,1.209
64.1901,1.209
64.1911,1.21
64.1940,1.21
64.1940,1.21
64.1951,1.211
64.1977,1.219
64.1991,1.241
64.1998,1.242
64.2010,1.242
64.2018,1.242
64.2028,1.227
64.2053,1.209
64.2053,1.209
64.2063,1.209
64.2097,1.21
64.2097,1.21
64.2107,1.21
64.2129,1.21
64.2162,1.21
64.2167,1.24
64.2177,1.242
64.2214,1.242
64.2214,1.242
64.2222,1.242
64.2250,1.23
64.2260,1.209
64.2260,1.21
64.2283,1.209
64.2292,1.209
64.2302,1.21
64.2326,1.21
64.2326,1.21
64.2361,1.21
64.2361,1.22
64.2371,1.239
64.2394,1.242
64.2394,1.242
64.2403,1.242
64.2436,1.241
64.2438,1.209
64.2487,1.209
64.2609,1.209
64.2743,1.209
64.2785,1.209
64.2785,1.21
64.2793,1.209
64.2793,1.21
64.2803,1.21
64.2810,1.218
64.2813,1.238
64.2823,1.242
64.2823,1.242
64.2833,1.242
64.2833,1.235
64.2845,1.21
64.2845,1.209
64.2855,1.209
64.2855,1.209
64.2855,1.21
64.2865,1.211
64.2865,1.212
64.2875,1.212
64.2875,1.212
64.2885,1.222
64.2885,1.238
64.2894,1.242
64.2894,1.242
64.2906,1.242
64.2906,1.238
64.2906,1.209
64.2917,1.209
64.2927,1.209
64.2927,1.209
64.2927,1.21
64.2937,1.21
64.2937,1.211
64.2947,1.211
64.2947,1.21
64.2958,1.218
64.2974,1.242
64.2987,1.242
64.2994,1.242
64.3017,1.242
64.3027,1.24
64.3052,1.209
64.3058,1.209
64.3062,1.21
64.3100,1.209
64.3100,1.21
64.3111,1.21
64.3135,1.21
64.3142,1.21
64.3145,1.21
64.3179,1.235
64.3187,1.242
64.3187,1.242
64.3215,1.242
64.3215,1.242
64.3226,1.241
64.3249,1.209
64.3259,1.209
64.3269,1.209
64.3302,1.209
64.3308,1.209
64.3312,1.21
64.3341,1.21
64.3351,1.21
64.3351,1.217
64.3372,1.235
64.3381,1.242
64.3409,1.242
64.3415,1.242
64.3423,1.242
64.3451,1.21
64.3451,1.209
64.3461,1.209
64.3490,1.209
64.3490,1.209
64.3500,1.209
64.3510,1.21
64.3570,1.21
64.3600,1.21
64.3702,1.218
64.3846,1.233
64.3883,1.242
64.3891,1.242
64.3891,1.242
64.3901,1.242
64.3901,1.212
64.3901,1.209
64.3911,1.209
64.3911,1.209
64.3921,1.209
64.3921,1.21
64.3931,1.21
64.3931,1.21
64.3943,1.21
64.3943,1.219
64.3953,1.231
64.3953,1.242
64.3953,1.242
64.3963,1.242
64.3963,1.242
64.3973,1.219
64.3983,1.209
64.3995,1.209
64.3995,1.209
64.4003,1.209
64.4003,1.21
64.4013,1.21
64.4013,1.211
64.4023,1.216
64.4023,1.237
64.4033,1.241
64.4033,1.229
64.4043,1.242
64.4043,1.242
64.4054,1.242
64.4054,1.215
64.4054,1.209
64.4065,1.209
64.4090,1.209
64.4100,1.21
64.4100,1.21
64.4116,1.21
64.4122,1.21
64.4142,1.21
64.4162,1.219
64.4162,1.241
64.4200,1.238
64.4200,1.242
64.4211,1.242
64.4234,1.242
64.4234,1.224
64.4245,1.21
64.4279,1.209
64.4288,1.209
64.4288,1.209
64.4308,1.21
64.4317,1.21
64.4327,1.21
64.4352,1.21
64.4357,1.217
64.4362,1.242
64.4404,1.242
64.4404,1.242
64.4414,1.242
64.4440,1.242
64.4450,1.221
64.4450,1.209
64.4474,1.209
64.4482,1.209
64.4482,1.209
64.4518,1.21
64.4525,1.21
64.4525,1.21
64.4550,1.211
64.4560,1.224
64.4572,1.242
64.4600,1.242
64.4600,1.242
64.4652,1.242
64.4773,1.242
64.4922,1.225
64.4954,1.209
64.4964,1.209
64.4964,1.209
64.4976,1.209
64.4976,1.21
64.4990,1.21
64.4990,1.21
64.4998,1.214
64.4998,1.224
64.5008,1.242
64.5008,1.242
64.5018,1.242
64.5018,1.242
64.5018,1.242
64.5028,1.209
64.5028,1.209
64.5038,1.209
64.5038,1.209
64.5050,1.209
64.5050,1.21
64.5060,1.21
64.5060,1.21
64.5060,1.212
64.5070,1.225
64.5070,1.242
64.5081,1.242
64.5081,1.242
64.5090,1.242
64.5090,1.227
64.5102,1.209
64.5102,1.209
64.5102,1.209
64.5112,1.21
64.5112,1.21
64.5122,1.21
64.5122,1.21
64.5141,1.21
64.5159,1.211
64.5161,1.225
64.5190,1.241
