86.1592,1.5053
86.1602,1.5021
86.1602,1.5786
86.1602,1.6028
86.1602,1.5233
86.1602,1.5349
86.1612,1.5336
86.1612,1.5167
86.1612,1.5392
86.1632,1.6169
86.1702,1.539
86.1702,1.5025
86.1772,1.5015
86.1772,1.4871
86.1772,1.4697
86.1792,1.4753
86.1822,1.5795
86.1822,1.5426
86.1831,1.4725
86.1831,1.479
86.1831,1.4873
86.1831,1.5017
86.1831,1.5505
86.1831,1.5314
86.1842,1.5094
86.1842,1.4522
86.1842,1.4498
86.1870,1.456
86.1870,1.4477
86.1870,1.6176
86.1870,1.5722
86.1870,1.4895
86.1934,1.4978
86.1934,1.5057
86.1934,1.5072
86.1934,1.5094
86.1943,1.6275
86.1993,1.6133
86.2003,1.5096
86.2003,1.5119
86.2003,1.5113
86.2078,1.5045
86.2078,1.5038
86.2078,1.6019
86.2078,1.5398
86.2078,1.5405
86.2136,1.5415
86.2142,1.5456
86.2162,1.5649
86.2172,1.6506
86.2211,1.7301
86.2301,1.6362
86.2311,1.51
86.2331,1.5139
86.2351,1.5164
86.2420,1.5034
86.2430,1.6315
86.2430,1.6071
86.2450,1.5464
86.2450,1.555
86.2450,1.5501
86.2450,1.5495
86.2450,1.5578
86.2460,1.6778
86.2460,1.5915
86.2460,1.5314
86.2460,1.5349
86.2460,1.5314
86.2460,1.5154
86.2470,1.5209
86.2470,1.6274
86.2480,1.5615
86.2480,1.5585
86.2550,1.5608
86.2550,1.5615
86.2550,1.5867
86.2550,1.6152
86.2550,1.7084
86.2614,1.5499
86.2614,1.5422
86.2614,1.5398
86.2622,1.5449
86.2685,1.5353
86.2685,1.7076
86.2685,1.7341
86.2685,1.5707
86.2685,1.5715
86.2748,1.5728
86.2748,1.5779
86.2748,1.5788
86.2748,1.7858
86.2816,1.7048
86.2816,1.5559
86.2816,1.5507
86.2816,1.5411
86.2816,1.5494
86.2881,1.5381
86.2881,1.6801
86.2881,1.5904
86.2881,1.5923
86.2881,1.6024
86.2941,1.5996
86.2951,1.6095
86.2951,1.6202
86.2951,1.6887
86.3021,1.5925
86.3021,1.5891
86.3021,1.5784
86.3021,1.5552
86.3028,1.5171
86.3104,1.5848
86.3104,1.3671
86.3104,1.3523
86.3104,1.3215
86.3177,1.2884
86.3177,1.2767
86.3177,1.3637
86.3177,1.3035
86.3177,1.2544
86.3236,1.5507
86.3236,1.6384
86.3236,1.6157
86.3236,1.584
86.3335,1.8329
86.3335,1.714
86.3395,1.7301
86.3405,2.029
86.3414,2.089
86.3424,2.089
86.3424,2.0622
86.3424,2.0551
86.3424,1.9759
86.3424,1.9699
86.3435,1.9551
86.3435,1.9621
86.3435,1.9266
86.3445,1.9624
86.3504,1.9838
86.3514,1.8542
86.3514,1.8284
86.3514,1.8051
86.3524,1.7689
86.3574,1.7507
86.3574,1.7616
86.3574,1.7344
86.3584,1.6037
86.3643,1.5833
86.3643,1.5694
86.3643,1.5638
86.3653,1.6039
86.3653,1.6234
86.3703,1.594
86.3713,1.5814
86.3713,1.5713
86.3713,1.5707
86.3785,1.5769
86.3785,1.6472
86.3785,1.6118
86.3785,1.5347
86.3785,1.5233
86.3848,1.5165
86.3848,1.5214
86.3848,1.5102
86.3848,1.603
86.3848,1.5944
86.3908,1.5447
86.3918,1.5552
86.3918,1.5439
86.3918,1.5265
86.3991,1.5385
86.3991,1.6185
86.3991,1.5132
86.3991,1.504
86.3991,1.5044
86.4053,1.5012
86.4053,1.4959
86.4053,1.536
86.4053,1.6797
86.4127,1.5231
86.4127,1.5235
86.4127,1.5274
86.4127,1.5312
86.4137,1.5675
86.4189,1.7228
86.4189,1.7511
86.4189,1.5242
86.4189,1.5004
86.4261,1.5019
86.4261,1.4969
86.4261,1.4948
86.4261,1.7251
86.4261,1.5994
86.4324,1.5321
86.4324,1.5295
86.4324,1.5263
86.4324,1.5467
86.4324,1.54
86.4424,1.6666
86.4483,1.53
86.4493,1.506
86.4513,1.5002
86.4513,1.4927
86.4513,1.4961
86.4513,1.5244
86.4524,1.6049
86.4524,1.5195
86.4524,1.5158
86.4524,1.5195
86.4524,1.5255
86.4524,1.5417
86.4600,1.6129
86.4600,1.6249
86.4600,1.5284
86.4600,1.4991
86.4600,1.4989
86.4660,1.515
86.4660,1.5047
86.4666,1.5947
86.4666,1.6319
86.4732,1.5297
86.4732,1.5235
86.4732,1.5252
86.4732,1.54
86.4732,1.5679
86.4797,1.7095
86.4797,1.5587
86.4797,1.5115
86.4807,1.5032
86.4807,1.5139
86.4856,1.5002
86.4866,1.5132
86.4866,1.5983
86.4866,1.5173
86.4940,1.5145
86.4940,1.5184
86.4940,1.5239
86.4940,1.5439
86.4940,1.6675
86.5001,1.7446
86.5001,1.5104
86.5001,1.5032
86.5001,1.4965
86.5075,1.4924
86.5075,1.5075
86.5075,1.5942
86.5075,1.6482
86.5075,1.5164
86.5132,1.5195
86.5132,1.5199
86.5142,1.5242
86.5142,1.53
86.5207,1.7318
86.5207,1.5765
86.5207,1.4807
86.5207,1.4882
86.5207,1.4869
86.5270,1.4792
86.5270,1.4802
86.5270,1.6531
86.5270,1.4864
86.5270,1.4837
86.5340,1.486
86.5340,1.4967
86.5340,1.4929
86.5350,1.527
86.5410,1.5379
86.5410,1.4552
86.5410,1.4502
86.5410,1.4445
86.5410,1.4459
86.5520,1.4425
86.5570,1.537
86.5580,1.5284
86.5600,1.4689
86.5600,1.4706
86.5600,1.4642
86.5610,1.4744
86.5610,1.516
86.5610,1.5336
86.5610,1.4822
86.5610,1.4438
86.5610,1.4327
86.5620,1.4295
86.5681,1.423
86.5681,1.423
86.5681,1.5327
86.5681,1.45
86.5681,1.4511
86.5743,1.4549
86.5743,1.452
86.5743,1.4541
86.5743,1.5449
86.5743,1.6433
86.5813,1.443
86.5813,1.4455
86.5813,1.4475
86.5813,1.4365
86.5883,1.4342
86.5883,1.5366
86.5883,1.5516
86.5893,1.4952
86.5893,1.4946
86.5943,1.4984
86.5943,1.5017
86.5953,1.5709
86.5953,1.5964
86.6020,1.5437
86.6020,1.5004
86.6020,1.5081
86.6020,1.5141
86.6020,1.5096
86.6083,1.5162
86.6083,1.7232
86.6083,1.5379
86.6083,1.548
86.6154,1.5597
86.6154,1.5709
86.6154,1.5818
86.6154,1.63
86.6162,1.6801
86.6216,1.5621
86.6216,1.5591
86.6216,1.554
86.6216,1.5477
86.6216,1.5537
86.6286,1.735
86.6286,1.7837
86.6286,1.5846
86.6286,1.5987
86.6362,1.5923
86.6362,1.5972
86.6368,1.6435
86.6368,1.7335
86.6368,1.7114
86.6422,1.5722
86.6422,1.5707
86.6422,1.5735
86.6422,1.581
86.6497,1.7357
86.6497,1.8177
86.6497,1.6191
86.6497,1.599
86.6497,1.6073
86.6588,1.6174
86.6658,1.632
86.6678,1.7522
86.6678,1.7462
86.6678,1.5989
86.6678,1.5876
86.6689,1.5854
86.6689,1.578
86.6689,1.5824
86.6689,1.6529
86.6689,1.6118
86.6689,1.6005
86.6699,1.6105
86.6699,1.6028
86.6758,1.6039
86.6758,1.6427
86.6758,1.6996
86.6768,1.5842
86.6838,1.5795
86.6838,1.576
86.6842,1.5773
86.6842,1.5704
86.6842,1.6861
86.6902,1.6562
86.6902,1.6058
86.6902,1.6045
86.6902,1.5942
86.6968,1.6101
86.6975,1.6405
86.6975,1.7382
86.6975,1.6896
86.6975,1.5835
86.7035,1.5737
86.7035,1.5687
86.7035,1.5589
86.7035,1.6592
86.7109,1.8027
86.7109,1.6619
86.7109,1.5899
86.7109,1.59
86.7109,1.5869
86.7172,1.6005
86.7172,1.5945
86.7172,1.6797
86.7172,1.5662
86.7172,1.5649
86.7233,1.5692
86.7233,1.5662
86.7243,1.5555
86.7243,1.6028
86.7313,1.5919
86.7313,1.5754
86.7313,1.5833
86.7313,1.5829
86.7313,1.5923
86.7378,1.599
86.7378,1.7556
86.7378,1.6529
86.7378,1.5563
86.7449,1.5486
86.7449,1.5525
86.7449,1.5546
86.7449,1.639
86.7449,1.783
86.7511,1.657
86.7511,1.572
86.7511,1.575
86.7511,1.5827
86.7583,1.6041
86.7583,1.7539
86.7583,1.7046
86.7583,1.5777
86.7583,1.5627
86.7648,1.5544
86.7709,1.5548
86.7791,1.542
86.7811,1.7524
86.7811,1.6812
86.7821,1.5788
86.7821,1.5837
86.7821,1.5822
86.7821,1.575
86.7821,1.5809
86.7821,1.6812
86.7831,1.564
86.7831,1.555
86.7831,1.5542
86.7853,1.5559
86.7853,1.5486
86.7853,1.5788
86.7861,1.6379
86.7922,1.588
86.7922,1.5801
86.7922,1.5936
86.7932,1.5921
86.7932,1.5784
86.7989,1.6559
86.7989,1.6621
86.7989,1.5765
86.7989,1.5657
86.8062,1.563
86.8062,1.5623
86.8062,1.5859
86.8062,1.7457
86.8062,1.6825
86.8125,1.582
86.8125,1.5863
86.8125,1.59
86.8125,1.6212
86.8125,1.6208
86.8186,1.7963
86.8196,1.5854
86.8196,1.5692
86.8196,1.567
86.8267,1.5634
86.8267,1.5422
86.8267,1.5863
86.8267,1.7069
86.8267,1.5797
86.8331,1.5848
86.8331,1.594
86.8331,1.6011
86.8331,1.6257
86.8402,1.7198
86.8405,1.6212
86.8405,1.5801
86.8405,1.5747
86.8405,1.5683
86.8465,1.5717
86.8465,1.6039
86.8465,1.6832
86.8465,1.6692
86.8537,1.5906
86.8540,1.5964
86.8540,1.5975
86.8540,1.6039
86.8540,1.7117
86.8600,1.7674
86.8600,1.6309
86.8600,1.5647
86.8600,1.5554
86.8600,1.5593
86.8671,1.5615
86.8671,1.6982
86.8671,1.6639
86.8671,1.5835
86.8750,1.5951
86.8791,1.5902
86.8842,1.5775
86.8852,1.6015
86.8873,1.7581
86.8873,1.6439
86.8873,1.5825
86.8883,1.572
86.8883,1.5662
86.8883,1.5627
86.8883,1.566
86.8883,1.6465
86.8883,1.5925
86.8893,1.5945
86.8942,1.6019
86.8942,1.6064
86.8942,1.5904
86.8942,1.6795
86.9013,1.7843
86.9013,1.5855
86.9013,1.5837
86.9013,1.5844
86.9013,1.5773
86.9077,1.5724
86.9077,1.7841
86.9077,1.7142
86.9077,1.5914
86.9077,1.5977
86.9148,1.5985
86.9148,1.5974
86.9148,1.6484
86.9148,1.6954
86.9220,1.6124
86.9220,1.5784
86.9220,1.5632
86.9220,1.5539
86.9220,1.5419
86.9284,1.5383
86.9284,1.7176
86.9284,1.5552
86.9284,1.5561
86.9355,1.5602
86.9355,1.5644
86.9365,1.5604
86.9365,1.6334
86.9365,1.6313
86.9415,1.5375
86.9415,1.533
86.9415,1.5314
86.9425,1.5167
86.9486,1.5265
86.9486,1.6716
86.9486,1.6223
86.9496,1.5486
86.9496,1.5544
86.9546,1.5651
86.9546,1.569
86.9556,1.6157
86.9556,1.6182
86.9556,1.5859
86.9616,1.5681
86.9626,1.5713
86.9626,1.5818
86.9626,1.572
86.9695,1.7337
86.9695,1.7039
86.9695,1.6167
86.9695,1.6142
86.9705,1.6107
86.9756,1.6178
86.9756,1.6257
86.9756,1.7472
86.9766,1.6587
86.9826,1.6032
86.9826,1.5861
86.9826,1.5951
86.9856,1.581
86.9876,1.5854
86.9956,1.7052
87.0045,1.6101
87.0055,1.6133
87.0075,1.614
87.0085,1.6257
87.0085,1.6281
87.0085,1.7155
87.0085,1.7502
87.0095,1.6184
87.0095,1.6047
87.0095,1.6
87.0095,1.6032
87.0105,1.6028
87.0105,1.7462
87.0105,1.7596
87.0105,1.6208
87.0105,1.6296
87.0115,1.632
87.0165,1.6365
87.0175,1.6969
87.0175,1.7412
87.0175,1.7027
87.0175,1.6131
87.0235,1.6124
87.0235,1.6082
87.0235,1.6079
87.0235,1.6163
87.0287,1.7641
87.0287,1.6517
87.0287,1.6298
87.0287,1.6465
87.0287,1.6324
87.0378,1.6367
87.0388,1.6934
87.0388,1.7494
87.0388,1.6167
87.0448,1.5962
87.0458,1.6054
87.0458,1.6005
87.0458,1.7483
87.0458,1.6765
87.0518,1.6549
87.0518,1.6673
87.0518,1.6465
87.0528,1.6416
87.0528,1.7041
87.0587,1.7839
87.0587,1.7477
87.0587,1.6255
87.0597,1.5951
87.0657,1.5642
87.0657,1.4685
87.0667,1.5044
87.0667,1.5252
87.0667,1.3934
87.0717,1.2805
87.0727,1.2608
87.0727,1.2537
87.0727,1.257
87.0787,1.2912
87.0797,1.2747
87.0797,1.273
87.0797,1.4695
87.0807,1.6345
87.0857,1.599
87.0857,1.5709
87.0857,1.7044
87.0867,1.8126
87.0936,1.9013
87.0956,2.0397
87.0977,2.1145
87.1046,2.1143
87.1106,2.1919
87.1106,2.2645
87.1106,2.0598
87.1116,2.0324
87.1116,2.0179
87.1116,2.0121
87.1116,1.9609
87.1126,2.0318
87.1126,2.023
87.1126,1.9208
87.1136,1.8507
87.1136,1.8062
87.1146,1.7866
87.1146,1.7566
87.1146,1.8447
87.1196,1.8374
87.1206,1.6617
87.1206,1.6343
87.1206,1.624
87.1266,1.6262
87.1276,1.6152
87.1276,1.7622
87.1276,1.6857
87.1276,1.6394
87.1335,1.6474
87.1335,1.6411
87.1335,1.633
87.1335,1.6538
87.1405,1.7622
87.1405,1.5915
87.1405,1.5953
87.1405,1.5872
87.1415,1.5829
87.1465,1.5769
87.1475,1.6632
87.1475,1.6686
87.1485,1.6127
87.1485,1.6017
87.1535,1.6097
87.1545,1.6249
87.1545,1.614
87.1545,1.7239
87.1605,1.6808
87.1615,1.5846
87.1615,1.5749
87.1615,1.5707
87.1615,1.5788
87.1675,1.6493
87.1675,1.7256
87.1675,1.6712
87.1684,1.5987
87.1744,1.5899
87.1744,1.605
87.1744,1.62
87.1754,1.624
87.1754,1.7312
87.1804,1.5882
87.1814,1.5784
87.1814,1.5728
87.1814,1.5689
87.1874,1.5636
87.1874,1.626
87.1884,1.6654
87.1884,1.5914
87.1884,1.5994
87.1944,1.6062
87.1944,1.6146
87.1944,1.6274
87.1944,1.7689
87.1954,1.7277
87.2014,1.5953
87.2014,1.5739
87.2014,1.5767
87.2014,1.5741
87.2113,1.632
87.2193,1.6771
87.2213,1.6465
87.2233,1.5861
87.2233,1.5979
87.2243,1.6082
87.2243,1.6028
87.2243,1.7635
87.2243,1.7192
87.2253,1.6097
87.2253,1.5972
87.2253,1.5854
87.2263,1.5833
87.2263,1.5647
87.2283,1.6493
87.2283,1.6988
87.2283,1.6062
87.2283,1.6026
87.2353,1.608
87.2353,1.6247
87.2353,1.621
87.2353,1.7354
87.2363,1.7384
87.2413,1.5908
87.2413,1.5869
87.2423,1.5915
87.2423,1.5839
87.2423,1.6234
87.2482,1.7001
87.2492,1.7046
87.2492,1.6114
87.2492,1.6092
87.2552,1.6159
87.2562,1.6247
87.2562,1.7669
87.2562,1.7517
87.2562,1.6576
87.2622,1.6054
87.2622,1.5949
87.2622,1.5942
87.2622,1.5951
87.2692,1.623
87.2692,1.7067
87.2692,1.6011
87.2702,1.6152
87.2702,1.6202
87.2752,1.6125
87.2752,1.6165
87.2762,1.7012
87.2762,1.6501
87.2821,1.584
87.2831,1.5814
87.2831,1.5743
87.2831,1.5638
87.2841,1.605
87.2891,1.702
87.2891,1.6999
87.2891,1.5929
87.2891,1.5974
87.2901,1.5923
87.2961,1.6022
87.2961,1.6799
87.2971,1.6874
87.2971,1.6159
87.3031,1.5445
87.3031,1.539
87.3031,1.5445
87.3041,1.5327
87.3041,1.6868
87.3091,1.6585
87.3101,1.5552
87.3101,1.5707
87.3101,1.5659
87.3171,1.5762
87.3240,1.5719
87.3320,1.6829
87.3330,1.6169
87.3360,1.5405
87.3360,1.5381
87.3360,1.5244
87.3370,1.5134
87.3370,1.5537
87.3370,1.6699
87.3370,1.5362
87.3380,1.5334
87.3380,1.5411
87.3380,1.5516
87.3390,1.5525
87.3390,1.6478
87.3390,1.6714
87.3390,1.5942
87.3400,1.5338
87.3430,1.5306
87.3440,1.5291
87.3440,1.524
87.3440,1.6699
87.3510,1.6686
87.3510,1.5689
87.3510,1.5694
87.3510,1.567
87.3520,1.587
87.3569,1.6017
87.3569,1.7234
87.3569,1.6778
87.3579,1.5651
87.3639,1.5645
87.3639,1.569
87.3649,1.5715
87.3649,1.5681
87.3649,1.6941
87.3699,1.615
87.3709,1.6103
87.3709,1.6112
87.3709,1.6189
87.3769,1.6334
87.3779,1.699
87.3779,1.7569
87.3779,1.6242
87.3779,1.6004
87.3839,1.6054
87.3839,1.6047
87.3839,1.5975
87.3849,1.7436
87.3849,1.7633
87.3909,1.6371
87.3909,1.6384
87.3919,1.6489
87.3919,1.6474
87.3978,1.7209
87.3978,1.7461
87.3988,1.702
87.3988,1.6311
87.3988,1.6217
87.4048,1.6197
87.4048,1.6204
87.4048,1.6079
87.4048,1.7491
87.4118,1.6681
87.4118,1.6454
87.4118,1.6525
87.4118,1.645
87.4128,1.6478
87.4178,1.7162
87.4178,1.7599
87.4188,1.6347
87.4188,1.6287
87.4248,1.6251
87.4268,1.6148
87.4288,1.6255
87.4347,1.7541
87.4427,1.6577
87.4447,1.6489
87.4477,1.6568
87.4477,1.6405
87.4487,1.6666
87.4487,1.7024
87.4487,1.7592
87.4487,1.7451
87.4497,1.626
87.4497,1.6234
87.4497,1.6244
87.4497,1.6185
87.4507,1.7305
87.4507,1.7339
87.4507,1.6688
87.4517,1.6499
87.4527,1.6487
87.4527,1.6501
87.4527,1.6581
87.4587,1.7791
87.4597,1.762
87.4597,1.6335
87.4597,1.6264
87.4607,1.6152
87.4657,1.6064
87.4657,1.6125
87.4657,1.7371
87.4667,1.6885
87.4726,1.6463
87.4726,1.6448
87.4736,1.6409
87.4736,1.6514
87.4736,1.6892
87.4786,1.7873
87.4796,1.6174
87.4796,1.623
87.4796,1.6257
87.4806,1.6142
87.4866,1.5914
87.4866,1.6718
87.4866,1.7547
87.4866,1.6309
87.4936,1.6302
87.4936,1.6296
87.4936,1.6407
87.4946,1.6607
87.4946,1.7916
87.4996,1.7582
87.4996,1.6176
87.5006,1.6094
87.5006,1.6052
87.5066,1.6082
87.5075,1.6812
87.5075,1.7393
87.5075,1.6686
87.5075,1.6287
87.5135,1.6302
87.5135,1.6225
87.5145,1.6566
87.5145,1.6718
87.5205,1.7725
87.5205,1.6236
87.5205,1.6058
87.5215,1.5987
87.5215,1.6075
87.5265,1.5966
87.5265,1.6726
87.5275,1.7005
87.5275,1.6176
87.5275,1.6279
87.5335,1.6283
87.5345,1.6441
87.5345,1.6322
87.5345,1.7504
87.5444,1.6277
87.5474,1.6058
87.5544,1.6041
87.5574,1.6039
87.5574,1.5953
87.5574,1.6679
87.5584,1.732
87.5584,1.6831
87.5584,1.6161
87.5584,1.6236
87.5594,1.6289
87.5594,1.6418
87.5594,1.7667
87.5594,1.7588
87.5604,1.6324
87.5614,1.6064
87.5614,1.6054
87.5614,1.6032
87.5674,1.5959
87.5684,1.7279
87.5684,1.6714
87.5684,1.6122
87.5684,1.6129
87.5744,1.6131
87.5744,1.6384
87.5744,1.6542
87.5754,1.7102
87.5754,1.6313
87.5813,1.5987
87.5813,1.6047
87.5823,1.605
87.5823,1.5919
87.5883,1.6384
87.5893,1.7249
87.5893,1.612
87.5893,1.6204
87.5893,1.6294
87.5953,1.6309
87.5953,1.6335
87.5953,1.7408
87.5953,1.7359
87.6023,1.6011
87.6023,1.5878
87.6023,1.5983
87.6023,1.6007
87.6033,1.6486
87.6083,1.7374
87.6083,1.6988
87.6093,1.6264
87.6093,1.6229
87.6153,1.6279
87.6163,1.6365
87.6163,1.6392
87.6163,1.7639
87.6163,1.6457
87.6222,1.6097
87.6222,1.6002
87.6222,1.5966
87.6222,1.5887
87.6232,1.6219
87.6292,1.7116
87.6292,1.6127
87.6302,1.6356
87.6302,1.6244
87.6362,1.621
87.6362,1.633
87.6372,1.7361
87.6372,1.6868
87.6372,1.6161
87.6422,1.5899
87.6432,1.6092
87.6432,1.5929
87.6432,1.6328
87.6502,1.7404
87.6571,1.7131
87.6582,1.6206
87.6661,1.6184
87.6671,1.627
87.6701,1.6343
87.6701,1.762
87.6701,1.7639
87.6701,1.6842
87.6711,1.6049
87.6711,1.6037
87.6711,1.6056
87.6711,1.6013
87.6721,1.7262
87.6721,1.7372
87.6721,1.618
87.6721,1.6146
87.6731,1.6289
87.6731,1.6144
87.6771,1.6422
87.6771,1.7663
87.6781,1.6679
87.6781,1.5895
87.6841,1.5773
87.6841,1.5694
87.6841,1.5512
87.6851,1.5597
87.6851,1.7024
87.6901,1.5769
87.6911,1.579
87.6911,1.581
87.6911,1.5687
87.6970,1.5839
87.6980,1.6774
87.6980,1.6909
87.6980,1.5527
87.6980,1.5488
87.7040,1.548
87.7040,1.5454
87.7040,1.5398
87.7040,1.6898
87.7110,1.6892
87.7110,1.5867
87.7110,1.5914
87.7120,1.5882
87.7120,1.6099
87.7170,1.6992
87.7180,1.7539
87.7180,1.6975
87.7180,1.6229
87.7180,1.6077
87.7250,1.6049
87.7250,1.6028
87.7250,1.7549
87.7250,1.7102
87.7319,1.6315
87.7319,1.6253
87.7319,1.6358
87.7319,1.6697
87.7329,1.6517
87.7379,1.7187
87.7379,1.7121
87.7389,1.62
87.7389,1.6249
87.7449,1.6185
87.7479,1.6125
87.7529,1.6032
87.7619,1.7301
87.7639,1.6474
87.7659,1.6289
87.7659,1.6411
87.7668,1.6411
87.7668,1.6594
87.7668,1.744
87.7668,1.7957
87.7678,1.7371
87.7678,1.6275
87.7678,1.6262
87.7678,1.6268
87.7678,1.6035
87.7688,1.7314
87.7688,1.7566
87.7688,1.6799
87.7738,1.6448
87.7738,1.6547
87.7738,1.7005
87.7748,1.7626
87.7808,1.7434
87.7808,1.6349
87.7818,1.6208
87.7818,1.6229
87.7818,1.6146
87.7868,1.6221
87.7878,1.7665
87.7878,1.6707
87.7878,1.6504
87.7938,1.6337
87.7948,1.6566
87.7948,1.6741
87.7948,1.7189
87.7958,1.7541
87.8008,1.621
87.8008,1.6264
87.8008,1.6255
87.8018,1.6429
87.8077,1.6476
87.8077,1.7562
87.8077,1.7432
87.8087,1.6489
87.8087,1.6418
87.8137,1.6544
87.8147,1.6699
87.8147,1.6891
87.8147,1.7564
87.8147,1.7179
87.8217,1.5552
87.8217,1.5
87.8217,1.4558
87.8217,1.3962
87.8287,1.392
87.8287,1.3984
87.8287,1.3169
87.8287,1.2655
87.8297,1.2625
87.8347,1.2507
87.8347,1.2552
87.8357,1.3562
87.8357,1.8177
87.8416,1.7134
87.8416,1.6636
87.8416,1.6465
87.8426,1.7491
87.8426,1.831
87.8476,2.0402
87.8486,2.2216
87.8486,2.1848
87.8486,2.1623
87.8546,2.1614
87.8576,2.1606
87.8626,2.1498
87.8696,2.2304
87.8726,2.1919
87.8736,2.0174
87.8736,1.9892
87.8736,1.954
87.8736,1.9032
87.8746,1.9615
87.8746,1.9594
87.8746,1.8758
87.8746,1.7984
87.8746,1.7384
87.8760,1.7102
87.8760,1.7003
87.8760,1.7211
87.8770,1.8194
87.8770,1.6666
87.8820,1.6544
87.8820,1.6424
87.8830,1.6347
87.8830,1.6356
87.8889,1.7061
87.8899,1.6934
87.8899,1.645
87.8899,1.6426
87.8899,1.645
87.8955,1.6512
87.8955,1.6606
87.8955,1.7867
87.8955,1.6272
87.9025,1.612
87.9025,1.6212
87.9035,1.5955
87.9035,1.5775
87.9035,1.6536
87.9095,1.7222
87.9095,1.6891
87.9095,1.6112
87.9095,1.62
87.9105,1.627
87.9165,1.6337
87.9165,1.789
87.9165,1.7541
87.9175,1.6212
87.9235,1.6015
87.9235,1.5831
87.9245,1.5792
87.9245,1.5801
87.9245,1.7108
87.9295,1.6795
87.9304,1.5981
87.9304,1.6142
87.9304,1.62
87.9364,1.6262
87.9374,1.6358
87.9374,1.7401
87.9374,1.6275
87.9374,1.5938
87.9434,1.5908
87.9434,1.5955
87.9434,1.5739
87.9444,1.6465
87.9504,1.7207
87.9504,1.6099
87.9504,1.615
87.9514,1.6223
87.9514,1.6334
87.9564,1.6377
87.9574,1.7597
87.9574,1.7378
87.9574,1.6002
87.9574,1.5904
87.9664,1.5981
87.9683,1.5966
87.9743,1.639
87.9813,1.708
87.9833,1.6804
87.9853,1.6189
87.9863,1.6208
87.9863,1.6223
87.9863,1.6334
87.9863,1.7507
87.9863,1.7202
87.9873,1.6416
87.9873,1.6084
87.9873,1.6009
87.9873,1.6024
87.9883,1.5964
87.9883,1.6182
87.9883,1.7371
87.9913,1.6277
87.9913,1.6315
87.9913,1.6349
87.9913,1.6319
87.9983,1.6587
87.9983,1.7751
87.9983,1.6688
87.9993,1.6131
87.9993,1.605
88.0043,1.6015
88.0043,1.59
88.0052,1.6214
88.0052,1.7161
88.0052,1.6251
88.0112,1.6249
88.0122,1.629
88.0122,1.6304
88.0122,1.6392
88.0182,1.7492
88.0192,1.7393
88.0192,1.6692
88.0192,1.6049
88.0202,1.6024
88.0252,1.6017
88.0252,1.5797
88.0262,1.741
88.0262,1.7164
88.0322,1.6193
88.0322,1.6084
88.0322,1.6139
88.0332,1.6169
88.0332,1.6307
88.0382,1.7496
88.0392,1.6596
88.0392,1.6009
88.0392,1.5863
88.0451,1.5707
88.0461,1.5585
88.0461,1.5764
88.0461,1.69
88.0461,1.5786
88.0521,1.5707
88.0521,1.5795
88.0521,1.587
88.0531,1.5942
88.0531,1.6643
88.0591,1.6928
88.0591,1.5531
88.0601,1.5454
88.0601,1.5387
88.0661,1.5327
88.0661,1.5192
88.0671,1.6598
88.0671,1.6696
88.0671,1.5565
88.0695,1.5627
88.0695,1.56
88.0695,1.5655
88.0739,1.6435
88.0799,1.6795
88.0799,1.6045
88.0799,1.5345
88.0809,1.5287
88.0809,1.5231
88.0869,1.5192
88.0879,1.5128
88.0948,1.6332
88.1028,1.5445
88.1048,1.5357
88.1048,1.5415
88.1048,1.5366
88.1048,1.5567
88.1058,1.6566
88.1058,1.6279
88.1058,1.5368
88.1058,1.5225
88.1068,1.5158
88.1068,1.5218
88.1068,1.5149
88.1068,1.6737
88.1078,1.6622
88.1078,1.558
88.1138,1.5717
88.1148,1.5745
88.1148,1.5795
88.1148,1.6834
88.1148,1.7072
88.1198,1.6514
88.1208,1.5865
88.1208,1.5758
88.1208,1.5848
88.1268,1.5735
88.1278,1.6757
88.1278,1.6921
88.1278,1.6255
88.1278,1.609
88.1337,1.6236
88.1337,1.62
88.1337,1.6388
88.1347,1.7187
88.1407,1.7131
88.1407,1.618
88.1407,1.6101
88.1417,1.6148
88.1417,1.6161
88.1467,1.6079
88.1477,1.7206
88.1477,1.6776
88.1477,1.6365
88.1477,1.6469
88.1537,1.6506
88.1547,1.6639
88.1547,1.7241
88.1547,1.7841
88.1607,1.7162
88.1617,1.6229
88.1617,1.6279
88.1617,1.6326
88.1617,1.6225
88.1676,1.7057
88.1676,1.7282
88.1676,1.6756
88.1676,1.6457
88.1746,1.6465
88.1746,1.651
88.1746,1.6504
88.1746,1.6958
88.1756,1.7597
88.1826,1.6219
88.1836,1.6215
88.1906,1.6199
88.1976,1.6159
88.1986,1.6182
88.2016,1.7292
88.2016,1.6857
88.2016,1.6501
88.2026,1.6411
88.2026,1.6467
88.2026,1.6637
88.2026,1.6919
88.2036,1.7899
88.2036,1.7436
88.2036,1.6307
88.2036,1.6285
88.2045,1.6281
88.2045,1.6215
88.2085,1.7042
88.2085,1.7689
88.2085,1.6894
88.2095,1.6454
88.2095,1.6422
88.2145,1.6373
88.2155,1.6521
88.2155,1.8014
88.2155,1.7573
88.2215,1.63
88.2225,1.6184
88.2225,1.6165
88.2225,1.6116
88.2225,1.5992
88.2285,1.6966
88.2285,1.6881
88.2285,1.6313
88.2295,1.6354
88.2355,1.6386
88.2355,1.6407
88.2355,1.6401
88.2355,1.7832
88.2365,1.6251
88.2414,1.6137
88.2414,1.6125
88.2424,1.606
88.2424,1.5919
88.2424,1.6769
88.2484,1.699
88.2494,1.6606
88.2494,1.6204
88.2494,1.6182
88.2554,1.6287
88.2564,1.6516
88.2564,1.7819
88.2564,1.7567
88.2564,1.6129
88.2624,1.5979
88.2624,1.6011
88.2624,1.6002
88.2634,1.5861
88.2694,1.7074
88.2694,1.6546
88.2694,1.6086
88.2704,1.6148
88.2704,1.623
88.2754,1.6191
88.2754,1.615
88.2754,1.762
88.2764,1.6337
88.2824,1.6028
88.2834,1.5968
88.2834,1.597
88.2834,1.5833
88.2844,1.6557
88.2894,1.7206
88.2894,1.6831
88.2894,1.6088
88.2894,1.6054
88.2904,1.6146
88.3034,1.6365
88.3104,1.7624
88.3114,1.729
88.3144,1.6253
88.3144,1.6011
88.3154,1.5906
88.3154,1.5957
88.3154,1.587
88.3154,1.7232
88.3164,1.7007
88.3164,1.6212
88.3164,1.6191
88.3164,1.6154
88.3174,1.6296
88.3174,1.6347
88.3174,1.7436
88.3174,1.6431
88.3183,1.5981
88.3233,1.593
88.3233,1.5906
88.3233,1.5707
88.3233,1.6358
88.3303,1.7228
88.3303,1.6204
88.3303,1.6129
88.3313,1.6191
88.3313,1.6212
88.3363,1.6411
88.3363,1.7731
88.3373,1.7513
88.3373,1.6343
88.3373,1.5987
88.3433,1.5912
88.3443,1.6035
88.3443,1.5771
88.3443,1.7356
88.3503,1.7153
88.3513,1.6139
88.3513,1.6019
88.3513,1.6142
88.3513,1.627
88.3572,1.6292
88.3572,1.7432
88.3572,1.6658
88.3572,1.6047
88.3642,1.5985
88.3642,1.5885
88.3642,1.5809
88.3652,1.6266
88.3652,1.7395
88.3702,1.6062
88.3702,1.6082
88.3712,1.6212
88.3712,1.6157
88.3772,1.6345
88.3782,1.7249
88.3782,1.7402
88.3782,1.6602
88.3782,1.584
88.3842,1.5921
88.3842,1.587
88.3842,1.5998
88.3842,1.7084
88.3852,1.6817
88.3912,1.6007
88.3912,1.6165
88.3912,1.6142
88.3922,1.6144
88.3981,1.6195
88.3981,1.7112
88.3981,1.6365
88.3991,1.5955
88.3991,1.5882
88.4051,1.5805
88.4121,1.5728
88.4201,1.5664
88.4211,1.7046
88.4231,1.6013
88.4241,1.5977
88.4241,1.609
88.4241,1.584
88.4251,1.593
88.4251,1.6849
88.4251,1.7147
88.4261,1.56
88.4261,1.5471
88.4261,1.543
88.4261,1.5407
88.4271,1.5334
88.4271,1.6769
88.4271,1.6452
88.4281,1.5465
88.4281,1.5396
88.4281,1.5467
88.4281,1.5561
88.4281,1.5615
88.4281,1.6789
88.4281,1.5934
88.4281,1.5488
88.4281,1.5462
88.4437,1.5501
88.4437,1.5402
88.4437,1.5364
88.4437,1.6094
88.4437,1.5932
88.4437,1.5994
88.4437,1.6084
88.4437,1.6155
88.4437,1.6313
88.4437,1.7101
88.4593,1.7408
88.4593,1.5955
88.4593,1.5932
88.4593,1.5852
88.4593,1.5923
88.4593,1.5863
88.4593,1.72
88.4593,1.7001
88.4593,1.6339
88.4593,1.6112
88.4593,1.6056
88.4593,1.6204
88.4593,1.6825
88.4749,1.7335
88.4749,1.6741
88.4749,1.6034
88.4749,1.5977
88.4749,1.5904
88.4749,1.5848
88.4749,1.5996
88.4749,1.7108
88.4749,1.6262
88.4906,1.6122
88.4906,1.6163
88.4906,1.6195
88.4906,1.6324
88.4906,1.6969
88.4906,1.7026
88.4906,1.6116
88.4906,1.6034
88.4906,1.59
88.5062,1.594
88.5062,1.7159
88.5062,1.6448
88.5062,1.6217
88.5062,1.6236
88.5145,1.6206
88.5145,1.6486
88.5145,1.6913
88.5145,1.7449
88.5215,1.7142
88.5235,1.6137
88.5255,1.6
88.5315,1.6017
88.5395,1.6015
88.5415,1.7179
88.5435,1.7162
88.5445,1.6628
88.5445,1.6446
88.5455,1.6362
88.5455,1.6352
88.5455,1.6399
88.5455,1.7727
88.5465,1.7436
88.5465,1.6337
88.5465,1.6471
88.5475,1.6401
88.5475,1.612
88.5485,1.6
88.5485,1.7352
88.5485,1.6924
88.5485,1.6461
88.5494,1.651
88.5554,1.6277
88.5554,1.6251
88.5554,1.6229
88.5564,1.6797
88.5564,1.4378
88.5614,1.3907
88.5624,1.3759
88.5624,1.3439
88.5624,1.2756
88.5684,1.3409
88.5694,1.333
88.5694,1.306
88.5694,1.4344
88.5694,1.6649
88.5754,1.7729
88.5754,1.7348
88.5754,1.8655
88.5754,1.8595
88.5764,1.7363
88.5824,1.9585
88.5824,2.0881
88.5834,2.1618
88.5834,2.1364
88.5893,2.2116
88.5893,2.1588
88.5903,2.0896
88.5903,2.0796
88.5903,2.0866
88.5963,2.0783
88.5963,2.0599
88.5963,2.0978
88.5963,1.939
88.6033,1.9139
88.6033,1.8799
88.6033,1.8272
88.6033,1.7896
88.6043,1.8136
88.6093,1.8634
88.6093,1.6951
88.6093,1.6806
88.6103,1.6615
88.6183,1.6382
88.6193,1.6684
88.6223,1.807
88.6272,1.7571
88.6352,1.6157
88.6362,1.6095
88.6382,1.6009
88.6392,1.6073
88.6392,1.6397
88.6392,1.7012
88.6392,1.6598
88.6402,1.597
88.6402,1.6069
88.6402,1.6019
88.6402,1.6125
88.6402,1.611
88.6412,1.7162
88.6412,1.5904
88.6412,1.5788
88.6432,1.584
88.6432,1.5705
88.6432,1.5522
88.6442,1.6159
88.6502,1.6756
88.6502,1.5839
88.6512,1.5897
88.6512,1.584
88.6512,1.6097
88.6562,1.6157
88.6572,1.7611
88.6572,1.7222
88.6572,1.5726
88.6631,1.563
88.6641,1.5494
88.6641,1.5475
88.6641,1.6088
88.6652,1.6819
88.6701,1.6521
88.6701,1.5739
88.6701,1.5799
88.6711,1.573
88.6711,1.5859
88.6771,1.5957
88.6771,1.7026
88.6781,1.6043
88.6781,1.5666
88.6841,1.5593
88.6841,1.5585
88.6851,1.5544
88.6851,1.594
88.6851,1.6754
88.6911,1.5735
88.6911,1.5743
88.6911,1.582
88.6911,1.5818
88.6981,1.5951
88.6981,1.6864
88.6981,1.6757
88.6981,1.5696
88.6990,1.5524
88.7040,1.5529
88.7040,1.5567
88.7050,1.5732
88.7050,1.6874
88.7110,1.6962
88.7110,1.5674
88.7120,1.5863
88.7120,1.5782
88.7120,1.5777
88.7170,1.7071
88.7180,1.7284
88.7180,1.627
88.7180,1.5732
88.7180,1.5617
88.7250,1.5563
88.7250,1.5572
88.7250,1.5784
88.7250,1.6579
88.7330,1.5767
88.7379,1.5724
88.7469,1.5848
88.7499,1.5872
88.7499,1.5812
88.7509,1.6847
88.7509,1.6217
88.7509,1.561
88.7509,1.5529
88.7519,1.548
88.7519,1.5437
88.7519,1.548
88.7519,1.6497
88.7529,1.6806
88.7529,1.5565
88.7529,1.5672
88.7529,1.5653
88.7539,1.5739
88.7579,1.6881
88.7589,1.7072
88.7589,1.6084
88.7589,1.5514
88.7589,1.5289
88.7649,1.5379
88.7649,1.5325
88.7649,1.6576
88.7659,1.6426
88.7659,1.5269
88.7719,1.5297
88.7719,1.533
88.7729,1.5385
88.7729,1.5482
88.7788,1.6146
88.7788,1.5475
88.7798,1.4931
88.7798,1.4974
88.7808,1.4954
88.7858,1.4828
88.7858,1.4616
88.7858,1.593
88.7858,1.6079
88.7928,1.48
88.7928,1.491
88.7928,1.497
88.7928,1.4995
88.7938,1.5882
88.7988,1.6487
88.7988,1.567
88.7988,1.4725
88.7998,1.4603
88.8058,1.455
88.8058,1.4609
88.8068,1.5938
88.8068,1.5977
88.8068,1.498
88.8127,1.4768
88.8127,1.4774
88.8127,1.486
88.8127,1.4946
88.8127,1.6215
88.8197,1.5443
88.8197,1.4654
88.8197,1.4695
88.8207,1.4644
88.8267,1.4609
88.8267,1.4502
88.8277,1.5795
88.8277,1.5113
88.8277,1.488
88.8327,1.4875
88.8337,1.5008
88.8337,1.5055
88.8337,1.5867
88.8407,1.6392
88.8477,1.5002
88.8566,1.5079
88.8586,1.5083
88.8606,1.5117
88.8616,1.5045
88.8616,1.6403
88.8616,1.6435
88.8616,1.5674
88.8616,1.5672
88.8626,1.5692
88.8626,1.5837
88.8626,1.6546
88.8636,1.7172
88.8636,1.6742
88.8636,1.5743
88.8636,1.5771
88.8646,1.5773
88.8646,1.5869
88.8676,1.6733
88.8676,1.6907
88.8676,1.6621
88.8676,1.6187
88.8746,1.6187
88.8746,1.6208
88.8746,1.6416
88.8756,1.7104
88.8756,1.7417
88.8806,1.6204
88.8806,1.617
88.8816,1.6221
88.8816,1.6202
88.8875,1.611
88.8875,1.7189
88.8885,1.6697
88.8885,1.6234
88.8885,1.6405
88.8945,1.6457
88.8945,1.6587
88.8945,1.7076
88.8945,1.7836
88.9015,1.7416
88.9015,1.6441
88.9015,1.6313
88.9025,1.6334
88.9025,1.6157
88.9075,1.7097
88.9075,1.7687
88.9085,1.7026
88.9085,1.6491
88.9085,1.6521
88.9145,1.6564
88.9155,1.6622
88.9155,1.7993
88.9155,1.7802
88.9215,1.6502
88.9225,1.6452
88.9225,1.6285
88.9225,1.6283
88.9225,1.6326
88.9284,1.7569
88.9284,1.6984
88.9284,1.6471
88.9294,1.6516
88.9354,1.6525
88.9354,1.6662
88.9364,1.6658
88.9364,1.7732
88.9364,1.627
88.9414,1.6125
88.9424,1.6174
88.9424,1.6264
88.9424,1.6077
88.9484,1.6964
88.9514,1.7579
88.9544,1.6403
88.9594,1.6392
88.9673,1.6405
88.9693,1.6426
88.9713,1.66
88.9723,1.7841
88.9723,1.7545
88.9723,1.6099
88.9733,1.6148
88.9733,1.6122
88.9733,1.6013
88.9733,1.6842
88.9743,1.7406
88.9743,1.6896
88.9743,1.6223
88.9743,1.6335
88.9753,1.6285
88.9763,1.6437
88.9763,1.6452
88.9763,1.7459
88.9763,1.6193
88.9833,1.6127
88.9833,1.5979
88.9833,1.5899
88.9843,1.5833
88.9843,1.6484
88.9893,1.6921
88.9893,1.6142
88.9903,1.6189
88.9903,1.626
88.9963,1.6191
88.9973,1.6315
88.9973,1.7899
88.9973,1.6358
88.9973,1.6049
89.0032,1.6069
89.0032,1.6034
89.0032,1.5872
89.0032,1.6677
89.0042,1.7211
89.0102,1.6703
89.0102,1.6229
89.0102,1.6043
89.0112,1.6129
89.0172,1.6506
89.0172,1.7562
89.0182,1.7153
89.0182,1.6381
89.0182,1.5989
89.0232,1.5964
89.0242,1.6079
89.0242,1.5994
89.0242,1.7416
89.0312,1.7127
89.0312,1.6212
89.0312,1.623
89.0312,1.626
89.0322,1.6317
89.0371,1.636
89.0371,1.7468
89.0371,1.648
89.0381,1.6079
89.0441,1.6005
89.0441,1.5979
89.0451,1.5962
89.0451,1.6547
89.0451,1.7359
89.0501,1.6275
89.0511,1.6339
89.0511,1.6319
89.0511,1.6381
89.0511,1.6384
89.0581,1.729
89.0581,1.7423
89.0581,1.6187
89.0581,1.6107
89.0691,1.6052
89.0780,1.6157
89.0800,1.6174
89.0820,1.7474
89.0820,1.7442
89.0830,1.6411
89.0830,1.6371
89.0830,1.6309
89.0830,1.6268
89.0840,1.7828
89.0840,1.7663
89.0840,1.6581
89.0840,1.6197
89.0850,1.602
89.0850,1.5987
89.0850,1.6002
89.0850,1.6199
89.0860,1.7354
89.0920,1.612
89.0920,1.6212
89.0920,1.6112
89.0930,1.6139
89.0930,1.6247
89.0980,1.7206
89.0980,1.6463
89.0990,1.5938
89.0990,1.5782
89.0990,1.5666
89.1060,1.5417
89.1060,1.5535
89.1060,1.6711
89.1060,1.6829
89.1129,1.5734
89.1129,1.578
89.1129,1.5704
89.1140,1.5824
89.1140,1.6701
89.1189,1.7035
89.1189,1.6467
89.1189,1.5696
89.1199,1.5675
89.1259,1.573
89.1259,1.564
89.1269,1.7275
89.1269,1.6829
89.1269,1.6144
89.1329,1.6221
89.1329,1.627
89.1329,1.6407
89.1329,1.6572
89.1399,1.744
89.1399,1.6964
89.1399,1.6266
89.1399,1.6127
89.1409,1.6052
89.1459,1.6094
89.1459,1.611
89.1469,1.7354
89.1469,1.6469
89.1469,1.6446
89.1528,1.6491
89.1538,1.6484
89.1538,1.6562
89.1538,1.7245
89.1598,1.7296
89.1608,1.6311
89.1608,1.6174
89.1608,1.6152
89.1608,1.6187
89.1668,1.606
89.1668,1.7472
89.1668,1.7389
89.1678,1.6516
89.1738,1.648
89.1788,1.6478
89.1867,1.66
89.1877,1.7575
89.1897,1.7896
89.1907,1.7543
89.1907,1.6486
89.1907,1.6311
89.1917,1.6247
89.1917,1.6242
89.1917,1.7678
89.1917,1.7492
89.1927,1.6724
89.1927,1.6546
89.1937,1.6472
89.1937,1.6555
89.1937,1.6699
89.1937,1.7404
89.1947,1.7421
89.2007,1.6534
89.2007,1.6553
89.2017,1.6497
89.2017,1.6382
89.2077,1.6274
89.2077,1.7367
89.2087,1.6891
89.2087,1.6649
89.2087,1.6583
89.2147,1.6517
89.2147,1.6609
89.2147,1.714
89.2147,1.8151
89.2217,1.7582
89.2217,1.6529
89.2217,1.6566
89.2217,1.6628
89.2226,1.6611
89.2276,1.7886
89.2276,1.7922
89.2286,1.7159
89.2286,1.6907
89.2366,1.6881
89.2366,1.7037
89.2366,1.8008
89.2376,1.7288
89.2376,1.5869
89.2426,1.4991
89.2426,1.4474
89.2436,1.4093
89.2436,1.371
89.2436,1.4605
89.2496,1.3439
89.2506,1.2825
89.2506,1.2771
89.2506,1.3679
89.2555,1.6206
89.2555,1.7757
89.2555,1.8439
89.2555,1.6975
89.2555,1.6877
89.2555,1.7297
89.2555,1.9015
89.2555,2.05
89.2555,2.2566
89.2705,2.2683
89.2705,2.1158
89.2705,2.1027
89.2715,2.1004
89.2715,2.1068
89.2765,2.1145
89.2775,2.2519
89.2775,2.2233
89.2775,2.0494
89.2835,1.9906
89.2845,1.9463
89.2845,1.9022
89.2845,1.9752
89.2845,1.9778
89.2905,1.8692
89.2974,1.7866
89.3004,1.7511
89.3074,1.7335
89.3094,1.7326
89.3104,1.7221
89.3104,1.8079
89.3114,1.6667
89.3114,1.6596
89.3114,1.6501
89.3114,1.6441
89.3124,1.63
89.3124,1.7067
89.3124,1.7011
89.3134,1.6384
89.3134,1.6452
89.3134,1.6426
89.3144,1.6394
89.3174,1.6328
89.3184,1.7624
89.3184,1.7479
89.3184,1.6024
89.3184,1.6011
89.3244,1.594
89.3244,1.5882
89.3244,1.6838
89.3254,1.7434
89.3314,1.6817
89.3314,1.6007
89.3314,1.6137
89.3324,1.6161
89.3324,1.6362
89.3373,1.7781
89.3383,1.7374
89.3383,1.623
89.3383,1.5955
89.3383,1.5884
89.3453,1.5895
89.3453,1.5786
89.3453,1.6562
89.3453,1.6664
89.3523,1.605
89.3523,1.612
89.3523,1.6161
89.3523,1.6352
89.3533,1.6322
89.3583,1.7522
89.3583,1.623
89.3593,1.5927
89.3593,1.6065
89.3653,1.5921
89.3653,1.5698
89.3663,1.6399
89.3663,1.7318
89.3663,1.6947
89.3713,1.5994
89.3722,1.6054
89.3722,1.608
89.3722,1.6049
89.3792,1.8038
89.3792,1.7695
89.3792,1.6435
89.3792,1.5994
89.3802,1.5919
89.3862,1.5724
89.3942,1.5809
89.4022,1.6969
89.4032,1.6984
89.4062,1.605
89.4062,1.6026
89.4062,1.6159
89.4062,1.6135
89.4072,1.621
89.4072,1.7224
89.4072,1.6375
89.4072,1.5921
89.4082,1.5878
89.4082,1.5807
89.4082,1.5713
89.4092,1.6185
89.4092,1.705
89.4092,1.6184
89.4131,1.5944
89.4141,1.5968
89.4141,1.6227
89.4141,1.6236
89.4141,1.7155
89.4191,1.7449
89.4201,1.5912
89.4201,1.5844
89.4201,1.5869
89.4261,1.5831
89.4271,1.6407
89.4271,1.7294
89.4271,1.7164
89.4271,1.6082
89.4331,1.602
89.4331,1.6157
89.4331,1.6232
89.4341,1.7526
89.4341,1.7742
89.4401,1.6469
89.4401,1.584
89.4411,1.5645
89.4411,1.5696
89.4470,1.5694
89.4470,1.5867
89.4480,1.7074
89.4480,1.5848
89.4480,1.588
89.4540,1.5968
89.4540,1.5867
89.4540,1.5842
89.4540,1.7014
89.4610,1.6099
89.4610,1.5443
89.4610,1.546
89.4610,1.5482
89.4620,1.5334
89.4670,1.5454
89.4670,1.6778
89.4680,1.6557
89.4680,1.5454
89.4740,1.5454
89.4740,1.5537
89.4750,1.5396
89.4750,1.6206
89.4750,1.6491
89.4810,1.5938
89.4810,1.5021
89.4810,1.5044
89.4810,1.5044
89.4820,1.4839
89.4879,1.6671
89.4879,1.6457
89.4879,1.5192
89.4889,1.5332
89.4969,1.5134
89.4979,1.5267
89.5019,1.5529
89.5069,1.66
89.5149,1.5835
89.5169,1.515
89.5189,1.5015
89.5189,1.4856
89.5199,1.4925
89.5199,1.4856
89.5199,1.6531
89.5199,1.5359
89.5209,1.5096
89.5209,1.524
89.5209,1.5325
89.5209,1.5434
89.5218,1.6504
89.5218,1.6677
89.5218,1.5272
89.5218,1.5319
89.5228,1.5419
89.5228,1.5417
89.5228,1.5287
89.5278,1.6936
89.5288,1.6996
89.5288,1.6079
89.5288,1.5857
89.5288,1.5925
89.5348,1.5904
89.5358,1.6922
89.5358,1.8046
89.5358,1.6894
89.5418,1.5966
89.5428,1.5987
89.5428,1.5957
89.5428,1.5964
89.5438,1.614
89.5488,1.7444
89.5488,1.6724
89.5488,1.6401
89.5498,1.6399
89.5558,1.6459
89.5558,1.6726
89.5558,1.7281
89.5568,1.7903
89.5568,1.6356
89.5617,1.6394
89.5627,1.6422
89.5627,1.6399
89.5627,1.6427
89.5687,1.7569
89.5697,1.7607
89.5697,1.6596
89.5697,1.6645
89.5697,1.6654
89.5757,1.6778
89.5757,1.777
89.5757,1.8364
89.5767,1.7879
89.5767,1.6591
89.5827,1.6487
89.5827,1.6493
89.5827,1.6568
89.5837,1.6598
89.5897,1.8023
89.5897,1.7191
89.5897,1.6611
89.5907,1.6879
89.5907,1.6729
89.5957,1.7059
89.5966,1.7346
89.5966,1.7706
89.5966,1.6519
89.6026,1.6624
89.6036,1.6538
89.6036,1.6675
89.6036,1.6572
89.6046,1.7633
89.6096,1.7912
89.6176,1.6786
89.6246,1.6855
89.6266,1.6741
89.6286,1.681
89.6296,1.7204
89.6296,1.8261
89.6306,1.7982
89.6306,1.6656
89.6306,1.6514
89.6306,1.6461
89.6306,1.6472
89.6316,1.6439
89.6316,1.7597
89.6316,1.6997
89.6316,1.6692
89.6326,1.6641
89.6326,1.6727
89.6365,1.6664
89.6375,1.7061
89.6375,1.7635
89.6375,1.6484
89.6375,1.6403
89.6435,1.6403
89.6435,1.6274
89.6435,1.6328
89.6445,1.744
89.6505,1.7796
89.6505,1.6484
89.6515,1.6607
89.6515,1.6699
89.6515,1.6636
89.6565,1.6836
89.6575,1.8256
89.6575,1.7897
89.6575,1.6257
89.6635,1.6187
89.6645,1.618
89.6645,1.6189
89.6645,1.6906
89.6645,1.7342
89.6705,1.7102
89.6705,1.6476
89.6705,1.6375
89.6714,1.6414
89.6714,1.654
89.6774,1.6581
89.6774,1.7744
89.6774,1.6309
89.6784,1.611
89.6844,1.6094
89.6844,1.5962
89.6844,1.609
89.6854,1.7196
89.6854,1.7003
89.6904,1.6354
89.6914,1.6381
89.6914,1.6403
89.6922,1.6562
89.6922,1.6478
89.6922,1.7959
89.6922,1.7571
89.6922,1.6176
89.6922,1.6172
89.6922,1.614
89.6922,1.6305
89.6922,1.6997
89.6922,1.7506
89.7078,1.7204
89.7078,1.6341
89.7078,1.6502
89.7078,1.6302
89.7078,1.6424
89.7078,1.6442
89.7078,1.7395
89.7078,1.6615
89.7078,1.6283
89.7078,1.6114
89.7268,1.6202
89.7278,1.6165
89.7348,1.6735
89.7427,1.7228
89.7437,1.6456
89.7477,1.6332
89.7477,1.6358
89.7477,1.636
89.7477,1.6217
89.7487,1.7684
89.7487,1.7841
89.7487,1.6242
89.7497,1.6236
89.7497,1.6245
89.7497,1.6159
89.7497,1.6891
89.7497,1.7663
89.7507,1.7449
89.7517,1.6414
89.7517,1.6446
89.7517,1.6527
89.7517,1.6459
89.7587,1.8094
89.7587,1.7607
89.7587,1.648
89.7587,1.6191
89.7597,1.6247
89.7647,1.6219
89.7647,1.6277
89.7657,1.6722
89.7657,1.7783
89.7657,1.6354
89.7717,1.6437
89.7727,1.6487
89.7727,1.639
89.7727,1.6499
89.7786,1.7941
89.7796,1.7749
89.7796,1.6193
89.7796,1.6065
89.7806,1.6326
89.7856,1.6322
89.7856,1.6707
89.7856,1.8308
89.7866,1.777
89.7926,1.6418
89.7926,1.6371
89.7926,1.6403
89.7936,1.6396
89.7936,1.7496
89.7986,1.7836
89.7986,1.6671
89.7996,1.5709
89.7996,1.5642
89.8056,1.5672
89.8066,1.5707
89.8066,1.6086
89.8066,1.7399
89.8066,1.5874
89.8125,1.5702
89.8125,1.5724
89.8125,1.5728
89.8125,1.5824
89.8135,1.6911
89.8195,1.6484
89.8195,1.5615
89.8205,1.5741
89.8205,1.5685
89.8265,1.5664
89.8265,1.6107
89.8265,1.7785
89.8275,1.7742
89.8275,1.6116
89.8325,1.6208
89.8335,1.6154
89.8355,1.6122
89.8375,1.7361
89.8445,1.7612
89.8484,1.6928
89.8544,1.6112
89.8564,1.6079
89.8564,1.6212
89.8574,1.6424
89.8574,1.8137
89.8574,1.7839
89.8584,1.657
89.8584,1.6459
89.8584,1.6397
89.8584,1.6439
89.8594,1.6332
89.8594,1.7198
89.8594,1.7009
89.8594,1.6234
89.8604,1.6176
89.8604,1.623
89.8604,1.6279
89.8664,1.6307
89.8674,1.8057
89.8674,1.7946
89.8674,1.6476
89.8734,1.6454
89.8744,1.6371
89.8744,1.6547
89.8744,1.7476
89.8744,1.8072
89.8804,1.7614
89.8804,1.6232
89.8814,1.6349
89.8814,1.6337
89.8873,1.6437
89.8873,1.8334
89.8873,1.8479
89.8883,1.6879
89.8883,1.6476
89.8933,1.6482
89.8943,1.632
89.8943,1.6497
89.8943,1.7432
89.9003,1.7483
89.9013,1.6287
89.9013,1.6236
89.9013,1.6264
89.9013,1.6349
89.9073,1.6502
89.9073,1.7954
89.9073,1.7179
89.9073,1.6592
89.9083,1.6542
89.9143,1.6508
89.9143,1.6322
89.9143,1.7206
89.9153,1.7897
89.9213,1.7474
89.9213,1.6401
89.9213,1.6405
89.9223,1.6437
89.9223,1.6701
89.9272,1.7957
89.9282,1.7995
89.9282,1.6879
89.9282,1.6469
89.9392,1.6508
89.9402,1.6457
89.9482,1.6412
89.9492,1.7114
89.9522,1.6759
89.9522,1.4832
89.9522,1.4273
89.9532,1.339
89.9532,1.311
89.9532,1.2934
89.9532,1.395
89.9542,1.3067
89.9542,1.2672
89.9542,1.2563
89.9542,1.2784
89.9552,1.6446
89.9552,1.7824
89.9552,1.9079
89.9552,1.8235
89.9631,1.7176
89.9641,1.8111
89.9641,1.8721
89.9641,2.2769
89.9701,2.2994
89.9701,2.2293
89.9701,2.1621
89.9711,2.1426
89.9711,2.1199
89.9761,2.0999
89.9771,2.2452
89.9771,2.1661
89.9771,1.9913
89.9831,1.948
89.9841,1.8882
89.9841,1.8846
89.9841,1.858
89.9851,1.9634
89.9901,1.8389
89.9901,1.7311
89.9901,1.7056
89.9911,1.6795
89.9971,1.6716
89.9971,1.6739
89.9981,1.8229
89.9981,1.6283
89.9981,1.6294
90.0030,1.6322
90.0040,1.6448
90.0040,1.6268
90.0040,1.7402
90.0040,1.8143
90.0110,1.623
90.0110,1.6311
90.0110,1.6236
90.0110,1.6202
90.0180,1.624
90.0180,1.7957
90.0180,1.7326
90.0180,1.5996
90.0190,1.5591
90.0240,1.5934
90.0240,1.606
90.0250,1.5996
90.0250,1.7301
90.0310,1.6652
90.0310,1.6092
90.0320,1.6086
90.0320,1.5996
90.0320,1.6009
90.0369,1.5822
90.0379,1.7626
90.0379,1.5983
90.0379,1.5844
90.0449,1.5893
90.0539,1.5824
90.0619,1.5887
90.0639,1.7056
90.0659,1.7794
90.0669,1.6086
90.0669,1.6067
90.0669,1.603
90.0669,1.6071
90.0679,1.6086
90.0679,1.762
90.0679,1.7348
90.0679,1.5859
90.0689,1.5893
90.0719,1.5859
90.0719,1.593
90.0719,1.6776
90.0719,1.7436
90.0729,1.6979
90.0729,1.624
90.0729,1.6101
90.0729,1.6015
90.0738,1.5944
90.0788,1.6045
90.0788,1.7678
90.0788,1.6287
90.0788,1.587
90.0798,1.6071
90.0848,1.6082
90.0848,1.6227
90.0858,1.7065
90.0858,1.7618
90.0918,1.639
90.0918,1.6219
90.0928,1.6191
90.0928,1.6109
90.0928,1.6122
90.0988,1.7665
90.0988,1.6394
90.0988,1.5818
90.0988,1.5831
90.0998,1.5912
90.1058,1.587
90.1058,1.669
90.1058,1.7862
90.1068,1.768
90.1127,1.6215
90.1127,1.6275
90.1137,1.6307
90.1137,1.6264
90.1137,1.7894
90.1187,1.7609
90.1197,1.699
90.1197,1.6101
90.1197,1.6052
90.1257,1.6129
90.1267,1.6178
90.1267,1.7712
90.1267,1.7466
90.1267,1.5936
90.1327,1.5974
90.1327,1.5765
90.1327,1.5696
90.1337,1.5752
90.1397,1.6996
90.1397,1.6077
90.1397,1.5535
90.1407,1.5542
90.1407,1.549
90.1457,1.5524
90.1467,1.5655
90.1467,1.705
90.1467,1.575
90.1467,1.566
90.1546,1.5623
90.1616,1.548
90.1666,1.5417
90.1756,1.6529
90.1786,1.6705
90.1786,1.5246
90.1786,1.5167
90.1796,1.5244
90.1796,1.53
90.1806,1.566
90.1806,1.7222
90.1806,1.6791
90.1806,1.5554
90.1816,1.5237
90.1816,1.5396
90.1816,1.5239
90.1816,1.6185
90.1826,1.6471
90.1826,1.5737
90.1826,1.4999
90.1826,1.4768
90.1836,1.4805
90.1875,1.4809
90.1875,1.5083
90.1875,1.6784
90.1875,1.5218
90.1885,1.5162
90.1935,1.5081
90.1935,1.5149
90.1945,1.5156
90.1945,1.6129
90.1945,1.5713
90.2005,1.4845
90.2015,1.4924
90.2015,1.485
90.2015,1.4937
90.2075,1.4997
90.2085,1.6759
90.2085,1.6564
90.2085,1.528
90.2085,1.5287
90.2145,1.527
90.2145,1.527
90.2145,1.623
90.2155,1.6591
90.2215,1.6084
90.2215,1.521
90.2224,1.5235
90.2224,1.5203
90.2224,1.5475
90.2274,1.7035
90.2284,1.7132
90.2284,1.6131
90.2284,1.5741
90.2344,1.5812
90.2354,1.584
90.2354,1.5816
90.2354,1.7331
90.2354,1.6977
90.2414,1.5769
90.2414,1.5831
90.2414,1.6
90.2424,1.6047
90.2424,1.617
90.2484,1.8062
90.2484,1.66
90.2494,1.6411
90.2494,1.6289
90.2554,1.6305
90.2554,1.6214
90.2564,1.7359
90.2564,1.7987
90.2564,1.6161
90.2633,1.6264
90.2663,1.6155
90.2713,1.6229
90.2793,1.6457
90.2813,1.7899
90.2833,1.8023
90.2833,1.7078
90.2843,1.6486
90.2843,1.6508
90.2843,1.6474
90.2843,1.6452
90.2853,1.7991
90.2853,1.7564
90.2853,1.6285
90.2853,1.6332
90.2863,1.6433
90.2863,1.6576
90.2863,1.636
90.2883,1.8482
90.2893,1.7569
90.2893,1.6596
90.2893,1.6637
90.2903,1.6542
90.2963,1.6731
90.2963,1.7183
90.2972,1.8066
90.2972,1.6371
90.3032,1.6251
90.3032,1.6279
90.3032,1.6294
90.3032,1.6335
90.3042,1.7837
90.3092,1.7948
90.3092,1.7316
90.3092,1.6534
90.3102,1.6392
90.3162,1.6416
90.3162,1.6411
90.3172,1.8248
90.3172,1.8317
90.3172,1.6319
90.3222,1.6332
90.3232,1.6311
90.3232,1.6388
90.3232,1.651
90.3292,1.7907
90.3302,1.7397
90.3302,1.663
90.3312,1.6512
90.3312,1.654
90.3361,1.651
90.3361,1.6795
90.3361,1.8647
90.3371,1.6365
90.3371,1.6264
90.3431,1.6274
90.3431,1.6313
90.3441,1.6292
90.3441,1.7397
90.3501,1.7856
90.3501,1.6454
90.3511,1.6461
90.3511,1.6429
90.3511,1.633
90.3561,1.6506
90.3571,1.8332
90.3571,1.7815
90.3571,1.6283
90.3641,1.6127
90.3641,1.6199
90.3641,1.6313
90.3641,1.623
90.3651,1.7875
90.3720,1.7159
90.3730,1.6352
90.3810,1.6508
90.3850,1.6302
90.3900,1.6328
90.3910,1.6197
90.3940,1.7931
90.3940,1.6328
90.3940,1.6154
90.3950,1.6232
90.3950,1.612
90.3950,1.6266
90.3960,1.7342
90.3960,1.7757
90.3960,1.6358
90.3970,1.635
90.3970,1.632
90.3970,1.6392
90.3980,1.633
90.3980,1.8261
90.3980,1.7736
90.3980,1.6062
90.3990,1.6032
90.4040,1.6099
90.4040,1.6187
90.4050,1.7037
90.4050,1.7631
90.4109,1.7369
90.4109,1.6365
90.4109,1.6302
90.4119,1.6279
90.4119,1.6204
90.4169,1.6375
90.4179,1.7911
90.4179,1.6501
90.4179,1.6101
90.4239,1.6133
90.4249,1.6199
90.4249,1.6322
90.4249,1.7117
90.4249,1.7472
90.4309,1.6364
90.4309,1.6255
90.4309,1.6227
90.4319,1.6296
90.4319,1.6268
90.4379,1.7697
90.4379,1.7867
90.4389,1.5919
90.4389,1.5955
90.4449,1.6002
90.4449,1.5985
90.4459,1.6712
90.4459,1.7517
90.4459,1.7352
90.4518,1.6345
90.4518,1.6185
90.4518,1.6148
90.4518,1.6197
90.4588,1.7421
90.4588,1.7845
90.4588,1.6521
90.4588,1.581
90.4598,1.5765
90.4648,1.5677
90.4648,1.5863
90.4648,1.6343
90.4658,1.702
90.4718,1.5861
90.4718,1.5762
90.4728,1.5694
90.4728,1.5784
90.4728,1.5696
90.4778,1.7134
90.4788,1.735
90.4788,1.542
90.4788,1.543
90.4788,1.5482
90.4927,1.5707
90.4957,1.6094
90.5017,1.7266
90.5037,1.708
90.5057,1.6109
90.5067,1.6019
90.5067,1.6009
90.5067,1.6112
90.5067,1.7447
90.5077,1.7871
90.5077,1.7286
90.5077,1.6116
90.5077,1.6127
90.5087,1.6275
90.5087,1.6364
90.5087,1.6817
90.5087,1.8064
90.5087,1.6675
90.5117,1.6692
90.5127,1.6572
90.5127,1.6613
90.5137,1.6626
90.5187,1.765
90.5197,1.7035
90.5197,1.605
90.5197,1.6037
90.5207,1.6024
90.5256,1.6182
90.5256,1.6232
90.5256,1.7837
90.5266,1.7543
90.5266,1.6476
90.5326,1.6446
90.5326,1.6495
90.5336,1.6514
90.5336,1.7339
90.5396,1.8389
90.5396,1.7202
90.5406,1.651
90.5406,1.6345
90.5406,1.6322
90.5466,1.633
90.5466,1.8422
90.5466,1.8017
90.5466,1.6622
90.5536,1.6574
90.5536,1.6478
90.5536,1.6388
90.5536,1.6559
90.5546,1.7815
90.5595,1.7258
90.5595,1.6304
90.5605,1.6332
90.5605,1.635
90.5665,1.6508
90.5665,1.6435
90.5665,1.831
90.5675,1.8184
90.5675,1.6551
90.5725,1.6587
90.5735,1.6566
90.5735,1.6506
90.5735,1.7427
90.5735,1.7877
90.5805,1.7384
90.5805,1.6319
90.5805,1.6296
90.5805,1.6307
90.5875,1.6547
90.5875,1.8117
90.5875,1.8261
90.5875,1.7144
90.5885,1.6855
90.5955,1.6482
90.5974,1.6343
90.6044,1.6371
90.6124,1.7506
90.6144,1.7762
90.6164,1.6245
90.6174,1.5975
90.6174,1.5589
90.6174,1.5199
90.6174,1.4925
90.6184,1.6092
90.6184,1.4187
90.6184,1.3352
90.6194,1.2947
90.6194,1.2758
90.6194,1.2844
90.6194,1.321
90.6204,1.414
90.6204,1.4779
90.6204,1.7408
90.6204,1.7669
90.6214,1.7324
90.6214,1.7213
90.6274,1.9636
90.6274,2.0155
90.6284,2.0371
90.6284,2.1828
90.6343,2.218
90.6343,2.2021
90.6353,2.1981
90.6353,2.4213
90.6353,2.2958
90.6403,2.1349
90.6413,2.1089
90.6413,2.0558
90.6413,2.0348
90.6439,2.0003
90.6439,2.128
90.6439,2.0087
90.6439,1.9124
90.6439,1.87
90.6439,1.8392
90.6439,1.795
90.6439,1.7886
90.6439,1.8949
90.6595,1.831
90.6595,1.6394
90.6595,1.6337
90.6595,1.6516
90.6595,1.6531
90.6595,1.744
90.6595,1.7346
90.6595,1.7136
90.6595,1.6529
90.6595,1.6384
90.6751,1.6401
90.6751,1.6375
90.6751,1.7791
90.6751,1.7151
90.6751,1.5992
90.6751,1.5957
90.6751,1.596
90.6751,1.6035
90.6751,1.6118
90.6751,1.708
90.6751,1.6744
90.6751,1.6244
90.6751,1.6045
90.6908,1.6142
90.6908,1.611
90.6908,1.7596
90.6908,1.5897
90.6908,1.5867
90.6908,1.5921
90.6908,1.5929
90.6908,1.5777
90.6908,1.6934
90.7064,1.7318
90.7064,1.6056
90.7220,1.6084
90.7220,1.6161
90.7220,1.6026
90.7220,1.6221
90.7220,1.789
90.7220,1.735
90.7220,1.5839
90.7220,1.5846
90.7220,1.5869
90.7220,1.5947
90.7220,1.6853
90.7220,1.7536
90.7220,1.7001
90.7220,1.6182
90.7220,1.6176
90.7220,1.624
90.7220,1.6277
90.7376,1.6193
90.7376,1.7704
90.7376,1.6127
90.7376,1.6004
90.7376,1.5992
90.7376,1.6082
90.7376,1.5936
90.7376,1.6778
90.7376,1.7074
90.7376,1.6277
90.7376,1.6324
90.7376,1.6082
90.7376,1.6229
90.7532,1.6092
90.7532,1.765
90.7532,1.7401
90.7532,1.5863
90.7532,1.5867
90.7532,1.5975
90.7532,1.5942
90.7532,1.6692
90.7532,1.7333
90.7532,1.7185
90.7689,1.6214
90.7689,1.6193
90.7689,1.6094
90.7689,1.5891
90.7845,1.7485
90.7845,1.7333
90.7845,1.6454
90.7845,1.5992
90.7845,1.5945
90.7845,1.6009
90.7845,1.6056
90.7845,1.7211
90.7845,1.7065
90.7845,1.6249
90.7845,1.6215
90.7845,1.6116
90.7845,1.5964
90.7845,1.6013
90.7845,1.7249
90.7845,1.6247
90.7845,1.6
90.7845,1.603
90.8001,1.5906
90.8001,1.6019
90.8001,1.6452
90.8001,1.732
90.8001,1.6157
90.8001,1.5908
90.8001,1.5884
90.8001,1.5784
90.8001,1.5591
90.8001,1.6801
90.8157,1.6855
90.8157,1.597
90.8313,1.5321
90.8313,1.5276
90.8313,1.5344
90.8313,1.5437
90.8313,1.7127
90.8313,1.7033
90.8313,1.5469
90.8313,1.54
90.8313,1.5327
90.8313,1.525
90.8313,1.521
90.8313,1.7035
90.8313,1.5951
90.8313,1.5055
90.8313,1.4931
90.8313,1.491
90.8313,1.5006
90.8313,1.5302
90.8470,1.6666
90.8470,1.488
90.8470,1.5162
90.8470,1.5062
90.8470,1.5079
90.8470,1.503
90.8470,1.608
90.8470,1.6311
90.8470,1.5319
90.8470,1.4714
90.8470,1.4747
90.8470,1.4714
90.8626,1.483
90.8626,1.6632
90.8626,1.6187
90.8626,1.5087
90.8626,1.5047
90.8626,1.5062
90.8626,1.5171
90.8626,1.5225
90.8626,1.6459
90.8782,1.5657
90.8782,1.4987
90.8782,1.5049
90.8782,1.5209
90.8782,1.5443
90.8782,1.5494
90.8782,1.7266
90.8782,1.5769
90.8782,1.5795
90.8933,1.5735
90.8933,1.579
90.8933,1.5809
90.8943,1.7067
90.9003,1.7387
90.9003,1.5809
90.9003,1.5831
90.9013,1.5859
90.9013,1.5908
90.9063,1.6
90.9073,1.7896
90.9073,1.7777
90.9073,1.6611
90.9073,1.6294
90.9143,1.6264
90.9143,1.6052
90.9143,1.6529
90.9143,1.8021
90.9213,1.7292
90.9213,1.6206
90.9213,1.6471
90.9213,1.6335
90.9223,1.6416
90.9282,1.6651
90.9432,1.8316
90.9432,1.6975
90.9432,1.669
90.9442,1.6654
90.9442,1.669
90.9442,1.6877
90.9442,1.7536
90.9452,1.8274
90.9452,1.6414
90.9452,1.6469
90.9452,1.6486
90.9462,1.6517
90.9472,1.6641
90.9482,1.8426
90.9482,1.8239
90.9482,1.6954
90.9482,1.6816
90.9602,1.6831
90.9632,1.675
90.9671,1.7588
90.9691,1.8218
90.9711,1.7918
90.9711,1.6846
90.9711,1.6703
90.9721,1.6718
90.9721,1.6859
90.9721,1.669
90.9721,1.8751
90.9731,1.7509
90.9731,1.6936
90.9731,1.6641
90.9741,1.6836
90.9751,1.6906
90.9751,1.7359
90.9751,1.8167
90.9789,1.6486
90.9789,1.6795
90.9789,1.681
90.9789,1.6776
90.9789,1.6814
90.9789,1.8436
90.9789,1.8574
90.9789,1.6849
90.9789,1.6816
90.9945,1.6697
90.9945,1.6787
90.9945,1.7044
90.9945,1.7991
90.9945,1.7779
90.9945,1.6536
90.9945,1.6446
90.9945,1.6495
90.9945,1.6581
90.9945,1.7924
90.9945,1.8462
90.9945,1.7601
90.9945,1.6786
91.0101,1.6716
91.0101,1.672
91.0101,1.6471
91.0101,1.8276
91.0101,1.8132
91.0101,1.6666
91.0101,1.6493
91.0101,1.6465
91.0101,1.6489
91.0101,1.6411
91.0257,1.7699
91.0257,1.7652
91.0413,1.6846
91.0413,1.6673
91.0413,1.669
91.0413,1.6624
91.0413,1.6896
91.0413,1.8666
91.0413,1.6557
91.0413,1.6532
91.0413,1.6579
91.0413,1.6521
91.0413,1.6741
91.0413,1.7939
91.0413,1.8321
91.0413,1.7672
91.0413,1.6806
91.0413,1.6831
91.0413,1.6802
91.0413,1.6647
91.0570,1.8347
91.0570,1.7903
91.0570,1.6607
91.0570,1.6367
91.0570,1.6568
91.0570,1.6551
91.0570,1.6482
91.0570,1.78
91.0570,1.7374
91.0570,1.6748
91.0570,1.6827
91.0570,1.6735
91.0726,1.6606
91.0726,1.6501
91.0726,1.7847
91.0726,1.6604
91.0726,1.6604
91.0726,1.6641
91.0726,1.6641
91.0726,1.6546
91.0726,1.7532
91.0882,1.849
91.0882,1.6883
91.0882,1.6872
91.0882,1.6812
91.0882,1.6592
91.0882,1.6637
91.0882,1.7819
91.0882,1.7549
91.0882,1.636
91.0882,1.6367
91.1038,1.6399
91.1038,1.6403
91.1038,1.6861
91.1038,1.7453
91.1038,1.7249
91.1038,1.6392
91.1038,1.6371
91.1038,1.6384
91.1038,1.6394
91.1038,1.7723
91.1038,1.7402
91.1038,1.6375
91.1038,1.6274
91.1194,1.6214
91.1194,1.6191
91.1194,1.6242
91.1194,1.6921
91.1194,1.7359
91.1194,1.6399
91.1194,1.6527
91.1194,1.6362
91.1194,1.6439
91.1351,1.6664
91.1351,1.7757
91.1507,1.7117
91.1507,1.6551
91.1507,1.6446
91.1507,1.6692
91.1507,1.6677
91.1507,1.7384
91.1507,1.8473
91.1507,1.7057
91.1507,1.6881
91.1507,1.6937
91.1507,1.6887
91.1507,1.6898
91.1507,1.8137
91.1507,1.8079
91.1507,1.7417
91.1507,1.6591
91.1507,1.6686
91.1507,1.6847
91.1507,1.6876
91.1507,1.8766
91.1663,1.822
91.1663,1.7138
91.1663,1.7087
91.1663,1.7251
91.1663,1.7256
91.1663,1.7106
91.1663,1.8546
91.1663,1.7723
91.1663,1.7108
91.1663,1.7042
91.1859,1.7093
91.1859,1.7157
91.1859,1.7294
91.1869,1.8841
91.1869,1.7059
91.1919,1.7099
91.1929,1.7245
91.1929,1.7084
91.1929,1.7005
91.1929,1.8047
91.1998,1.8308
91.1998,1.6926
91.1998,1.6885
91.1998,1.6866
91.2068,1.6907
91.2068,1.7052
91.2068,1.8606
91.2068,1.8593
91.2078,1.7267
91.2128,1.7202
91.2128,1.7157
91.2128,1.7048
91.2138,1.8451
91.2198,1.8842
91.2198,1.7954
91.2208,1.6975
91.2208,1.6909
91.2208,1.6928
91.2258,1.7144
91.2268,1.8764
91.2268,1.8589
91.2268,1.7446
91.2338,1.726
91.2338,1.7331
91.2338,1.7387
91.2338,1.7104
91.2348,1.8278
91.2397,1.7552
91.2397,1.7018
91.2407,1.7041
91.2407,1.7101
91.2407,1.702
91.2487,1.6675
91.2517,1.7976
91.2577,1.6058
91.2647,1.5171
91.2667,1.4693
91.2687,1.4421
91.2687,1.3525
91.2697,1.444
91.2697,1.4693
91.2697,1.3958
91.2697,1.2762
91.2707,1.3095
91.2707,1.5006
91.2707,1.7558
91.2707,1.9958
91.2717,1.9371
91.2717,1.8269
91.2717,1.9609
91.2737,2.0496
91.2737,2.2131
91.2746,2.3073
91.2746,2.4711
91.2806,2.3997
91.2816,2.2945
91.2816,2.2722
91.2816,2.2229
91.2816,2.2056
91.2876,2.1743
91.2876,2.3119
91.2876,2.1743
91.2876,2.0492
91.2886,2.0226
91.2946,1.9883
91.2946,1.9418
91.2946,1.996
91.2956,2.0633
91.3016,1.7911
91.3016,1.7622
91.3026,1.7492
91.3026,1.7528
91.3026,1.7406
91.3076,1.8794
91.3086,1.9321
91.3086,1.7564
91.3086,1.7476
91.3155,1.7539
91.3155,1.7307
91.3155,1.7627
91.3155,1.8711
91.3165,1.8582
91.3215,1.7024
91.3215,1.6883
91.3225,1.6825
91.3225,1.6962
91.3285,1.792
91.3285,1.8557
91.3295,1.7671
91.3295,1.7035
91.3295,1.7012
91.3345,1.7057
91.3355,1.6853
91.3355,1.7221
91.3355,1.8259
91.3355,1.6744
91.3425,1.6784
91.3425,1.6763
91.3425,1.6718
91.3425,1.6711
91.3494,1.789
91.3494,1.7483
91.3494,1.6986
91.3504,1.7048
91.3504,1.7044
91.3554,1.7009
91.3554,1.7116
91.3564,1.8286
91.3564,1.8428
91.3624,1.6754
91.3684,1.6679
91.3754,1.6817
91.3774,1.6817
91.3804,1.8124
91.3804,1.8578
91.3804,1.7774
91.3804,1.702
91.3814,1.6984
91.3814,1.6966
91.3814,1.6847
91.3824,1.8726
91.3824,1.8196
91.3824,1.6842
91.3824,1.69
91.3834,1.6853
91.3834,1.6988
91.3834,1.6921
91.3834,1.8599
91.3893,1.7776
91.3903,1.7211
91.3903,1.7134
91.3903,1.7157
91.3973,1.7174
91.3973,1.7031
91.3973,1.8606
91.3973,1.7044
91.3983,1.7026
91.4033,1.7057
91.4033,1.6906
91.4043,1.6782
91.4043,1.7834
91.4103,1.8769
91.4103,1.7082
91.4113,1.6992
91.4113,1.7207
91.4113,1.7078
91.4163,1.726
91.4173,1.8871
91.4173,1.8419
91.4173,1.6962
91.4254,1.6876
91.4254,1.6911
91.4264,1.6997
91.4264,1.7624
91.4264,1.7944
91.4324,1.7136
91.4324,1.7151
91.4324,1.7191
91.4324,1.7041
91.4334,1.8827
91.4393,1.8284
91.4393,1.711
91.4393,1.6902
91.4403,1.6823
91.4463,1.6913
91.4463,1.6881
91.4463,1.7596
91.4473,1.7854
91.4473,1.6986
91.4523,1.6969
91.4533,1.6906
91.4533,1.6789
91.4533,1.6682
91.4593,1.8197
91.4603,1.6911
91.4603,1.6883
91.4603,1.6626
91.4603,1.6463
91.4663,1.6435
91.4663,1.7202
91.4663,1.8212
91.4673,1.7635
91.4732,1.6435
91.4762,1.6459
91.4772,1.6396
91.4842,1.6444
91.4882,1.7616
91.4932,1.762
91.4952,1.6482
91.4982,1.5962
91.4982,1.5996
91.4982,1.6067
91.4982,1.5994
91.4992,1.7586
91.4992,1.7376
91.4992,1.6071
91.4992,1.6034
91.5002,1.6094
91.5002,1.6024
91.5002,1.612
91.5002,1.7468
91.5012,1.6328
91.5012,1.5717
91.5012,1.576
91.5022,1.5786
91.5072,1.5754
91.5072,1.6227
91.5072,1.7382
91.5082,1.5865
91.5082,1.608
91.5131,1.6071
91.5141,1.6041
91.5141,1.6272
91.5141,1.7371
91.5201,1.7558
91.5211,1.6714
91.5211,1.5968
91.5211,1.6088
91.5211,1.6109
91.5271,1.6133
91.5271,1.7783
91.5271,1.7569
91.5271,1.6622
91.5281,1.6592
91.5341,1.6572
91.5341,1.6707
91.5341,1.6692
91.5351,1.8293
91.5411,1.7676
91.5411,1.6756
91.5421,1.6793
91.5421,1.6909
91.5421,1.6943
91.5470,1.7183
91.5480,1.8899
91.5480,1.7354
91.5480,1.7455
91.5540,1.7357
91.5550,1.7545
91.5550,1.7584
91.5550,1.8507
91.5560,1.9111
91.5610,1.7453
91.5610,1.744
91.5610,1.7404
91.5620,1.7408
91.5680,1.7386
91.5680,1.8985
91.5690,1.9024
91.5690,1.7783
91.5690,1.7744
91.5740,1.7837
91.5750,1.7862
91.5750,1.8634
91.5750,1.9225
91.5760,1.87
91.5820,1.7815
91.5820,1.7723
91.5820,1.7787
91.5829,1.7804
91.5959,1.9289
91.6039,1.9407
91.6059,1.8197
91.6079,1.7984
91.6079,1.8162
91.6089,1.7875
91.6089,1.7875
91.6089,1.8887
91.6089,1.8869
91.6099,1.7714
91.6099,1.7672
91.6099,1.7742
91.6099,1.7742
91.6099,1.7766
91.6109,1.9276
91.6109,1.8291
91.6109,1.7886
91.6109,1.7911
91.6159,1.7931
91.6159,1.7995
91.6159,1.8816
91.6169,1.9639
91.6169,1.8777
91.6218,1.7702
91.6218,1.7708
91.6228,1.7729
91.6228,1.7654
91.6228,1.9114
91.6288,1.9208
91.6298,1.8149
91.6298,1.7821
91.6308,1.7839
91.6368,1.7854
91.6368,1.7577
91.6368,1.9186
91.6368,1.8841
91.6378,1.7466
91.6428,1.7181
91.6428,1.6956
91.6438,1.6941
91.6438,1.7016
91.6498,1.8775
91.6498,1.7749
91.6508,1.7286
91.6508,1.7378
91.6508,1.7581
91.6558,1.768
91.6568,1.8136
91.6568,1.9274
91.6568,1.7744
91.6637,1.7742
91.6637,1.7851
91.6637,1.7933
91.6637,1.795
91.6647,1.9246
91.6697,1.9369
91.6697,1.8162
91.6707,1.8089
91.6707,1.8182
91.6707,1.8212
91.6767,1.8516
91.6767,1.9637
91.6777,1.9178
91.6777,1.7905
91.6837,1.7931
91.6847,1.7978
91.6847,1.7858
91.6847,1.9064
91.6847,1.924
91.6907,1.8514
91.6907,1.8091
91.6907,1.8006
91.6917,1.7967
91.6976,1.7856
91.7046,1.8047
91.7126,1.9015
91.7146,1.771
91.7176,1.7626
91.7176,1.7592
91.7176,1.7599
91.7176,1.7556
91.7186,1.8852
91.7186,1.8655
91.7186,1.7837
91.7186,1.7862
91.7196,1.7927
91.7196,1.7875
91.7196,1.8196
91.7206,1.9681
91.7206,1.7761
91.7206,1.7701
91.7206,1.7701
91.7246,1.7729
91.7246,1.7731
91.7256,1.8741
91.7256,1.9195
91.7316,1.8484
91.7316,1.8025
91.7326,1.7999
91.7326,1.7821
91.7326,1.7851
91.7385,1.9512
91.7385,1.9122
91.7385,1.7837
91.7385,1.774
91.7445,1.7723
91.7455,1.7717
91.7455,1.7875
91.7455,1.9231
91.7465,1.8711
91.7515,1.8031
91.7515,1.8087
91.7525,1.8004
91.7525,1.7811
91.7585,1.7939
91.7585,1.9778
91.7585,1.7961
91.7595,1.7697
91.7595,1.765
91.7645,1.7498
91.7655,1.7524
91.7655,1.8557
91.7655,1.9067
91.7655,1.7618
91.7724,1.7532
91.7724,1.7414
91.7724,1.7335
91.7724,1.7421
91.7794,1.8927
91.7794,1.8346
91.7794,1.738
91.7794,1.7095
91.7804,1.7116
91.7854,1.7155
91.7854,1.7237
91.7864,1.8692
91.7864,1.8539
91.7924,1.7491
91.7924,1.7626
91.7934,1.7644
91.7934,1.7534
91.7934,1.771
91.7994,1.9079
91.7994,1.7959
91.7994,1.7746
91.7994,1.7776
91.8054,1.7866
91.8083,1.7886
91.8103,1.8344
91.8173,1.9289
91.8253,1.8152
91.8273,1.8064
91.8293,1.8091
91.8303,1.8081
91.8303,1.8076
91.8303,1.9579
91.8303,1.9664
91.8313,1.7901
91.8313,1.7888
91.8313,1.7873
91.8323,1.7963
91.8323,1.8526
91.8323,1.9589
91.8323,1.9253
91.8333,1.8233
91.8333,1.8156
91.8333,1.8224
91.8333,1.8323
91.8333,1.8265
91.8403,1.948
91.8403,1.8556
91.8403,1.8196
91.8403,1.8134
91.8413,1.8077
91.8462,1.8119
91.8462,1.8364
91.8472,1.9827
91.8472,1.8424
91.8532,1.8404
91.8532,1.8368
91.8542,1.8179
91.8542,1.8334
91.8542,1.9716
91.8592,1.9641
91.8602,1.8156
91.8602,1.8107
91.8602,1.8001
91.8602,1.8014
91.8672,1.8342
91.8672,1.9546
91.8672,1.9427
91.8672,1.8306
91.8742,1.8319
91.8742,1.8286
91.8742,1.8398
91.8742,1.921
91.8752,1.9634
91.8802,1.8914
91.8802,1.8117
91.8812,1.8141
91.8812,1.8237
91.8871,1.8229
91.8871,1.8306
91.8881,1.9652
91.8881,1.843
91.8881,1.8512
91.8931,1.8582
91.8941,1.8421
91.8941,1.8302
91.8941,1.9161
91.9001,1.9523
91.9011,1.8091
91.9011,1.8182
91.9011,1.8106
91.9021,1.7798
91.9071,1.753
91.9071,1.8683
91.9071,1.8034
91.9081,1.5893
91.9081,1.5627
91.9141,1.5325
91.9141,1.4774
91.9151,1.4837
91.9151,1.5027
91.9230,1.4744
91.9290,1.3919
91.9370,1.5848
91.9380,1.8531
91.9410,1.9816
91.9410,1.9712
91.9410,2.0789
91.9420,1.9847
91.9420,2.062
91.9420,2.2945
91.9420,2.4408
91.9430,2.4764
91.9430,2.5242
91.9430,2.4944
91.9430,2.3937
91.9440,2.368
91.9440,2.3419
91.9440,2.3181
91.9480,2.2726
91.9480,2.395
91.9490,2.3401
91.9490,2.1381
91.9490,2.1063
91.9540,2.0944
91.9550,2.0594
91.9550,2.0663
91.9550,2.0873
91.9550,1.9861
91.9619,1.8771
91.9619,1.8436
91.9619,1.8226
91.9629,1.8124
91.9689,1.9324
91.9689,1.921
91.9689,1.8529
91.9699,1.8242
91.9699,1.8209
91.9749,1.8192
91.9749,1.8049
91.9759,1.8764
91.9759,1.9223
91.9819,1.7946
91.9819,1.7819
91.9829,1.7768
91.9829,1.7642
91.9829,1.7734
91.9879,1.9255
91.9889,1.9229
91.9889,1.7942
91.9889,1.7909
91.9948,1.7858
91.9958,1.801
91.9958,1.8432
91.9958,1.9212
91.9968,1.8899
92.0018,1.7672
92.0018,1.7669
92.0018,1.7663
92.0028,1.7671
92.0028,1.8884
92.0088,1.8985
92.0088,1.8237
92.0098,1.7792
92.0098,1.7792
92.0158,1.7766
92.0168,1.7672
92.0168,1.8126
92.0168,1.873
92.0168,1.7607
92.0228,1.7672
92.0228,1.7534
92.0228,1.7584
92.0228,1.7515
92.0298,1.8529
92.0317,1.8467
92.0387,1.7802
92.0467,1.7729
92.0487,1.7807
92.0507,1.7723
92.0507,1.8201
92.0517,1.9431
92.0517,1.9094
92.0517,1.762
92.0517,1.7592
92.0527,1.7661
92.0527,1.774
92.0527,1.8587
92.0527,1.8942
92.0527,1.8503
92.0537,1.7791
92.0537,1.7843
92.0537,1.7839
92.0567,1.7781
92.0567,1.9519
92.0567,1.8946
92.0567,1.7676
92.0637,1.7695
92.0637,1.7714
92.0637,1.7699
92.0647,1.7676
92.0647,1.8567
92.0696,1.8362
92.0706,1.783
92.0706,1.7789
92.0706,1.7768
92.0766,1.7682
92.0776,1.7699
92.0776,1.9217
92.0776,1.7731
92.0776,1.7564
92.0836,1.7594
92.0836,1.7582
92.0836,1.7401
92.0836,1.8567
92.0906,1.9169
92.0906,1.7747
92.0906,1.771
92.0916,1.7695
92.0916,1.7702
92.0966,1.7727
92.0976,1.9302
92.0976,1.882
92.0976,1.7612
92.0976,1.7273
92.1046,1.7275
92.1046,1.7367
92.1046,1.7999
92.1046,1.8394
92.1115,1.8027
92.1115,1.738
92.1115,1.7249
92.1115,1.7296
92.1125,1.7425
92.1175,1.7309
92.1175,1.834
92.1185,1.7303
92.1185,1.7001
92.1245,1.69
92.1245,1.6894
92.1255,1.6789
92.1255,1.7451
92.1255,1.7856
92.1315,1.6765
92.1315,1.6804
92.1315,1.6823
92.1315,1.666
92.1385,1.6626
92.1385,1.8136
92.1385,1.768
92.1385,1.6454
92.1415,1.6358
92.1494,1.636
92.1584,1.6416
92.1604,1.675
92.1634,1.7571
92.1634,1.7466
92.1634,1.6531
92.1634,1.6564
92.1644,1.6544
92.1644,1.6381
92.1644,1.8072
92.1644,1.6696
92.1654,1.624
92.1654,1.6182
92.1654,1.6217
92.1674,1.6709
92.1674,1.783
92.1674,1.7481
92.1674,1.6463
92.1744,1.6596
92.1744,1.6463
92.1744,1.6427
92.1744,1.6467
92.1754,1.7804
92.1804,1.7091
92.1804,1.6555
92.1813,1.654
92.1813,1.6574
92.1873,1.6538
92.1873,1.7191
92.1883,1.8192
92.1883,1.7072
92.1883,1.7179
92.1933,1.7215
92.1943,1.7369
92.1943,1.7279
92.1943,1.8535
92.1943,1.8743
92.2013,1.7419
92.2013,1.7446
92.2013,1.7464
92.2013,1.7507
92.2083,1.789
92.2083,1.9036
92.2083,1.8949
92.2093,1.8042
92.2093,1.8021
92.2143,1.8006
92.2153,1.8001
92.2153,1.8878
92.2153,1.9465
92.2212,1.8912
92.2222,1.8149
92.2222,1.8186
92.2222,1.8207
92.2222,1.813
92.2282,1.9874
92.2282,1.9801
92.2282,1.8505
92.2292,1.8471
92.2352,1.8458
92.2352,1.8479
92.2352,1.8623
92.2362,1.9351
92.2362,1.888
92.2412,1.8261
92.2412,1.8248
92.2422,1.8226
92.2422,1.8364
92.2422,1.8212
92.2482,1.9819
92.2492,1.8617
92.2492,1.8593
92.2492,1.8668
92.2611,1.8687
92.2631,1.8679
92.2691,1.9484
92.2711,1.9926
92.2741,1.9167
92.2741,1.8432
92.2741,1.8376
92.2741,1.8391
92.2751,1.8329
92.2751,1.9767
92.2751,1.9568
92.2751,1.8747
92.2761,1.8664
92.2761,1.8638
92.2761,1.8467
92.2771,1.8295
92.2771,2.0112
92.2771,1.9311
92.2821,1.8325
92.2831,1.8284
92.2831,1.8271
92.2831,1.8276
92.2831,1.8417
92.2891,1.9939
92.2891,1.8732
92.2891,1.8479
92.2901,1.8496
92.2901,1.8452
92.2960,1.8434
92.2970,1.9223
92.2970,1.984
92.2970,1.8329
92.3030,1.8241
92.3030,1.8229
92.3040,1.8209
92.3040,1.8216
92.3040,1.9405
92.3100,1.9536
92.3100,1.8869
92.3100,1.8359
92.3110,1.8361
92.3170,1.8336
92.3170,1.8244
92.3170,1.9887
92.3170,1.9343
92.3180,1.8079
92.3230,1.7944
92.3230,1.7875
92.3240,1.7922
92.3240,1.7978
92.3300,1.9418
92.3300,1.8586
92.3309,1.8166
92.3309,1.8242
92.3309,1.8227
92.3360,1.8139
92.3369,1.8846
92.3369,1.9662
92.3369,1.8286
92.3369,1.8297
92.3439,1.8271
92.3439,1.8151
92.3439,1.8064
92.3439,1.9064
92.3509,1.9266
92.3509,1.834
92.3509,1.8302
92.3519,1.8252
92.3519,1.8302
92.3569,1.8779
92.3569,1.987
92.3579,1.9442
92.3579,1.831
92.3649,1.8175
92.3669,1.8181
92.3738,1.8276
92.3818,1.8331
92.3838,1.9429
92.3858,1.8854
92.3868,1.8346
92.3868,1.8357
92.3868,1.8276
92.3878,1.8267
92.3878,1.8632
92.3878,1.933
92.3878,1.8169
92.3878,1.819
92.3888,1.8109
92.3888,1.8211
92.3888,1.8115
92.3888,1.906
92.3898,1.9808
92.3908,1.8368
92.3908,1.8407
92.3918,1.8419
92.3918,1.8327
92.3978,1.8593
92.3978,1.9956
92.3988,1.9493
92.3988,1.8188
92.3988,1.8079
92.4047,1.8134
92.4047,1.8194
92.4047,1.9067
92.4047,1.9412
92.4117,1.8786
92.4117,1.8312
92.4117,1.8372
92.4127,1.8314
92.4127,1.825
92.4177,1.8286
92.4177,1.9519
92.4187,1.8409
92.4187,1.8239
92.4247,1.8139
92.4247,1.8006
92.4257,1.7931
92.4257,1.9028
92.4257,1.9536
92.4307,1.8145
92.4317,1.8025
92.4317,1.8117
92.4317,1.8175
92.4317,1.8036
92.4387,1.9431
92.4387,1.9036
92.4387,1.7627
92.4387,1.7474
92.4456,1.7509
92.4456,1.7549
92.4456,1.8218
92.4456,1.8887
92.4466,1.8317
92.4516,1.7695
92.4516,1.7682
92.4526,1.7736
92.4526,1.7667
92.4586,1.9013
92.4586,1.9129
92.4596,1.8224
92.4596,1.7978
92.4596,1.7959
92.4656,1.7971
92.4656,1.7972
92.4656,1.8814
92.4656,1.933
92.4726,1.8391
92.4726,1.8413
92.4726,1.8319
92.4726,1.8396
92.4736,1.8342
92.4835,1.9553
92.4915,1.8505
92.4935,1.8098
92.4965,1.8062
92.4965,1.8152
92.4965,1.8276
92.4975,1.8734
92.4975,1.9544
92.4975,1.93
92.4975,1.8535
92.4985,1.8552
92.4985,1.8565
92.4985,1.8535
92.4985,2.0101
92.4995,2.0056
92.4995,1.8929
92.4995,1.8278
92.5005,1.8242
92.5065,1.8344
92.5065,1.8347
92.5075,1.9652
92.5075,1.9444
92.5075,1.8492
92.5125,1.8582
92.5135,1.8572
92.5135,1.8535
92.5135,1.8593
92.5194,1.9724
92.5204,1.8891
92.5204,1.8531
92.5204,1.8531
92.5214,1.8497
92.5264,1.8424
92.5264,1.8685
92.5264,1.9984
92.5274,1.8722
92.5274,1.8578
92.5334,1.8526
92.5334,1.8546
92.5344,1.8595
92.5344,1.9816
92.5404,1.9937
92.5414,1.8539
92.5414,1.8445
92.5414,1.8422
92.5414,1.8407
92.5474,1.8734
92.5474,1.975
92.5474,1.9589
92.5474,1.8679
92.5544,1.8647
92.5544,1.8638
92.5544,1.8715
92.5553,1.9429
92.5553,1.9906
92.5603,1.9315
92.5603,1.8739
92.5613,1.8826
92.5613,1.8747
92.5673,1.8653
92.5683,1.8692
92.5683,2.0031
92.5683,1.8914
92.5683,1.8946
92.5743,1.8857
92.5743,1.8546
92.5743,1.8391
92.5743,1.8782
92.5753,1.7644
92.5813,1.6577
92.5813,1.6345
92.5813,1.6082
92.5823,1.524
92.5942,1.5032
92.5962,1.6197
92.6032,1.6165
92.6042,1.6939
92.6072,1.9208
92.6072,2.0395
92.6082,1.9966
92.6082,2.0457
92.6082,2.0789
92.6082,2.1012
92.6092,2.209
92.6092,2.3622
92.6092,2.4404
92.6102,2.4344
92.6102,2.524
92.6102,2.4698
92.6102,2.3498
92.6102,2.3239
92.6152,2.3328
92.6152,2.3314
92.6162,2.2971
92.6162,2.362
92.6162,2.2566
92.6212,2.1484
92.6222,2.1156
92.6222,2.0515
92.6222,2.0226
92.6222,1.987
92.6291,2.0939
92.6291,1.9313
92.6291,1.8902
92.6301,1.8788
92.6361,1.8533
92.6361,1.8552
92.6361,1.9381
92.6361,1.9936
92.6371,1.8559
92.6421,1.843
92.6421,1.8301
92.6431,1.8299
92.6431,1.8374
92.6491,1.9427
92.6501,1.9456
92.6501,1.8346
92.6501,1.8368
92.6501,1.8385
92.6561,1.8297
92.6561,1.8781
92.6561,1.9339
92.6561,1.9021
92.6631,1.807
92.6631,1.7959
92.6631,1.7922
92.6641,1.7986
92.6641,1.9141
92.6690,1.9414
92.6690,1.8621
92.6700,1.8224
92.6700,1.8201
92.6700,1.816
92.6760,1.8034
92.6770,1.8571
92.6770,1.9124
92.6770,1.804
92.6860,1.7909
92.6910,1.7873
92.6990,1.7832
92.7010,1.7766
92.7030,1.9002
92.7040,1.8518
92.7040,1.8053
92.7040,1.8006
92.7040,1.8008
92.7049,1.8151
92.7049,1.8484
92.7049,1.951
92.7049,1.8966
92.7049,1.7826
92.7059,1.7806
92.7059,1.7828
92.7059,1.7897
92.7059,1.8869
92.7099,1.9216
92.7109,1.8464
92.7109,1.8068
92.7109,1.8042
92.7119,1.8032
92.7150,1.7991
92.7150,1.9262
92.7150,1.8891
92.7150,1.7901
92.7150,1.7897
92.7150,1.7856
92.7150,1.7866
92.7150,1.7759
92.7150,1.9362
92.7308,1.8642
92.7318,1.8047
92.7318,1.8115
92.7318,1.8096
92.7318,1.8141
92.7378,1.8235
92.7378,1.9244
92.7378,1.795
92.7388,1.7879
92.7448,1.7755
92.7448,1.7702
92.7448,1.7701
92.7458,1.8499
92.7458,1.9118
92.7508,1.7881
92.7517,1.7933
92.7517,1.7959
92.7517,1.7937
92.7577,1.7772
92.7587,1.9099
92.7587,1.9442
92.7587,1.7813
92.7587,1.7641
92.7647,1.7541
92.7647,1.7601
92.7647,1.8235
92.7657,1.8976
92.7657,1.8336
92.7717,1.7785
92.7717,1.7732
92.7727,1.7663
92.7727,1.7567
92.7787,1.7656
92.7787,1.8985
92.7797,1.7558
92.7797,1.7369
92.7797,1.7266
92.7857,1.7247
92.7857,1.7164
92.7857,1.7956
92.7857,1.7999
92.7926,1.7307
92.7926,1.7251
92.7926,1.7213
92.7926,1.7183
92.7956,1.7202
92.8036,1.8537
92.8076,1.7087
92.8126,1.6729
92.8156,1.6619
92.8156,1.6602
92.8156,1.675
92.8156,1.7192
92.8166,1.7909
92.8166,1.7502
92.8166,1.6714
92.8166,1.6726
92.8176,1.6737
92.8176,1.669
92.8176,1.7933
92.8196,1.7839
92.8196,1.6814
92.8196,1.6448
92.8206,1.6375
92.8266,1.6384
92.8266,1.6399
92.8266,1.7654
92.8275,1.7627
92.8275,1.6602
92.8325,1.6602
92.8335,1.6617
92.8335,1.6446
92.8335,1.6534
92.8395,1.7881
92.8405,1.6741
92.8405,1.6388
92.8405,1.6463
92.8405,1.6427
92.8465,1.6531
92.8465,1.696
92.8465,1.7937
92.8475,1.6842
92.8535,1.6885
92.8535,1.7001
92.8535,1.7119
92.8545,1.7155
92.8545,1.8271
92.8595,1.8394
92.8605,1.726
92.8605,1.7258
92.8605,1.7299
92.8605,1.738
92.8674,1.7918
92.8674,1.9144
92.8674,1.894
92.8674,1.7789
92.8744,1.7867
92.8744,1.7961
92.8744,1.7993
92.8744,1.9171
92.8754,1.9371
92.8804,1.8473
92.8804,1.7989
92.8814,1.8049
92.8814,1.8079
92.8894,1.8032
92.8894,1.84
92.8894,1.9626
92.8894,1.8368
92.8904,1.8437
92.8954,1.8449
92.8954,1.84
92.8964,1.96
92.8964,1.9103
92.9023,1.8409
92.9023,1.8349
92.9033,1.8327
92.9033,1.8347
92.9033,1.8413
92.9153,1.9718
92.9173,1.8719
92.9243,1.8717
92.9263,1.876
92.9283,1.8715
92.9293,1.885
92.9293,1.9613
92.9303,1.9911
92.9303,1.9431
92.9303,1.8623
92.9303,1.8616
92.9313,1.8644
92.9313,1.8557
92.9313,2.0097
92.9313,1.9746
92.9323,1.879
92.9323,1.8706
92.9323,1.8724
92.9363,1.8653
92.9373,1.8691
92.9373,2.0258
92.9373,1.9491
92.9373,1.8601
92.9432,1.8563
92.9432,1.8398
92.9432,1.8511
92.9442,1.8556
92.9502,1.9883
92.9502,1.8814
92.9502,1.8638
92.9512,1.8629
92.9512,1.8677
92.9562,1.8707
92.9572,1.9396
92.9572,1.9757
92.9572,1.8557
92.9572,1.8482
92.9642,1.8437
92.9642,1.8452
92.9642,1.8456
92.9642,1.9883
92.9712,1.9742
92.9712,1.8698
92.9712,1.8601
92.9722,1.8589
92.9722,1.849
92.9771,1.8962
92.9771,1.9427
92.9781,1.9156
92.9781,1.8361
92.9841,1.8329
92.9841,1.8302
92.9851,1.8284
92.9851,1.8186
92.9851,1.936
92.9911,1.8597
92.9911,1.849
92.9911,1.8507
92.9911,1.8544
92.9981,1.8422
92.9981,1.8897
92.9981,1.9324
92.9981,1.8259
92.9991,1.8186
93.0041,1.8203
93.0041,1.8151
93.0051,1.8051
93.0051,1.8929
93.0051,1.9294
93.0111,1.8361
93.0121,1.8312
93.0121,1.8317
93.0121,1.8227
93.0190,1.8758
93.0200,1.9686
93.0230,1.9594
93.0290,1.8233
93.0370,1.81
93.0390,1.8119
93.0410,1.8046
93.0410,1.9407
93.0420,1.9699
93.0420,1.8805
93.0420,1.8355
93.0420,1.8308
93.0430,1.8347
93.0430,1.8426
93.0430,1.8651
93.0430,1.9311
93.0440,1.8197
93.0440,1.8182
93.0450,1.8265
93.0450,1.8287
93.0460,1.8143
93.0470,1.9304
93.0470,1.9542
93.0510,1.8302
93.0519,1.8344
93.0519,1.8368
93.0519,1.8308
93.0529,1.8477
93.0589,1.9442
93.0589,1.9412
93.0589,1.8246
93.0589,1.8119
93.0659,1.8169
93.0659,1.8209
93.0659,1.8747
93.0659,1.9054
93.0669,1.8914
93.0719,1.8364
93.0719,1.8379
93.0729,1.8404
93.0729,1.8265
93.0789,1.8475
93.0789,1.9354
93.0799,1.8381
93.0799,1.8254
93.0799,1.8134
93.0859,1.8119
93.0859,1.8145
93.0859,1.8771
93.0859,1.8886
93.0928,1.8361
93.0928,1.8297
93.0928,1.8346
93.0928,1.8128
93.0938,1.8235
93.0988,1.9491
93.0988,1.9296
93.0998,1.822
93.0998,1.8197
93.0998,1.813
93.1058,1.8059
93.1068,1.8818
93.1068,1.9669
93.1068,1.921
93.1128,1.8297
93.1138,1.8323
93.1138,1.8301
93.1138,1.8211
93.1138,1.9639
93.1198,1.9441
93.1198,1.8256
93.1198,1.8042
93.1208,1.7879
93.1267,1.7776
93.1297,1.7717
93.1327,1.9321
93.1387,1.8704
93.1457,1.7864
93.1477,1.7802
93.1507,1.7746
93.1507,1.759
93.1507,1.7759
93.1507,1.9501
93.1517,1.7792
93.1517,1.7551
93.1517,1.7626
93.1517,1.7586
93.1527,1.7719
93.1527,1.8246
93.1527,1.8966
93.1527,1.7997
93.1537,1.7971
93.1537,1.7995
93.1537,1.8077
93.1537,1.7995
93.1547,1.936
93.1607,1.9231
93.1607,1.8411
93.1617,1.8107
93.1617,1.8044
93.1617,1.8104
93.1666,1.8145
93.1676,1.9266
93.1676,1.9208
93.1676,1.8387
93.1736,1.8329
93.1746,1.8402
93.1746,1.8289
93.1746,1.8287
93.1746,1.9606
93.1806,1.8734
93.1806,1.8396
93.1806,1.8284
93.1816,1.8167
93.1876,1.8151
93.1876,1.8404
93.1876,1.9486
93.1886,1.8394
93.1886,1.8387
93.1936,1.8338
93.1946,1.8242
93.1946,1.8274
93.1946,1.9191
93.1946,1.9399
93.2015,1.8293
93.2015,1.8252
93.2015,1.8184
93.2015,1.8226
93.2085,1.852
93.2085,1.9591
93.2085,1.9756
93.2085,1.8488
93.2095,1.843
93.2145,1.8392
93.2145,1.8563
93.2155,1.9607
93.2155,1.9941
93.2215,1.8934
93.2215,1.8274
93.2225,1.8241
93.2225,1.8209
93.2225,1.8259
93.2285,1.8526
93.2285,1.9403
93.2285,1.8456
93.2285,1.8497
93.2355,1.8477
93.2355,1.8316
93.2355,1.8389
93.2355,1.9334
93.2365,1.8876
93.2414,1.8415
93.2494,1.8347
93.2574,1.831
93.2594,1.8297
93.2614,1.8349
93.2624,1.9615
93.2624,1.9812
93.2634,1.8724
93.2634,1.8683
93.2634,1.8796
93.2634,1.8674
93.2644,1.9382
93.2644,1.9741
93.2644,1.9139
93.2654,1.8327
93.2654,1.8312
93.2654,1.822
93.2654,1.7929
93.2694,1.8842
93.2694,1.8171
93.2694,1.663
93.2704,1.569
93.2704,1.5366
93.2754,1.488
93.2763,1.443
93.2763,1.5252
93.2763,1.485
93.2823,1.4057
93.2833,1.4243
93.2833,1.8499
93.2833,1.9424
93.2833,1.9199
93.2893,2.0234
93.2893,1.9501
93.2893,2.0076
93.2903,2.0937
93.2903,2.3734
93.2963,2.3961
93.2963,2.4672
93.2973,2.5085
93.2973,2.3491
93.3033,2.3013
93.3043,2.3007
93.3043,2.284
93.3043,2.239
93.3043,2.3898
93.3103,2.3549
93.3103,2.1396
93.3103,2.0967
93.3103,2.0901
93.3172,2.0658
93.3172,2.0626
93.3172,2.1314
93.3172,2.0267
93.3182,1.8923
93.3232,1.8404
93.3232,1.8362
93.3242,1.8177
93.3242,1.9531
93.3302,1.9486
93.3312,1.8627
93.3312,1.8233
93.3312,1.819
93.3312,1.8196
93.3372,1.8134
93.3372,1.8912
93.3372,1.9067
93.3382,1.7879
93.3382,1.7779
93.3442,1.7635
93.3442,1.7747
93.3442,1.7716
93.3452,1.8865
93.3521,1.8242
93.3541,1.7882
93.3611,1.7841
93.3701,1.7907
93.3711,1.7881
93.3741,1.8293
93.3741,1.9221
93.3751,1.8762
93.3751,1.7665
93.3751,1.7774
93.3761,1.759
93.3761,1.7603
93.3761,1.8692
93.3761,1.9077
93.3771,1.8376
93.3771,1.7789
93.3771,1.7757
93.3771,1.7815
93.3781,1.7954
93.3781,1.9276
93.3791,1.8882
93.3791,1.7592
93.3801,1.7545
93.3851,1.7481
93.3851,1.7618
93.3851,1.7537
93.3851,1.8745
93.3851,1.8179
93.3920,1.7794
93.3920,1.7789
93.3920,1.7791
93.3930,1.7663
93.3990,1.8152
93.3990,1.8664
93.3990,1.762
93.4000,1.7603
93.4000,1.7549
93.4055,1.7577
93.4055,1.7423
93.4055,1.834
93.4055,1.8966
93.4125,1.7912
93.4125,1.7776
93.4125,1.7821
93.4135,1.7597
93.4135,1.7995
93.4184,1.9358
93.4194,1.8996
93.4194,1.7522
93.4194,1.756
93.4254,1.7496
93.4264,1.7522
93.4264,1.8182
93.4264,1.8987
93.4264,1.8522
93.4324,1.7717
93.4324,1.7708
93.4324,1.7691
93.4334,1.7556
93.4334,1.9189
93.4394,1.9052
93.4394,1.7567
93.4404,1.7511
93.4404,1.7502
93.4474,1.7496
93.4484,1.7552
93.4554,1.8518
93.4623,1.8449
93.4633,1.7772
93.4663,1.7689
93.4663,1.7734
93.4663,1.7734
93.4663,1.774
93.4673,1.9186
93.4673,1.7732
93.4673,1.7639
93.4673,1.7494
93.4683,1.7483
93.4683,1.7371
93.4683,1.8417
93.4683,1.9019
93.4683,1.8329
93.4733,1.7477
93.4733,1.7434
93.4743,1.7759
93.4743,1.7474
93.4743,1.8996
93.4793,1.8782
93.4803,1.7537
93.4803,1.7275
93.4803,1.7249
93.4803,1.7204
93.4873,1.7119
93.4873,1.8563
93.4873,1.8167
93.4873,1.7305
93.4942,1.7228
93.4942,1.7131
93.4942,1.7136
93.4952,1.6967
93.4952,1.8464
93.5002,1.7221
93.5012,1.6823
93.5012,1.6817
93.5012,1.6756
93.5072,1.6756
93.5082,1.7342
93.5082,1.8186
93.5082,1.6799
93.5082,1.6868
93.5142,1.6877
93.5142,1.6774
93.5142,1.6729
93.5142,1.7729
93.5212,1.8164
93.5212,1.6566
93.5212,1.6502
93.5212,1.648
93.5222,1.651
93.5272,1.7119
93.5272,1.7982
93.5282,1.7545
93.5282,1.6544
93.5282,1.6591
93.5341,1.6654
93.5351,1.6694
93.5351,1.7976
93.5351,1.7995
93.5421,1.6928
93.5421,1.6557
93.5421,1.6658
93.5421,1.6647
93.5431,1.6654
93.5481,1.6928
93.5481,1.7903
93.5481,1.6907
93.5491,1.7082
93.5551,1.7082
93.5551,1.6934
93.5561,1.7029
93.5561,1.8319
93.5561,1.783
93.5661,1.7202
93.5730,1.7151
93.5750,1.7194
93.5770,1.7056
93.5780,1.7569
93.5780,1.9049
93.5780,1.8794
93.5780,1.7564
93.5790,1.7657
93.5800,1.78
93.5800,1.7721
93.5800,1.8951
93.5800,1.9266
93.5810,1.8389
93.5820,1.7596
93.5830,1.7582
93.5830,1.7536
93.5830,1.7716
93.5890,1.9071
93.5900,1.9051
93.5900,1.8068
93.5900,1.8002
93.5900,1.8077
93.5960,1.8019
93.5960,1.8117
93.5970,1.9289
93.5970,1.8739
93.6030,1.7952
93.6030,1.7916
93.6030,1.7927
93.6040,1.7847
93.6040,1.7911
93.6089,1.9544
93.6099,1.8134
93.6099,1.8044
93.6099,1.8136
93.6179,1.7984
93.6179,1.8158
93.6189,1.9148
93.6189,1.9606
93.6189,1.8042
93.6239,1.7873
93.6249,1.801
93.6249,1.786
93.6249,1.9322
93.6259,1.9307
93.6319,1.7972
93.6319,1.8137
93.6319,1.8177
93.6329,1.8134
93.6389,1.8775
93.6389,1.9169
93.6389,1.8764
93.6399,1.7986
93.6399,1.7927
93.6448,1.798
93.6458,1.7939
93.6458,1.9148
93.6458,1.9296
93.6518,1.831
93.6528,1.8102
93.6528,1.8051
93.6528,1.8029
93.6528,1.8036
93.6588,1.9317
93.6588,1.8724
93.6588,1.7886
93.6588,1.786
93.6658,1.7783
93.6658,1.7929
93.6658,1.7789
93.6668,1.8792
93.6688,1.8304
93.6758,1.7907
93.6837,1.7935
93.6847,1.7935
93.6877,1.7896
93.6877,1.8473
93.6877,1.9261
93.6887,1.7729
93.6887,1.771
93.6887,1.7639
93.6887,1.7674
93.6897,1.7678
93.6897,1.9058
93.6897,1.9099
93.6897,1.7854
93.6927,1.7877
93.6927,1.7849
93.6937,1.7903
93.6937,1.831
93.6997,1.912
93.6997,1.8736
93.7007,1.7847
93.7007,1.7567
93.7007,1.7624
93.7067,1.7736
93.7067,1.7554
93.7067,1.8835
93.7067,1.8186
93.7137,1.777
93.7137,1.7851
93.7137,1.7806
93.7147,1.7729
93.7147,1.8012
93.7196,1.8773
93.7196,1.7596
93.7206,1.7614
93.7206,1.7404
93.7206,1.7543
93.7266,1.7483
93.7266,1.8597
93.7276,1.8256
93.7276,1.7682
93.7336,1.7714
93.7346,1.7746
93.7346,1.7682
93.7346,1.8042
93.7346,1.9182
93.7406,1.9127
93.7406,1.7487
93.7406,1.756
93.7406,1.7659
93.7476,1.7543
93.7476,1.8653
93.7476,1.9021
93.7486,1.8224
93.7486,1.7772
93.7536,1.7821
93.7536,1.7806
93.7545,1.7909
93.7545,1.9182
93.7605,1.8835
93.7605,1.7661
93.7615,1.7607
93.7615,1.7466
93.7615,1.7378
93.7675,1.7496
93.7675,1.8349
93.7675,1.8216
93.7675,1.7699
93.7685,1.7633
93.7745,1.7783
93.7745,1.7751
93.7745,1.7819
93.7755,1.9165
93.7835,1.7689
93.7885,1.7483
93.7964,1.777
93.7974,1.7642
93.7994,1.7601
93.8004,1.8027
93.8004,1.8771
93.8004,1.8501
93.8004,1.7751
93.8004,1.7809
93.8014,1.7749
93.8014,1.7539
93.8014,1.9232
93.8014,1.9034
93.8024,1.7669
93.8024,1.7626
93.8024,1.7521
93.8024,1.7586
93.8084,1.7584
93.8084,1.8291
93.8084,1.8434
93.8094,1.7706
93.8094,1.7721
93.8144,1.7791
93.8144,1.7706
93.8154,1.7744
93.8154,1.9276
93.8154,1.7836
93.8214,1.7618
93.8214,1.7581
93.8224,1.759
93.8224,1.7552
93.8284,1.8197
93.8293,1.8681
93.8293,1.8224
93.8293,1.7723
93.8303,1.7813
93.8353,1.7849
93.8353,1.7792
93.8353,1.8938
93.8353,1.8747
93.8423,1.7888
93.8423,1.7569
93.8423,1.7472
93.8423,1.7661
93.8433,1.756
93.8483,1.885
93.8483,1.8812
93.8493,1.7727
93.8493,1.774
93.8553,1.7794
93.8553,1.7776
93.8563,1.7937
93.8563,1.9191
93.8563,1.8002
93.8623,1.7599
93.8623,1.7566
93.8623,1.7449
93.8623,1.7357
93.8633,1.7612
93.8692,1.8248
93.8692,1.8327
93.8692,1.7273
93.8702,1.7215
93.8762,1.7144
93.8762,1.7256
93.8762,1.8164
93.8772,1.8096
93.8772,1.7401
93.8822,1.6913
93.8822,1.6984
93.8832,1.6868
93.8832,1.6917
93.8892,1.8036
93.8902,1.8062
93.8922,1.7258
93.8952,1.7177
93.9002,1.7142
93.9041,1.7187
93.9101,1.7172
93.9121,1.8242
93.9131,1.7819
93.9131,1.729
93.9131,1.7346
93.9131,1.7356
93.9141,1.7429
93.9141,1.7719
93.9141,1.9103
93.9141,1.7644
93.9151,1.7689
93.9151,1.7659
93.9151,1.7751
93.9161,1.7821
93.9171,1.8784
93.9171,1.8897
93.9171,1.8254
93.9231,1.7597
93.9241,1.7571
93.9241,1.7507
93.9241,1.7575
93.9241,1.8983
93.9301,1.9064
93.9301,1.7753
93.9301,1.7781
93.9301,1.7807
93.9371,1.7774
93.9371,1.7852
93.9371,1.8998
93.9381,1.8089
93.9381,1.7646
93.9430,1.7719
93.9440,1.7633
93.9440,1.7656
93.9440,1.7631
93.9500,1.8771
93.9510,1.774
93.9510,1.7856
93.9510,1.7826
93.9520,1.7753
93.9570,1.771
93.9570,1.8614
93.9570,1.9131
93.9570,1.7682
93.9580,1.7704
93.9640,1.7676
93.9640,1.7622
93.9650,1.7678
93.9650,1.8938
93.9710,1.9197
93.9710,1.7635
93.9720,1.7899
93.9720,1.8079
93.9720,1.7787
93.9780,1.8887
93.9780,1.9324
93.9780,1.8616
93.9780,1.7777
93.9849,1.7616
93.9849,1.7579
93.9849,1.7575
93.9849,1.9024
93.9849,1.8854
93.9909,1.7826
93.9909,1.7965
93.9909,1.7884
93.9919,1.7882
93.9979,1.7986
93.9979,1.8518
93.9989,1.8308
93.9989,1.7481
93.9989,1.7554
94.0049,1.7569
94.0119,1.7423
94.0188,1.7174
94.0208,1.8151
94.0228,1.6637
94.0228,1.5764
94.0238,1.528
94.0238,1.4989
94.0238,1.3907
94.0238,1.4322
94.0248,1.4472
94.0248,1.4063
94.0248,1.2897
94.0248,1.3217
94.0258,1.4119
94.0258,1.6847
94.0258,1.9816
94.0258,1.999
94.0318,1.9009
94.0328,1.9887
94.0328,2.0492
94.0328,2.1578
94.0328,2.3013
94.0388,2.5426
94.0388,2.485
94.0388,2.3586
94.0388,2.3466
94.0458,2.2904
94.0458,2.2429
94.0458,2.2221
94.0468,2.3224
94.0468,2.2028
94.0518,2.1323
94.0518,2.0658
94.0528,2.032
94.0528,2.0012
94.0528,2.0228
94.0587,2.0744
94.0597,1.8625
94.0597,1.8229
94.0597,1.7911
94.0667,1.7881
94.0667,1.7776
94.0667,1.8713
94.0667,1.8803
94.0677,1.7832
94.0727,1.7704
94.0727,1.7747
94.0727,1.786
94.0737,1.8012
94.0797,1.8861
94.0797,1.8649
94.0807,1.7506
94.0807,1.7266
94.0807,1.7129
94.0857,1.7515
94.0867,1.8301
94.0867,1.8196
94.0867,1.7858
94.0936,1.7363
94.0936,1.7354
94.0936,1.7369
94.0936,1.7232
94.0946,1.7513
94.0996,1.8304
94.0996,1.7215
94.0996,1.7159
94.1006,1.7078
94.1006,1.7269
94.1066,1.6952
94.1066,1.7749
94.1076,1.7901
94.1076,1.7365
94.1146,1.7352
94.1216,1.7372
94.1285,1.7162
94.1285,1.7294
94.1295,1.8449
94.1305,1.8509
94.1325,1.7127
94.1325,1.7149
94.1325,1.7087
94.1335,1.7046
94.1335,1.7944
94.1335,1.8347
94.1335,1.7836
94.1345,1.7078
94.1345,1.735
94.1345,1.7374
94.1345,1.7251
94.1345,1.8631
94.1405,1.846
94.1415,1.7132
94.1415,1.7048
94.1415,1.681
94.1415,1.7099
94.1475,1.6911
94.1475,1.8201
94.1475,1.7734
94.1485,1.7219
94.1485,1.7174
94.1545,1.726
94.1545,1.7217
94.1555,1.7123
94.1555,1.8719
94.1615,1.7104
94.1615,1.7003
94.1625,1.7012
94.1625,1.6947
94.1625,1.7056
94.1674,1.7749
94.1684,1.8111
94.1684,1.7166
94.1684,1.7224
94.1754,1.7267
94.1754,1.726
94.1754,1.7112
94.1754,1.822
94.1764,1.8216
94.1814,1.7326
94.1814,1.7033
94.1824,1.6996
94.1824,1.7048
94.1884,1.7515
94.1884,1.8046
94.1894,1.7997
94.1894,1.7196
94.1894,1.7277
94.1954,1.7166
94.1954,1.711
94.1954,1.7056
94.1954,1.8437
94.1954,1.7453
94.2023,1.708
94.2023,1.6891
94.2023,1.6832
94.2033,1.6838
94.2093,1.7241
94.2093,1.7999
94.2093,1.6943
94.2103,1.6761
94.2103,1.7209
94.2153,1.6823
94.2163,1.6787
94.2163,1.7959
94.2163,1.8407
94.2223,1.6626
94.2233,1.6636
94.2263,1.645
94.2333,1.645
94.2393,1.7123
94.2402,1.8029
94.2402,1.7464
94.2402,1.6649
94.2402,1.6591
94.2412,1.6641
94.2412,1.6516
94.2412,1.7695
94.2412,1.7869
94.2412,1.6763
94.2422,1.6133
94.2432,1.6101
94.2432,1.6092
94.2432,1.5972
94.2432,1.7597
94.2502,1.744
94.2502,1.6296
94.2502,1.6247
94.2502,1.6204
94.2572,1.6011
94.2572,1.6189
94.2572,1.7271
94.2572,1.648
94.2582,1.5897
94.2632,1.5859
94.2632,1.5827
94.2642,1.5719
94.2642,1.615
94.2702,1.7106
94.2702,1.6163
94.2712,1.5942
94.2712,1.5942
94.2712,1.5919
94.2772,1.6125
94.2772,1.7057
94.2772,1.7116
94.2772,1.5795
94.2841,1.5662
94.2841,1.5803
94.2841,1.5885
94.2841,1.611
94.2851,1.7337
94.2901,1.7372
94.2901,1.6244
94.2911,1.6309
94.2911,1.6401
94.2911,1.6474
94.2971,1.6396
94.2981,1.7729
94.2981,1.7041
94.2981,1.6337
94.3041,1.6589
94.3051,1.6504
94.3051,1.651
94.3051,1.6607
94.3051,1.8023
94.3111,1.6838
94.3111,1.6919
94.3111,1.6924
94.3121,1.7046
94.3180,1.7125
94.3180,1.8036
94.3180,1.7768
94.3190,1.7093
94.3190,1.7063
94.3240,1.6932
94.3240,1.7106
94.3250,1.7153
94.3250,1.8503
94.3310,1.8451
94.3320,1.7427
94.3320,1.7359
94.3320,1.7365
94.3320,1.7408
94.3400,1.7969
94.3450,1.8704
94.3520,1.8244
94.3529,1.7196
94.3549,1.7138
94.3559,1.7189
94.3559,1.7206
94.3559,1.8782
94.3559,1.8754
94.3569,1.7605
94.3569,1.7395
94.3569,1.7498
94.3569,1.7391
94.3579,1.9077
94.3599,1.834
94.3599,1.7296
94.3609,1.7271
94.3609,1.7232
94.3669,1.7335
94.3669,1.7292
94.3679,1.8496
94.3679,1.7672
94.3679,1.7342
94.3739,1.7492
94.3739,1.7384
94.3739,1.7391
94.3739,1.7957
94.3809,1.867
94.3809,1.7258
94.3809,1.7271
94.3809,1.726
94.3819,1.7179
94.3869,1.7215
94.3869,1.8353
94.3879,1.8445
94.3879,1.7672
94.3879,1.7363
94.3938,1.738
94.3948,1.7412
94.3948,1.7747
94.3948,1.8449
94.4008,1.8167
94.4018,1.708
94.4018,1.7136
94.4018,1.7084
94.4018,1.7093
94.4078,1.7097
94.4078,1.8351
94.4078,1.7612
94.4078,1.7297
94.4148,1.7401
94.4148,1.732
94.4148,1.708
94.4148,1.7642
94.4158,1.8064
94.4208,1.7091
94.4208,1.7076
94.4218,1.6973
94.4218,1.7084
94.4277,1.6947
94.4277,1.7894
94.4287,1.8539
94.4287,1.7059
94.4287,1.7161
94.4347,1.7204
94.4347,1.717
94.4347,1.7393
94.4347,1.8614
94.4357,1.8471
94.4417,1.7069
94.4417,1.6945
94.4417,1.6752
94.4427,1.7123
94.4537,1.7762
94.4577,1.8235
94.4646,1.7806
94.4666,1.7217
94.4666,1.7093
94.4676,1.7138
94.4676,1.7041
94.4676,1.7389
94.4676,1.8301
94.4686,1.687
94.4686,1.6795
94.4686,1.6902
94.4696,1.6718
94.4696,1.6772
94.4696,1.7794
94.4696,1.7507
94.4696,1.7026
94.4706,1.7086
94.4756,1.7114
94.4756,1.7196
94.4756,1.7087
94.4766,1.8464
94.4766,1.843
94.4816,1.6802
94.4826,1.6823
94.4826,1.6765
94.4826,1.6801
94.4826,1.738
94.4896,1.807
94.4896,1.7612
94.4896,1.7095
94.4896,1.7027
94.4966,1.7076
94.4966,1.7097
94.4966,1.8544
94.4976,1.8357
94.4976,1.7057
94.5025,1.6812
94.5025,1.6827
94.5035,1.6891
94.5035,1.6808
94.5095,1.8134
94.5095,1.7701
94.5105,1.6984
94.5105,1.7078
94.5105,1.7044
94.5165,1.6986
94.5165,1.7074
94.5165,1.8589
94.5165,1.7097
94.5235,1.6943
94.5235,1.6808
94.5235,1.6861
94.5235,1.6778
94.5245,1.7491
94.5295,1.8404
94.5295,1.7071
94.5305,1.7078
94.5305,1.7071
94.5305,1.711
94.5365,1.7095
94.5375,1.8659
94.5375,1.8428
94.5375,1.6881
94.5434,1.6789
94.5444,1.6748
94.5444,1.6748
94.5444,1.7446
94.5444,1.8447
94.5504,1.8006
94.5504,1.6952
94.5504,1.6928
94.5514,1.693
94.5584,1.7048
94.5594,1.6988
94.5614,1.8154
94.5674,1.7202
94.5734,1.6827
94.5754,1.672
94.5773,1.6757
94.5783,1.6699
94.5783,1.7342
94.5793,1.7879
94.5793,1.6943
94.5793,1.6919
94.5803,1.696
94.5803,1.6891
94.5803,1.6962
94.5803,1.8211
94.5813,1.7305
94.5813,1.6789
94.5813,1.6757
94.5843,1.6759
94.5843,1.6658
94.5853,1.7264
94.5853,1.8409
94.5913,1.8207
94.5923,1.6939
94.5923,1.6939
94.5923,1.6934
94.5923,1.6849
94.5983,1.813
94.5983,1.8349
94.5983,1.7434
94.5983,1.6729
94.6053,1.6697
94.6053,1.6615
94.6053,1.6577
94.6053,1.8411
94.6063,1.8177
94.6113,1.6904
94.6113,1.6857
94.6123,1.6816
94.6123,1.6782
94.6182,1.6984
94.6182,1.828
94.6192,1.735
94.6192,1.6694
94.6192,1.6669
94.6252,1.6615
94.6252,1.6724
94.6252,1.6782
94.6252,1.8094
94.6262,1.6744
94.6322,1.6613
94.6322,1.6546
94.6322,1.6606
94.6332,1.6508
94.6392,1.744
94.6392,1.7731
94.6402,1.6204
94.6402,1.6169
94.6402,1.612
94.6452,1.6105
94.6462,1.5966
94.6462,1.7455
94.6462,1.7599
94.6521,1.623
94.6531,1.6275
94.6531,1.632
94.6531,1.6334
94.6531,1.7151
94.6591,1.7562
94.6591,1.6947
94.6591,1.6257
94.6601,1.6339
94.6661,1.6407
94.6661,1.633
94.6661,1.6411
94.6671,1.7907
94.6671,1.6801
94.6781,1.681
94.6801,1.6902
94.6861,1.6703
94.6871,1.6701
94.6890,1.7522
94.6900,1.7959
94.6900,1.6716
94.6900,1.6677
94.6900,1.6609
94.6910,1.6544
94.6910,1.6465
94.6910,1.8469
94.6910,1.8321
94.6920,1.6735
94.6930,1.684
94.6930,1.6761
94.6930,1.6786
94.6940,1.7659
94.7000,1.8197
94.7000,1.771
94.7000,1.6671
94.7010,1.6574
94.7010,1.6561
94.7060,1.6581
94.7070,1.6577
94.7070,1.7935
94.7070,1.7131
94.7130,1.6889
94.7140,1.6831
94.7140,1.6763
94.7140,1.6703
94.7140,1.7556
94.7200,1.7939
94.7200,1.6613
94.7200,1.6611
94.7200,1.6636
94.7210,1.6529
94.7269,1.6609
94.7269,1.7888
94.7269,1.8227
94.7279,1.6851
94.7339,1.6791
94.7339,1.6816
94.7349,1.6694
94.7349,1.7569
94.7349,1.8332
94.7399,1.7766
94.7409,1.6637
94.7409,1.6499
94.7409,1.6619
94.7469,1.6576
94.7479,1.8119
94.7479,1.8128
94.7479,1.7132
94.7479,1.675
94.7539,1.6782
94.7539,1.6754
94.7539,1.6812
94.7549,1.7524
94.7609,1.8316
94.7609,1.6754
94.7609,1.6647
94.7619,1.6495
94.7619,1.6465
94.7668,1.6349
94.7678,1.7719
94.7678,1.7213
94.7678,1.6467
94.7678,1.6275
94.7748,1.6079
94.7748,1.5357
94.7748,1.5122
94.7748,1.5638
94.7828,1.5179
94.7868,1.2959
94.7878,1.2715
94.7878,1.263
94.7878,1.2632
94.7878,1.3562
94.7888,1.3975
94.7888,1.4376
94.7888,1.6677
94.7964,1.8049
94.7964,1.7626
94.7964,1.7491
94.7964,1.7779
94.7964,2.0654
94.7964,2.0596
94.7964,2.2143
94.7964,2.2437
94.7964,2.2146
94.7964,2.1884
94.7964,2.3198
94.7964,2.2516
94.7964,2.1438
94.7964,2.1288
94.8120,2.1012
94.8120,2.0174
94.8120,2.0076
94.8120,2.125
94.8120,2.0697
94.8120,1.8739
94.8120,1.8338
94.8120,1.7993
94.8120,1.7584
94.8276,1.8034
94.8276,1.8302
94.8276,1.7522
94.8276,1.6726
94.8276,1.6617
94.8276,1.6619
94.8276,1.6516
94.8276,1.8314
94.8276,1.8109
94.8276,1.6519
94.8276,1.6384
94.8276,1.618
94.8432,1.6133
94.8432,1.6215
94.8432,1.7129
94.8432,1.6928
94.8432,1.6242
94.8432,1.6152
94.8432,1.618
94.8432,1.6189
94.8432,1.6159
94.8432,1.7607
94.8432,1.6212
94.8614,1.5899
94.8624,1.5923
94.8624,1.5919
94.8634,1.5902
94.8634,1.6307
94.8694,1.7249
94.8694,1.6952
94.8694,1.6069
94.8694,1.6007
94.8763,1.5949
94.8763,1.5992
94.8763,1.7397
94.8773,1.7147
94.8773,1.6206
94.8823,1.5878
94.8823,1.5711
94.8833,1.585
94.8833,1.5694
94.8893,1.6362
94.8893,1.7209
94.8923,1.5921
94.8933,1.5947
94.9003,1.5968
94.9033,1.5805
94.9073,1.5893
94.9092,1.7746
94.9112,1.6268
94.9112,1.5737
94.9112,1.5756
94.9122,1.5668
94.9122,1.5827
94.9122,1.6328
94.9132,1.7269
94.9132,1.7065
94.9132,1.5912
94.9132,1.5964
94.9142,1.5949
94.9162,1.6
94.9162,1.7348
94.9172,1.7155
94.9172,1.6313
94.9232,1.5777
94.9242,1.5664
94.9242,1.5739
94.9242,1.5724
94.9242,1.7487
94.9302,1.7266
94.9302,1.5867
94.9302,1.5859
94.9302,1.5899
94.9372,1.584
94.9372,1.5985
94.9372,1.726
94.9372,1.6193
94.9382,1.5585
94.9432,1.5632
94.9432,1.5565
94.9442,1.5589
94.9442,1.5929
94.9501,1.7048
94.9501,1.5737
94.9511,1.5767
94.9511,1.5824
94.9511,1.5805
94.9571,1.5769
94.9571,1.6512
94.9571,1.7067
94.9571,1.6247
94.9571,1.5447
94.9641,1.5419
94.9641,1.5434
94.9641,1.5317
94.9641,1.6924
94.9711,1.6973
94.9711,1.566
94.9711,1.5647
94.9721,1.5585
94.9721,1.5443
94.9771,1.5428
94.9771,1.6778
94.9781,1.6202
94.9781,1.533
94.9840,1.5203
94.9840,1.5059
94.9850,1.5029
94.9850,1.51
94.9850,1.6292
94.9910,1.53
94.9910,1.5195
94.9910,1.5149
94.9910,1.5122
94.9980,1.5027
94.9980,1.5634
94.9980,1.6109
94.9980,1.5625
94.9990,1.4839
95.0090,1.4691
95.0120,1.4644
95.0160,1.4755
95.0180,1.6049
95.0199,1.5914
95.0199,1.4815
95.0209,1.467
95.0209,1.462
95.0209,1.4571
95.0209,1.4549
95.0209,1.576
95.0219,1.5411
95.0219,1.4316
95.0219,1.4279
95.0249,1.4181
95.0249,1.419
95.0249,1.4245
95.0249,1.5983
95.0319,1.4584
95.0319,1.4415
95.0319,1.4346
95.0329,1.4288
95.0329,1.429
95.0379,1.5276
95.0379,1.5606
95.0389,1.4258
95.0389,1.4219
95.0449,1.42
95.0449,1.4181
95.0459,1.4234
95.0459,1.5927
95.0459,1.5728
95.0519,1.476
95.0519,1.4554
95.0519,1.462
95.0519,1.4609
95.0519,1.4685
95.0588,1.5846
95.0588,1.572
95.0588,1.4693
95.0588,1.4669
95.0658,1.4723
95.0658,1.4787
95.0658,1.4817
95.0668,1.621
95.0668,1.5651
95.0718,1.528
95.0748,1.5342
95.0748,1.5385
95.0748,1.5321
95.0808,1.6208
95.0808,1.6609
95.0818,1.5501
95.0818,1.5525
95.0818,1.5439
95.0868,1.5627
95.0878,1.7026
95.0878,1.6422
95.0878,1.5784
95.0938,1.584
95.0947,1.5953
95.0947,1.5927
95.0947,1.648
95.0957,1.7399
95.1007,1.7204
95.1007,1.5867
95.1007,1.582
95.1017,1.5758
95.1017,1.5854
95.1077,1.7329
95.1077,1.7552
95.1087,1.6684
95.1087,1.6052
95.1167,1.611
95.1227,1.6135
95.1336,1.6075
95.1356,1.7699
95.1376,1.7346
95.1376,1.5983
95.1376,1.5882
95.1386,1.5854
95.1386,1.5814
95.1386,1.5891
95.1386,1.7498
95.1386,1.6757
95.1396,1.6071
95.1396,1.6146
95.1396,1.6079
95.1396,1.593
95.1406,1.6452
95.1406,1.7931
95.1416,1.587
95.1416,1.5775
95.1426,1.5797
95.1426,1.5882
95.1426,1.5786
95.1486,1.6885
95.1486,1.7326
95.1486,1.5919
95.1486,1.6002
95.1496,1.6041
95.1556,1.6
95.1556,1.6204
95.1556,1.7582
95.1566,1.7224
95.1626,1.5861
95.1626,1.5779
95.1636,1.5844
95.1636,1.5874
95.1636,1.5863
95.1686,1.7297
95.1695,1.6559
95.1695,1.6
95.1695,1.6
95.1755,1.5966
95.1765,1.585
95.1765,1.5949
95.1765,1.7054
95.1765,1.584
95.1825,1.5812
95.1825,1.5848
95.1825,1.5685
95.1835,1.5762
95.1895,1.6579
95.1895,1.6611
95.1905,1.5846
95.1905,1.5816
95.1905,1.5882
95.1955,1.5754
95.1965,1.5779
95.1965,1.7419
95.1965,1.6999
95.1965,1.5672
95.2035,1.5679
95.2035,1.5617
95.2035,1.5623
95.2035,1.6296
95.2104,1.6879
95.2104,1.6699
95.2104,1.5825
95.2104,1.587
95.2114,1.585
95.2164,1.5822
95.2164,1.7359
95.2164,1.7072
95.2174,1.5925
95.2254,1.5726
95.2264,1.5617
95.2294,1.5584
95.2344,1.5604
95.2414,1.6109
95.2424,1.6375
95.2443,1.5801
95.2443,1.5773
95.2453,1.5737
95.2453,1.5679
95.2463,1.5724
95.2463,1.7176
95.2463,1.7356
95.2463,1.5657
95.2463,1.5576
95.2463,1.5595
95.2473,1.5501
95.2473,1.6379
95.2473,1.7185
95.2503,1.6907
95.2503,1.5739
95.2513,1.5705
95.2513,1.5692
95.2574,1.5945
95.2574,1.7264
95.2584,1.6887
95.2584,1.5915
95.2584,1.5574
95.2634,1.5608
95.2644,1.5578
95.2644,1.5647
95.2644,1.6099
95.2704,1.6767
95.2714,1.5657
95.2714,1.5715
95.2714,1.587
95.2723,1.581
95.2773,1.5799
95.2773,1.7301
95.2773,1.6122
95.2783,1.5608
95.2843,1.5632
95.2843,1.5677
95.2843,1.546
95.2853,1.5919
95.2853,1.7132
95.2903,1.6784
95.2903,1.5805
95.2913,1.581
95.2913,1.5855
95.2913,1.5803
95.2973,1.6757
95.2983,1.696
95.2983,1.6551
95.2983,1.575
95.3053,1.5514
95.3053,1.5552
95.3053,1.554
95.3053,1.6632
95.3063,1.6862
95.3113,1.5724
95.3113,1.566
95.3123,1.5711
95.3123,1.5584
95.3184,1.5754
95.3184,1.6454
95.3184,1.6472
95.3194,1.5615
95.3224,1.5542
95.3293,1.5574
95.3353,1.5591
95.3373,1.5846
95.3393,1.708
95.3393,1.6904
95.3403,1.5728
95.3403,1.5767
95.3403,1.5734
95.3403,1.5812
95.3413,1.6658
95.3413,1.7121
95.3413,1.6148
95.3413,1.5338
95.3423,1.533
95.3453,1.5265
95.3453,1.5327
95.3463,1.6894
95.3463,1.6262
95.3524,1.5319
95.3524,1.5282
95.3524,1.5293
95.3534,1.5192
95.3534,1.5135
95.3584,1.6017
95.3584,1.5617
95.3594,1.507
95.3594,1.5032
95.3655,1.5032
95.3655,1.5055
95.3665,1.5098
95.3665,1.6456
95.3665,1.5565
95.3715,1.5507
95.3725,1.5516
95.3725,1.554
95.3725,1.54
95.3785,1.6019
95.3795,1.7022
95.3795,1.654
95.3795,1.5503
95.3795,1.5458
95.3856,1.5464
95.3856,1.5398
95.3856,1.6581
95.3866,1.7455
95.3866,1.5968
95.3927,1.5779
95.3927,1.585
95.3927,1.5865
95.3927,1.5737
95.3996,1.6799
95.3996,1.6375
95.4007,1.5869
95.4007,1.5653
95.4007,1.576
95.4057,1.5722
95.4067,1.5619
95.4067,1.7065
95.4067,1.6272
95.4128,1.5887
95.4138,1.5897
95.4138,1.5844
95.4138,1.5619
95.4138,1.5964
95.4198,1.729
95.4198,1.581
95.4198,1.5745
95.4198,1.5683
95.4269,1.564
95.4269,1.5745
95.4269,1.6581
95.4269,1.7187
95.4269,1.5966
95.4369,1.5964
95.4430,1.5983
95.4440,1.5921
95.4470,1.6204
95.4470,1.7549
95.4470,1.6799
95.4470,1.5809
95.4470,1.5728
95.4470,1.5767
95.4480,1.5803
95.4480,1.6868
95.4480,1.6982
95.4480,1.621
95.4480,1.5981
95.4541,1.5989
95.4541,1.6017
95.4541,1.5884
95.4541,1.7699
95.4612,1.7344
95.4612,1.5846
95.4612,1.5848
95.4612,1.5782
95.4622,1.5782
95.4673,1.581
95.4673,1.6774
95.4673,1.6643
95.4673,1.6206
95.4744,1.6259
95.4744,1.6043
95.4744,1.5865
95.4744,1.6118
95.4754,1.7892
95.4805,1.6009
95.4805,1.5953
95.4815,1.5942
95.4815,1.5719
95.4815,1.5334
95.4876,1.5784
95.4876,1.5942
95.4886,1.476
95.4886,1.3819
95.4948,1.3551
95.4948,1.3214
95.4957,1.2794
95.4957,1.4175
95.4957,1.4037
95.5018,1.3067
95.5018,1.6669
95.5018,1.7592
95.5018,1.7444
95.5090,1.7024
95.5090,1.8707
95.5090,1.825
95.5090,1.8244
95.5090,1.9662
95.5151,2.1824
95.5151,2.1715
95.5151,2.1423
95.5151,2.2221
95.5222,2.0457
95.5222,2.0528
95.5222,2.0348
95.5222,2.0331
95.5222,1.9949
95.5283,2.0146
95.5283,2.0973
95.5283,1.8827
95.5292,1.8623
95.5292,1.8186
95.5353,1.7924
95.5353,1.7417
95.5363,1.8233
95.5363,1.7515
95.5434,1.6159
95.5434,1.6019
95.5434,1.5837
95.5434,1.5797
95.5434,1.6313
95.5493,1.9024
95.5493,1.7275
95.5493,1.5775
95.5493,1.5764
95.5593,1.5677
95.5643,1.5764
95.5663,1.7168
95.5673,1.8949
95.5673,1.567
95.5673,1.5315
95.5683,1.5284
95.5683,1.519
95.5683,1.5306
95.5704,1.5765
95.5704,1.6253
95.5704,1.5404
95.5704,1.5507
95.5704,1.5486
95.5768,1.5494
95.5768,1.5629
95.5768,1.7416
95.5768,1.6052
95.5768,1.5186
95.5829,1.5192
95.5839,1.5132
95.5839,1.5075
95.5839,1.5368
95.5912,1.6682
95.5912,1.5278
95.5912,1.5291
95.5912,1.5379
95.5912,1.5315
95.5974,1.5486
95.5974,1.7408
95.5974,1.7402
95.5974,1.557
95.6047,1.5089
95.6047,1.5111
95.6047,1.5177
95.6047,1.5135
95.6047,1.8441
95.6109,1.7346
95.6109,1.5344
95.6109,1.5332
95.6109,1.5344
95.6178,1.5512
95.6178,1.5647
95.6178,1.7292
95.6185,1.5805
95.6185,1.5132
95.6240,1.5156
95.6240,1.5179
95.6240,1.5089
95.6240,1.5169
95.6240,1.8212
95.6310,1.5257
95.6310,1.5293
95.6310,1.5342
95.6310,1.5257
95.6386,1.5201
95.6386,1.6049
95.6386,1.6776
95.6386,1.512
95.6386,1.5107
95.6450,1.5079
95.6450,1.5085
95.6450,1.518
95.6450,1.8469
95.6521,1.8662
95.6521,1.5289
95.6521,1.5254
95.6521,1.5231
95.6521,1.5327
95.6586,1.6581
95.6586,1.8134
95.6586,1.6484
95.6586,1.5029
95.6656,1.4987
95.6706,1.4929
95.6756,1.509
95.6776,1.4849
95.6786,1.7592
95.6786,1.5045
95.6786,1.5096
95.6796,1.5055
95.6796,1.4995
95.6796,1.5062
95.6796,1.5619
95.6796,1.575
95.6796,1.4867
95.6796,1.4772
95.6864,1.4757
95.6864,1.4781
95.6864,1.4725
95.6864,1.6317
95.6864,1.4976
95.6926,1.4785
95.6926,1.4826
95.6926,1.4862
95.6926,1.5064
95.6999,1.588
95.6999,1.7882
95.6999,1.6688
95.6999,1.4612
95.6999,1.4376
95.7053,1.4382
95.7063,1.4682
95.7063,1.5417
95.7063,1.7206
95.7134,1.4582
95.7134,1.44
95.7134,1.4342
95.7134,1.4535
95.7134,1.4659
95.7197,1.6919
95.7197,1.5428
95.7197,1.398
95.7197,1.3919
95.7197,1.3812
95.7257,1.4042
95.7257,1.4018
95.7267,1.4745
95.7267,1.4087
95.7336,1.3881
95.7336,1.3872
95.7336,1.3917
95.7336,1.3845
95.7336,1.4781
95.7400,1.7136
95.7400,1.374
95.7405,1.3757
95.7405,1.3733
95.7474,1.372
95.7474,1.369
95.7474,1.4624
95.7474,1.632
95.7474,1.4457
95.7537,1.3881
95.7537,1.3915
95.7537,1.402
95.7537,1.4526
95.7610,1.7386
95.7610,1.6459
95.7610,1.405
95.7610,1.3997
95.7610,1.3992
95.7668,1.4155
95.7668,1.426
95.7668,1.5989
95.7668,1.5293
95.7678,1.464
95.7780,1.4714
95.7851,1.4749
95.7851,1.4627
95.7851,1.48
95.7861,1.6082
95.7861,1.4967
95.7861,1.4967
95.7861,1.5002
95.7861,1.5119
95.7871,1.5134
95.7871,1.6052
95.7882,1.7014
95.7882,1.5512
95.7950,1.5509
95.7950,1.5546
95.7950,1.5411
95.7960,1.5972
95.7960,1.9223
95.8010,1.8827
95.8010,1.557
95.8010,1.552
95.8010,1.563
95.8084,1.5756
95.8084,1.7091
95.8084,1.7712
95.8084,1.6546
95.8084,1.5959
95.8160,1.6017
95.8160,1.6062
95.8160,1.9161
95.8160,1.9034
95.8168,1.5957
95.8228,1.5839
95.8228,1.5822
95.8228,1.5876
95.8228,1.593
95.8304,1.7637
95.8304,1.6801
95.8304,1.6047
95.8304,1.6082
95.8304,1.6154
95.8369,1.632
95.8369,1.6232
95.8369,1.8646
95.8369,1.6009
95.8443,1.5992
95.8443,1.5974
95.8443,1.5957
95.8443,1.6058
95.8443,1.7281
95.8505,1.8938
95.8505,1.614
95.8505,1.6095
95.8505,1.6112
95.8578,1.6163
95.8578,1.63
95.8578,1.8263
95.8578,1.8336
95.8578,1.6045
95.8641,1.5972
95.8641,1.5989
95.8641,1.602
95.8641,1.6964
95.8641,1.9367
95.8700,1.7759
95.8710,1.6067
95.8710,1.6049
95.8710,1.6045
95.8784,1.5949
95.8784,1.5919
95.8784,1.8115
95.8784,1.5992
95.8784,1.5869
95.8880,1.5794
95.8939,1.5968
95.8969,1.5831
95.8969,1.6598
95.8969,1.6874
95.8969,1.5949
95.8969,1.5962
95.8979,1.6019
95.8979,1.5929
95.8979,1.5992
95.8979,1.7157
95.8979,1.593
95.8979,1.5657
95.9055,1.5608
95.9055,1.5642
95.9055,1.5689
95.9055,1.6889
95.9055,1.9435
95.9119,1.7961
95.9119,1.5664
95.9119,1.5694
95.9129,1.5717
95.9129,1.5824
95.9179,1.7971
95.9179,1.8872
95.9179,1.5989
95.9189,1.558
95.9255,1.5529
95.9255,1.5539
95.9255,1.5518
95.9263,1.8661
95.9263,1.8207
95.9323,1.5722
95.9323,1.5737
95.9323,1.5784
95.9323,1.5996
95.9396,1.5966
95.9396,1.7776
95.9396,1.6489
95.9396,1.5625
95.9396,1.5578
95.9452,1.5507
95.9452,1.564
95.9452,1.5775
95.9452,1.8111
95.9528,1.5861
95.9528,1.5855
95.9528,1.585
95.9528,1.5824
95.9528,1.6109
95.9588,1.7065
95.9588,1.9352
95.9588,1.6924
95.9595,1.5634
95.9595,1.5612
95.9655,1.5696
95.9655,1.5869
95.9655,1.7037
95.9665,1.7091
95.9731,1.5775
95.9731,1.582
95.9731,1.5831
95.9731,1.5944
95.9731,1.605
95.9796,1.9662
95.9796,1.7224
95.9796,1.5809
95.9804,1.5687
95.9867,1.5674
95.9867,1.5732
95.9867,1.5792
95.9874,1.7406
95.9874,1.5842
95.9964,1.5874
96.0033,1.5944
96.0054,1.5912
96.0054,1.6206
96.0054,1.6696
96.0063,1.7348
96.0063,1.569
96.0063,1.5687
96.0063,1.566
96.0063,1.5749
96.0073,1.5709
96.0073,1.7054
96.0073,1.7187
96.0073,1.5833
96.0133,1.5839
96.0133,1.5863
96.0133,1.587
96.0133,1.5904
96.0207,1.7361
96.0207,1.6486
96.0207,1.5719
96.0207,1.5745
96.0207,1.5689
96.0271,1.5807
96.0271,1.5704
96.0271,1.8104
96.0271,1.5904
96.0341,1.5837
96.0341,1.5865
96.0341,1.5709
96.0341,1.5947
96.0341,1.6966
96.0404,1.8869
96.0404,1.5559
96.0404,1.5447
96.0404,1.5387
96.0475,1.5417
96.0477,1.5426
96.0477,1.7374
96.0477,1.8179
96.0477,1.5484
96.0538,1.5501
96.0538,1.5482
96.0538,1.5302
96.0538,1.5752
96.0538,1.8511
96.0608,1.7018
96.0608,1.5242
96.0608,1.5233
96.0608,1.5267
96.0682,1.5477
96.0682,1.5293
96.0682,1.789
96.0682,1.5874
96.0682,1.5696
96.0745,1.5675
96.0745,1.569
96.0745,1.5735
96.0745,1.6365
96.0816,1.8059
96.0816,1.5683
96.0816,1.5675
96.0816,1.567
96.0816,1.5839
96.0879,1.5919
96.0884,1.8061
96.0884,1.8925
96.0884,1.599
96.0950,1.608
96.0950,1.6135
96.0950,1.6127
96.0950,1.6591
96.0950,1.9225
96.1041,1.8619
96.1101,1.5917
96.1111,1.5795
96.1121,1.5715
96.1121,1.585
96.1121,1.6609
96.1121,1.741
96.1131,1.639
96.1131,1.5957
96.1157,1.6065
96.1157,1.602
96.1162,1.5899
96.1162,1.6305
96.1162,1.7455
96.1215,1.605
96.1215,1.605
96.1215,1.6022
96.1215,1.621
96.1288,1.6071
96.1288,1.7922
96.1288,1.6482
96.1288,1.6067
96.1298,1.6069
96.1355,1.6094
96.1355,1.6281
96.1355,1.6249
96.1355,1.924
96.1427,1.8861
96.1427,1.5972
96.1427,1.59
96.1427,1.5872
96.1427,1.6082
96.1489,1.7856
96.1489,1.9741
96.1489,1.738
96.1489,1.6182
96.1489,1.6159
96.1550,1.6163
96.1559,1.6304
96.1559,1.7794
96.1559,1.7744
96.1633,1.6178
96.1633,1.596
96.1633,1.596
96.1633,1.5942
96.1633,1.6174
96.1697,1.8331
96.1697,1.7176
96.1697,1.6386
96.1697,1.6437
96.1763,1.6345
96.1763,1.6544
96.1763,1.6285
96.1771,1.8203
96.1771,1.627
96.1830,1.6185
96.1833,1.6071
96.1833,1.5539
96.1833,1.5381
96.1899,1.6167
96.1899,1.7817
96.1899,1.345
96.1899,1.3133
96.1907,1.2803
96.1965,1.2675
96.1970,1.2539
96.1970,1.3193
96.1970,1.4682
96.1970,1.2597
96.2029,1.6262
96.2029,1.7149
96.2029,1.7059
96.2039,1.7179
96.2115,1.8872
96.2115,1.8814
96.2165,1.8541
96.2215,2.1546
96.2225,2.1758
96.2244,2.1531
96.2244,2.1162
96.2244,2.2894
96.2255,2.0785
96.2255,2.0656
96.2255,2.0498
96.2255,2.0086
96.2255,1.9981
96.2255,2.0365
96.2306,1.9971
96.2306,1.8861
96.2306,1.8865
96.2306,1.8616
96.2378,1.7935
96.2378,1.7444
96.2378,1.9587
96.2378,1.8917
96.2378,1.6364
96.2441,1.6238
96.2441,1.6154
96.2441,1.6124
96.2441,1.6836
96.2441,1.9272
96.2511,1.7866
96.2511,1.6262
96.2511,1.6319
96.2511,1.6307
96.2585,1.6298
96.2585,1.7251
96.2585,1.7624
96.2585,1.6375
96.2585,1.5705
96.2649,1.5636
96.2649,1.5779
96.2649,1.5833
96.2649,1.9022
96.2719,1.7882
96.2719,1.5979
96.2719,1.5964
96.2719,1.593
96.2719,1.5932
96.2783,1.6002
96.2783,1.7982
96.2783,1.62
96.2783,1.5827
96.2854,1.5809
96.2854,1.5805
96.2854,1.5726
96.2854,1.6073
96.2854,1.933
96.2915,1.5899
96.2915,1.5846
96.2915,1.5904
96.2915,1.597
96.2915,1.626
96.2985,1.7481
96.2985,1.8443
96.2985,1.5735
96.2985,1.5644
96.3055,1.5642
96.3063,1.5636
96.3063,1.6013
96.3063,1.8239
96.3063,1.8989
96.3124,1.594
96.3124,1.6045
96.3124,1.59
96.3124,1.6054
96.3232,1.7431
96.3292,1.9167
96.3302,1.7041
96.3312,1.5865
96.3322,1.5638
96.3322,1.5944
96.3322,1.5876
96.3322,1.588
96.3322,1.7329
96.3322,1.6013
96.3332,1.5964
96.3332,1.605
96.3332,1.5979
96.3332,1.6009
96.3386,1.6913
96.3397,1.6572
96.3397,1.5857
96.3397,1.5769
96.3397,1.573
96.3456,1.6041
96.3466,1.5947
96.3466,1.7504
96.3466,1.7236
96.3539,1.6124
96.3539,1.6146
96.3539,1.6109
96.3539,1.6272
96.3539,1.7971
96.3599,1.9139
96.3599,1.7648
96.3599,1.5715
96.3599,1.5747
96.3672,1.5829
96.3672,1.5925
96.3672,1.7393
96.3672,1.8479
96.3672,1.6139
96.3736,1.615
96.3736,1.6172
96.3736,1.6148
96.3736,1.6379
96.3807,1.9052
96.3807,1.7725
96.3807,1.5936
96.3807,1.5904
96.3815,1.5867
96.3868,1.603
96.3868,1.6007
96.3868,1.7927
96.3868,1.608
96.3868,1.6026
96.3938,1.5957
96.3938,1.5784
96.3938,1.5794
96.3938,1.6305
96.4015,1.7176
96.4015,1.5812
96.4015,1.575
96.4015,1.5689
96.4015,1.5597
96.4077,1.567
96.4077,1.7777
96.4077,1.7882
96.4077,1.5664
96.4147,1.5563
96.4147,1.5642
96.4147,1.5728
96.4155,1.6474
96.4155,1.8625
96.4211,1.7226
96.4216,1.5308
96.4216,1.5227
96.4216,1.5104
96.4281,1.5231
96.4329,1.7112
96.4428,1.729
96.4508,1.5509
96.4538,1.5329
96.4538,1.5248
96.4538,1.5355
96.4538,1.5272
96.4538,1.5269
96.4548,1.6671
96.4548,1.5094
96.4548,1.5053
96.4548,1.5006
96.4548,1.5057
96.4558,1.4965
96.4558,1.6744
96.4558,1.5634
96.4558,1.5145
96.4558,1.5094
96.4558,1.5284
96.4568,1.5038
96.4568,1.5308
96.4568,1.6598
96.4618,1.6217
96.4618,1.5104
96.4628,1.5029
96.4628,1.5053
96.4628,1.5115
96.4690,1.7275
96.4690,1.8083
96.4690,1.5964
96.4690,1.5683
96.4760,1.5735
96.4763,1.5867
96.4763,1.5925
96.4763,1.8827
96.4763,1.8218
96.4816,1.5861
96.4826,1.5827
96.4826,1.5801
96.4826,1.6109
96.4826,1.5985
96.4886,1.8931
96.4896,1.7209
96.4896,1.6238
96.4896,1.6259
96.4968,1.6397
96.4968,1.6283
96.4968,1.6229
96.4968,1.9281
96.4968,1.6343
96.5031,1.6328
96.5031,1.6392
96.5031,1.6523
96.5031,1.6442
96.5094,1.7656
96.5105,2.0035
96.5105,1.6677
96.5105,1.6609
96.5105,1.6896
96.5164,1.6855
96.5164,1.6911
96.5164,1.8391
96.5164,1.9412
96.5238,1.6617
96.5238,1.6594
96.5238,1.6583
96.5238,1.6667
96.5238,1.7372
96.5300,1.9853
96.5300,1.8509
96.5300,1.6844
96.5300,1.6943
96.5300,1.7076
96.5380,1.7129
96.5450,1.8647
96.5490,1.8372
96.5500,1.6883
96.5500,1.6806
96.5510,1.6823
96.5510,1.6808
96.5510,1.6817
96.5510,1.7447
96.5522,1.6982
96.5522,1.7012
96.5522,1.7031
96.5522,1.6846
96.5588,1.6915
96.5596,1.8338
96.5596,1.7065
96.5596,1.7057
96.5596,1.6879
96.5658,1.6861
96.5658,1.6911
96.5658,1.7436
96.5658,1.9099
96.5729,1.7882
96.5729,1.7076
96.5729,1.7176
96.5729,1.7123
96.5729,1.7206
96.5786,1.9262
96.5786,2.0033
96.5796,1.7123
96.5796,1.6757
96.5796,1.6598
96.5856,1.6574
96.5856,1.6609
96.5856,1.8242
96.5866,1.7562
96.5932,1.6546
96.5932,1.6456
96.5932,1.6403
96.5932,1.6324
96.5940,1.6439
96.5996,1.9859
96.5996,1.621
96.5996,1.6026
96.6003,1.6011
96.6070,1.6084
96.6070,1.6011
96.6076,1.632
96.6076,1.8824
96.6076,1.6032
96.6129,1.6054
96.6129,1.6019
96.6129,1.5974
96.6129,1.612
96.6204,1.8173
96.6204,1.9604
96.6204,1.6326
96.6204,1.5441
96.6215,1.5488
96.6267,1.5683
96.6267,1.5955
96.6267,1.768
96.6277,1.7603
96.6277,1.576
96.6327,1.5677
96.6337,1.5645
96.6337,1.5375
96.6337,1.5467
96.6410,1.7477
96.6410,1.5955
96.6410,1.5467
96.6420,1.5435
96.6420,1.5503
96.6487,1.5666
96.6507,1.5612
96.6577,1.831
96.6656,1.564
96.6696,1.5735
96.6696,1.5705
96.6706,1.5475
96.6706,1.552
96.6706,1.6487
96.6706,1.7419
96.6716,1.5533
96.6716,1.5527
96.6716,1.5437
96.6716,1.5321
96.6726,1.5557
96.6726,1.7091
96.6726,1.6838
96.6726,1.5687
96.6740,1.5582
96.6740,1.5629
96.6740,1.5285
96.6750,1.6347
96.6750,1.7483
96.6810,1.6247
96.6810,1.5527
96.6810,1.5417
96.6810,1.5415
96.6886,1.5467
96.6886,1.5514
96.6886,1.7519
96.6886,1.5799
96.6886,1.5698
96.6942,1.5685
96.6950,1.5824
96.6950,1.5552
96.6950,1.7196
96.7020,1.7078
96.7020,1.5396
96.7020,1.5404
96.7020,1.5366
96.7020,1.5535
96.7084,1.54
96.7084,1.8355
96.7084,1.5477
96.7084,1.5561
96.7157,1.5567
96.7157,1.5591
96.7157,1.5576
96.7157,1.7065
96.7157,1.8833
96.7211,1.6478
96.7221,1.5314
96.7221,1.5297
96.7221,1.5424
96.7221,1.5625
96.7281,1.8529
96.7281,1.8509
96.7291,1.5565
96.7291,1.5499
96.7364,1.5514
96.7364,1.5615
96.7364,1.5578
96.7364,1.9292
96.7364,1.7401
96.7427,1.5533
96.7427,1.5473
96.7427,1.5473
96.7427,1.566
96.7490,1.5364
96.7490,1.9013
96.7490,1.5374
96.7500,1.5261
96.7500,1.5265
96.7574,1.5259
96.7584,1.5503
96.7624,1.5615
96.7674,1.8544
96.7684,1.4976
96.7704,1.5008
96.7704,1.5019
96.7704,1.4845
96.7714,1.4987
96.7714,1.6184
96.7714,1.6851
96.7714,1.4989
96.7714,1.503
96.7714,1.5075
96.7764,1.5062
96.7764,1.5925
96.7764,1.6831
96.7764,1.6058
96.7839,1.5032
96.7839,1.5109
96.7839,1.5169
96.7839,1.5383
96.7839,1.7586
96.7901,1.885
96.7901,1.5874
96.7901,1.546
96.7901,1.549
96.7969,1.5644
96.7969,1.569
96.7969,1.5914
96.7969,1.801
96.7977,1.5364
96.8033,1.5194
96.8033,1.5139
96.8033,1.5411
96.8033,1.5396
96.8107,1.7414
96.8107,1.6367
96.8113,1.5445
96.8113,1.5593
96.8113,1.5606
96.8168,1.564
96.8168,1.5522
96.8168,1.8212
96.8168,1.7069
96.8168,1.5272
96.8237,1.5357
96.8237,1.5404
96.8237,1.5259
96.8237,1.626
96.8314,1.702
96.8314,1.5919
96.8314,1.5602
96.8314,1.5668
96.8314,1.5589
96.8377,1.57
96.8377,1.9274
96.8377,1.7147
96.8377,1.542
96.8449,1.5359
96.8449,1.537
96.8449,1.548
96.8449,1.5396
96.8449,1.9242
96.8520,1.6727
96.8530,1.576
96.8620,1.566
96.8650,1.5599
96.8650,1.5625
96.8650,1.578
96.8650,1.8803
96.8650,1.5445
96.8650,1.536
96.8660,1.5347
96.8660,1.5265
96.8660,1.533
96.8660,1.6307
96.8660,1.714
96.8710,1.6236
96.8710,1.5582
96.8710,1.5675
96.8710,1.5426
96.8784,1.5629
96.8784,1.7472
96.8784,1.7464
96.8794,1.5705
96.8794,1.5351
96.8850,1.5272
96.8850,1.5368
96.8850,1.5192
96.8857,1.8417
96.8922,1.7202
96.8922,1.5479
96.8922,1.5355
96.8922,1.4942
96.8931,1.4511
96.8984,1.3979
96.8984,1.632
96.8984,1.2617
96.8992,1.2516
96.9056,1.2458
96.9056,1.2449
96.9056,1.2419
96.9056,1.2964
96.9056,1.4157
96.9118,1.324
96.9118,1.5839
96.9118,1.7029
96.9118,1.7095
96.9118,1.6804
96.9178,2.0057
96.9188,2.1256
96.9188,1.8614
96.9188,2.1175
96.9260,2.1462
96.9260,2.1458
96.9260,2.1166
96.9260,2.4593
96.9260,2.3206
96.9325,2.0673
96.9329,2.0509
96.9329,1.9904
96.9329,1.9801
96.9394,1.9471
96.9394,2.2264
96.9394,1.8346
96.9394,1.8047
96.9394,1.759
96.9458,1.7108
96.9458,1.696
96.9458,1.6696
96.9458,1.8936
96.9529,1.5855
96.9529,1.5756
96.9529,1.5542
96.9529,1.5689
96.9529,1.5788
96.9594,1.7596
96.9594,1.9459
96.9594,1.5859
96.9594,1.5317
96.9604,1.5212
96.9694,1.534
96.9744,1.5469
96.9754,1.6872
96.9774,1.6249
96.9774,1.5342
96.9774,1.5164
96.9774,1.5225
96.9774,1.5098
96.9784,1.5012
96.9794,1.6731
96.9794,1.5437
96.9794,1.4961
96.9794,1.5023
96.9870,1.4969
96.9870,1.4886
96.9870,1.534
96.9870,1.7811
96.9870,1.53
96.9933,1.5173
96.9933,1.5222
96.9933,1.5282
96.9933,1.5147
97.0005,1.6596
97.0005,1.8796
97.0005,1.5012
97.0005,1.4984
97.0005,1.4935
97.0068,1.4804
97.0068,1.5267
97.0068,1.7288
97.0068,1.7607
97.0068,1.5227
97.0127,1.515
97.0137,1.5143
97.0137,1.5047
97.0137,1.5074
97.0207,1.669
97.0207,1.5419
97.0207,1.4792
97.0207,1.4809
97.0217,1.4832
97.0267,1.4886
97.0267,1.527
97.0267,1.6487
97.0277,1.519
97.0337,1.5192
97.0337,1.5261
97.0337,1.5233
97.0347,1.519
97.0347,1.6315
97.0397,1.6784
97.0407,1.4839
97.0407,1.4819
97.0407,1.4843
97.0467,1.5027
97.0476,1.5002
97.0476,1.6427
97.0476,1.6568
97.0476,1.5145
97.0536,1.5227
97.0536,1.5188
97.0536,1.5235
97.0546,1.5977
97.0546,1.6967
97.0606,1.5994
97.0606,1.5036
97.0616,1.4991
97.0616,1.5029
97.0676,1.5047
97.0676,1.5019
97.0676,1.6812
97.0686,1.5254
97.0686,1.5162
97.0756,1.5173
97.0806,1.5096
97.0865,1.4907
97.0895,1.5857
97.0905,1.5936
97.0905,1.4897
97.0905,1.4905
97.0905,1.4841
97.0905,1.4873
97.0905,1.4852
97.0915,1.5979
97.0915,1.6015
97.0915,1.5014
97.0945,1.5062
97.0945,1.4845
97.0955,1.4897
97.0955,1.5972
97.0955,1.5947
97.1005,1.5552
97.1005,1.4862
97.1015,1.4646
97.1015,1.4612
97.1015,1.4676
97.1075,1.4629
97.1085,1.6094
97.1085,1.4954
97.1085,1.4729
97.1155,1.4693
97.1155,1.4693
97.1155,1.4704
97.1155,1.5319
97.1155,1.5327
97.1217,1.428
97.1217,1.4232
97.1217,1.4202
97.1225,1.4145
97.1288,1.417
97.1288,1.588
97.1288,1.7026
97.1288,1.4335
97.1288,1.4372
97.1353,1.4414
97.1353,1.4423
97.1353,1.4554
97.1353,1.8032
97.1426,1.6729
97.1426,1.4042
97.1426,1.3902
97.1426,1.3904
97.1426,1.4185
97.1489,1.5801
97.1489,1.7431
97.1489,1.4817
97.1489,1.3579
97.1489,1.4044
97.1549,1.3842
97.1549,1.3941
97.1559,1.3864
97.1559,1.51
97.1629,1.3744
97.1629,1.383
97.1629,1.3744
97.1629,1.4054
97.1629,1.3992
97.1693,1.5998
97.1693,1.7258
97.1693,1.4048
97.1693,1.42
97.1765,1.4144
97.1765,1.45
97.1765,1.4357
97.1765,1.7329
97.1765,1.7316
97.1839,1.4119
97.1869,1.4204
97.1899,1.4354
97.1949,1.455
97.1959,1.618
97.1979,1.7671
97.1979,1.5857
97.1979,1.4768
97.1979,1.4841
97.1989,1.4856
97.1989,1.4933
97.1989,1.5267
97.1989,1.6441
97.1989,1.4982
97.2029,1.5004
97.2029,1.4942
97.2029,1.5098
97.2029,1.5188
97.2105,1.6212
97.2105,1.6041
97.2105,1.5351
97.2105,1.5486
97.2112,1.5522
97.2166,1.5473
97.2166,1.5494
97.2166,1.798
97.2166,1.7119
97.2239,1.5265
97.2242,1.5302
97.2242,1.533
97.2242,1.5559
97.2242,1.7082
97.2300,1.8972
97.2300,1.6902
97.2300,1.5642
97.2300,1.5287
97.2373,1.5645
97.2376,1.5709
97.2376,1.7356
97.2376,1.8994
97.2376,1.5381
97.2432,1.5381
97.2432,1.5428
97.2432,1.5422
97.2432,1.5482
97.2432,1.6707
97.2502,1.759
97.2502,1.5683
97.2502,1.5614
97.2502,1.5565
97.2578,1.5509
97.2578,1.5651
97.2578,1.7303
97.2578,1.551
97.2586,1.5372
97.2639,1.5334
97.2639,1.5452
97.2639,1.5319
97.2639,1.6574
97.2712,1.8649
97.2712,1.6857
97.2712,1.5574
97.2712,1.5685
97.2712,1.569
97.2785,1.5936
97.2785,1.8327
97.2795,1.5518
97.2795,1.5349
97.2864,1.5207
97.2864,1.5479
97.2864,1.5359
97.2864,1.909
97.2864,1.7581
97.2927,1.5621
97.2947,1.5619
97.3036,1.5578
97.3056,1.5741
97.3066,1.5696
97.3076,1.945
97.3076,1.581
97.3076,1.5432
97.3076,1.5405
97.3076,1.5424
97.3076,1.5374
97.3086,1.579
97.3086,1.7063
97.3086,1.5477
97.3131,1.5462
97.3131,1.5522
97.3131,1.5689
97.3139,1.5456
97.3206,1.7761
97.3206,1.7462
97.3206,1.5278
97.3206,1.5224
97.3206,1.5257
97.3267,1.5383
97.3267,1.5816
97.3267,1.7526
97.3267,1.7642
97.3330,1.5587
97.3340,1.5383
97.3340,1.537
97.3340,1.5374
97.3340,1.5165
97.3396,1.8756
97.3396,1.632
97.3396,1.5227
97.3404,1.5248
97.3404,1.518
97.3464,1.528
97.3464,1.5347
97.3464,1.6643
97.3474,1.5327
97.3543,1.5432
97.3543,1.5329
97.3543,1.548
97.3543,1.5447
97.3550,1.7048
97.3607,1.8689
97.3607,1.5205
97.3612,1.5096
97.3612,1.5105
97.3674,1.527
97.3674,1.5252
97.3674,1.7806
97.3674,1.7356
97.3674,1.5407
97.3742,1.5205
97.3742,1.5289
97.3742,1.5355
97.3742,1.6602
97.3814,1.8702
97.3814,1.696
97.3814,1.5177
97.3814,1.5068
97.3814,1.5068
97.3871,1.5231
97.3871,1.5409
97.3878,1.7247
97.3878,1.5334
97.3878,1.5432
97.3938,1.5505
97.3938,1.5239
97.3948,1.5216
97.3948,1.5818
97.4018,1.6054
97.4038,1.5207
97.4048,1.5134
97.4088,1.516
97.4148,1.5242
97.4158,1.5203
97.4167,1.8546
97.4167,1.5299
97.4167,1.5366
97.4167,1.5284
97.4167,1.5342
97.4177,1.5323
97.4177,1.6058
97.4177,1.7022
97.4215,1.6223
97.4215,1.5203
97.4215,1.531
97.4215,1.5158
97.4284,1.5255
97.4284,1.7811
97.4294,1.7657
97.4294,1.5392
97.4294,1.5435
97.4353,1.5402
97.4353,1.5499
97.4353,1.5287
97.4353,1.8571
97.4361,1.7127
97.4421,1.5199
97.4421,1.5239
97.4421,1.5132
97.4421,1.5128
97.4498,1.5152
97.4498,1.6966
97.4498,1.5415
97.4498,1.5233
97.4498,1.5447
97.4560,1.5362
97.4560,1.5119
97.4560,1.5709
97.4560,1.7817
97.4632,1.477
97.4632,1.4622
97.4632,1.4633
97.4632,1.4783
97.4632,1.4642
97.4695,1.7461
97.4695,1.8053
97.4695,1.4697
97.4695,1.4714
97.4768,1.4787
97.4768,1.489
97.4768,1.4849
97.4768,1.7567
97.4778,1.6774
97.4830,1.4633
97.4830,1.4684
97.4830,1.4693
97.4830,1.4712
97.4840,1.6917
97.4900,1.8711
97.4900,1.5539
97.4900,1.5171
97.4900,1.528
97.4974,1.5248
97.4974,1.5025
97.4974,1.8162
97.4985,1.7796
97.4985,1.5032
97.5039,1.5207
97.5039,1.5128
97.5039,1.5104
97.5039,1.5169
97.5103,1.7213
97.5103,1.6307
97.5113,1.5263
97.5143,1.5353
97.5222,1.5482
97.5313,1.5563
97.5333,1.5574
97.5333,1.7431
97.5333,1.5272
97.5333,1.5209
97.5333,1.5225
97.5342,1.5218
97.5342,1.5284
97.5342,1.606
97.5342,1.7061
97.5342,1.62
97.5342,1.542
97.5342,1.5434
97.5352,1.5413
97.5372,1.528
97.5372,1.7033
97.5372,1.6486
97.5372,1.5276
97.5448,1.5209
97.5448,1.5165
97.5458,1.5265
97.5458,1.545
97.5458,1.9056
97.5514,1.6771
97.5514,1.5514
97.5514,1.548
97.5514,1.554
97.5581,1.5495
97.5581,1.5735
97.5581,1.7461
97.5581,1.5261
97.5581,1.5263
97.5644,1.519
97.5644,1.5389
97.5644,1.5285
97.5644,1.7061
97.5718,1.8526
97.5718,1.5443
97.5718,1.5409
97.5718,1.5428
97.5718,1.5364
97.5782,1.5634
97.5782,1.8949
97.5782,1.81
97.5782,1.5323
97.5782,1.5327
97.5843,1.5293
97.5853,1.5516
97.5853,1.6062
97.5853,1.7129
97.5918,1.6313
97.5928,1.5323
97.5928,1.5539
97.5928,1.5574
97.5928,1.57
97.5985,1.8409
97.5985,1.8338
97.5985,1.4595
97.5985,1.4262
97.6057,1.3174
97.6057,1.2996
97.6057,1.2696
97.6057,1.3362
97.6064,1.371
97.6117,1.2439
97.6117,1.2434
97.6117,1.2441
97.6117,1.2544
97.6193,1.3769
97.6193,1.9497
97.6193,2.0378
97.6193,1.6375
97.6193,1.6225
97.6279,1.6996
97.6329,1.8008
97.6339,2.1156
97.6359,2.5338
97.6359,2.3061
97.6359,2.2071
97.6359,2.1655
97.6359,2.1436
97.6359,2.0875
97.6399,2.0826
97.6399,2.2056
97.6399,2.002
97.6399,1.9576
97.6409,1.8867
97.6461,1.8269
97.6461,1.8147
97.6461,1.8717
97.6461,1.9572
97.6526,1.6951
97.6526,1.6606
97.6526,1.6234
97.6526,1.5887
97.6537,1.5953
97.6593,1.8091
97.6593,1.9429
97.6593,1.5405
97.6593,1.5394
97.6660,1.5299
97.6660,1.5554
97.6667,1.5422
97.6667,1.8842
97.6667,1.7477
97.6730,1.5415
97.6730,1.5353
97.6730,1.527
97.6730,1.5145
97.6730,1.7266
97.6790,1.8319
97.6790,1.5934
97.6799,1.4925
97.6799,1.4931
97.6866,1.4794
97.6866,1.4768
97.6866,1.5062
97.6876,1.7629
97.6876,1.5036
97.6931,1.5027
97.6931,1.5053
97.6931,1.5113
97.6939,1.5089
97.7007,1.6932
97.7007,1.5861
97.7007,1.4847
97.7007,1.4751
97.7007,1.4744
97.7065,1.5002
97.7065,1.4929
97.7065,1.7532
97.7065,1.7269
97.7140,1.5053
97.7140,1.5008
97.7140,1.5038
97.7140,1.4967
97.7140,1.6587
97.7204,1.8584
97.7204,1.6332
97.7204,1.4777
97.7204,1.4774
97.7204,1.4809
97.7263,1.5047
97.7273,1.6733
97.7273,1.6362
97.7273,1.4982
97.7362,1.4884
97.7422,1.4899
97.7452,1.4999
97.7452,1.5107
97.7462,1.5734
97.7462,1.5486
97.7462,1.4759
97.7462,1.4738
97.7462,1.4751
97.7478,1.4712
97.7482,1.4824
97.7482,1.6619
97.7482,1.6536
97.7482,1.4914
97.7536,1.4955
97.7536,1.5019
97.7546,1.5064
97.7546,1.7005
97.7612,1.9007
97.7612,1.6928
97.7619,1.4708
97.7619,1.4768
97.7619,1.4702
97.7675,1.494
97.7675,1.7357
97.7680,1.6527
97.7680,1.5012
97.7680,1.4972
97.7741,1.4882
97.7741,1.48
97.7741,1.4663
97.7741,1.5546
97.7820,1.5767
97.7823,1.473
97.7823,1.4682
97.7823,1.4684
97.7823,1.4768
97.7881,1.4618
97.7881,1.7509
97.7881,1.479
97.7881,1.4753
97.7950,1.4802
97.7950,1.4839
97.7950,1.462
97.7950,1.564
97.7950,1.8076
97.8014,1.6651
97.8014,1.4423
97.8014,1.4357
97.8014,1.4354
97.8087,1.4682
97.8087,1.7299
97.8087,1.6973
97.8087,1.4614
97.8087,1.4434
97.8141,1.437
97.8150,1.4395
97.8150,1.4247
97.8150,1.6926
97.8150,1.551
97.8209,1.4074
97.8219,1.3922
97.8219,1.383
97.8219,1.3932
97.8291,1.3864
97.8291,1.5407
97.8291,1.4209
97.8291,1.3804
97.8291,1.3834
97.8355,1.3776
97.8355,1.3617
97.8355,1.4192
97.8355,1.816
97.8444,1.5582
97.8494,1.3484
97.8504,1.3399
97.8524,1.3394
97.8524,1.3585
97.8524,1.4715
97.8535,1.5252
97.8535,1.4037
97.8535,1.3521
97.8557,1.3485
97.8557,1.35
97.8557,1.3403
97.8557,1.386
97.8564,1.477
97.8615,1.3349
97.8615,1.3287
97.8625,1.3285
97.8625,1.3373
97.8625,1.3399
97.8685,1.5629
97.8685,1.4309
97.8685,1.36
97.8695,1.3615
97.8761,1.3645
97.8761,1.3611
97.8761,1.4042
97.8761,1.6802
97.8761,1.645
97.8827,1.362
97.8827,1.3643
97.8827,1.372
97.8827,1.3984
97.8899,1.5878
97.8899,1.7442
97.8899,1.5495
97.8899,1.4312
97.8899,1.4399
97.8960,1.4419
97.8960,1.4517
97.8960,1.4646
97.8960,1.7569
97.9026,1.45
97.9026,1.4562
97.9026,1.4444
97.9026,1.4682
97.9026,1.4715
97.9096,1.6249
97.9096,1.6409
97.9096,1.4954
97.9096,1.5059
97.9096,1.5107
97.9156,1.5169
97.9156,1.504
97.9166,1.6829
97.9166,1.6641
97.9239,1.5064
97.9239,1.5029
97.9239,1.5008
97.9239,1.5094
97.9239,1.6709
97.9301,1.8445
97.9301,1.6761
97.9301,1.5263
97.9301,1.5278
97.9367,1.5239
97.9367,1.5469
97.9367,1.7136
97.9374,1.882
97.9374,1.5302
97.9427,1.5192
97.9438,1.5102
97.9438,1.518
97.9438,1.5297
97.9501,1.6356
97.9551,1.7477
97.9601,1.5462
97.9631,1.546
97.9631,1.5424
97.9631,1.5291
97.9631,1.5325
97.9631,1.6594
97.9631,1.533
97.9641,1.5233
97.9641,1.5237
97.9641,1.5186
97.9641,1.5263
97.9641,1.5842
97.9711,1.6971
97.9711,1.6379
97.9711,1.5422
97.9711,1.5394
97.9711,1.5445
97.9775,1.5578
97.9775,1.7504
97.9775,1.7517
97.9775,1.5589
97.9847,1.5306
97.9847,1.5201
97.9847,1.516
97.9847,1.5104
97.9847,1.8452
97.9910,1.7072
97.9910,1.5392
97.9910,1.5428
97.9910,1.537
97.9979,1.5471
97.9979,1.5576
97.9983,1.7699
97.9983,1.5548
97.9983,1.5141
98.0060,1.5098
98.0060,1.5111
98.0060,1.5034
98.0060,1.5842
98.0060,1.5297
98.0120,1.5284
98.0130,1.5315
98.0130,1.5366
98.0130,1.5462
98.0196,1.6373
98.0206,1.6917
98.0206,1.516
98.0206,1.507
98.0206,1.5141
98.0262,1.5199
98.0262,1.5355
98.0262,1.6679
98.0270,1.7521
98.0339,1.5315
98.0339,1.536
98.0339,1.5345
98.0339,1.5445
98.0350,1.5572
98.0402,1.8366
98.0402,1.618
98.0402,1.5042
98.0402,1.509
98.0473,1.5072
98.0477,1.5214
98.0477,1.522
98.0477,1.8102
98.0477,1.5242
98.0531,1.5235
98.0531,1.5355
98.0531,1.5135
98.0531,1.5295
98.0531,1.7012
98.0613,1.8886
98.0725,1.513
98.0745,1.5049
98.0766,1.5002
98.0766,1.5053
98.0766,1.5066
98.0776,1.6532
98.0776,1.6619
98.0776,1.5237
98.0776,1.5222
98.0786,1.5344
98.0786,1.5194
98.0786,1.6011
98.0817,1.6915
98.0817,1.5962
98.0817,1.5141
98.0817,1.5062
98.0817,1.5074
98.0874,1.5164
98.0874,1.8608
98.0874,1.7296
98.0874,1.5334
98.0949,1.5353
98.0949,1.5413
98.0949,1.5299
98.0959,1.551
98.0959,1.87
98.1014,1.6801
98.1014,1.5117
98.1014,1.5087
98.1014,1.5096
98.1014,1.5259
98.1076,1.5344
98.1076,1.8492
98.1076,1.5302
98.1086,1.534
98.1157,1.5381
98.1157,1.5345
98.1157,1.5319
98.1157,1.6939
98.1157,1.8327
98.1219,1.5282
98.1219,1.5177
98.1219,1.5169
98.1219,1.5239
98.1289,1.5145
98.1289,1.7461
98.1289,1.8104
98.1289,1.5319
98.1289,1.5439
98.1349,1.5387
98.1349,1.5522
