101.2739,1.766
101.2759,1.762
101.2779,1.743
101.2809,1.747
101.2809,1.778
101.2819,1.789
101.2829,1.795
101.2839,1.797
101.2839,1.813
101.2839,1.827
101.2849,1.835
101.2849,1.837
101.2849,1.839
101.2849,1.805
101.2849,1.784
101.2849,1.781
101.2849,1.768
101.2859,1.755
101.2859,1.764
101.2859,1.787
101.2859,1.79
101.2859,1.803
101.2859,1.812
101.2859,1.81
101.2859,1.824
101.2869,1.844
101.2869,1.833
101.2869,1.808
101.2869,1.797
101.2869,1.786
101.2869,1.777
101.2869,1.759
101.2879,1.753
101.2879,1.779
101.2879,1.794
101.2879,1.787
101.2879,1.796
101.2879,1.816
101.2889,1.824
101.2889,1.837
101.2889,1.846
101.2889,1.841
101.2889,1.804
101.2899,1.789
101.2899,1.773
101.2899,1.766
101.2899,1.748
101.2899,1.753
101.2899,1.773
101.2899,1.786
101.2899,1.801
101.2909,1.801
101.2909,1.809
101.2909,1.829
101.2909,1.829
101.2909,1.826
101.2909,1.812
101.2909,1.796
101.2919,1.781
101.2919,1.773
101.2919,1.753
101.2919,1.751
101.2919,1.778
101.2919,1.781
101.2929,1.779
101.2929,1.791
101.2929,1.801
101.2929,1.815
101.2929,1.83
101.2929,1.833
101.2929,1.817
101.2939,1.8
101.2939,1.776
101.2939,1.772
101.2939,1.763
101.2939,1.744
101.2939,1.732
101.2939,1.783
101.2949,1.782
101.2949,1.775
101.2949,1.79
101.2949,1.798
101.2949,1.812
101.2949,1.823
101.2949,1.829
101.2959,1.804
101.2959,1.783
101.2959,1.777
101.2959,1.764
101.2959,1.738
101.2959,1.74
101.2959,1.766
101.2969,1.761
101.2969,1.769
101.2969,1.777
101.2969,1.792
101.2969,1.803
101.2969,1.823
101.2969,1.816
101.2979,1.815
101.2979,1.778
101.2979,1.766
101.2979,1.761
101.2979,1.76
101.2979,1.746
101.2989,1.74
101.2989,1.778
101.2989,1.78
101.2989,1.78
101.2989,1.792
101.2989,1.801
101.2989,1.807
101.2999,1.838
101.2999,1.82
101.2999,1.796
101.2999,1.783
101.2999,1.773
101.2999,1.763
101.2999,1.748
101.2999,1.74
101.3009,1.747
101.3009,1.77
101.3009,1.778
101.3009,1.782
101.3009,1.804
101.3009,1.816
101.3019,1.818
101.3019,1.838
101.3019,1.841
101.3019,1.789
101.3019,1.78
101.3019,1.777
101.3019,1.77
101.3019,1.752
101.3029,1.751
101.3029,1.764
101.3029,1.775
101.3029,1.787
101.3029,1.795
101.3029,1.805
101.3029,1.814
101.3039,1.819
101.3039,1.816
101.3039,1.811
101.3039,1.787
101.3039,1.779
101.3039,1.77
101.3039,1.747
101.3049,1.735
101.3049,1.752
101.3049,1.784
101.3049,1.776
101.3049,1.785
101.3059,1.806
101.3059,1.805
101.3059,1.833
101.3059,1.859
101.3069,1.844
101.3069,1.8
101.3069,1.782
101.3069,1.765
101.3069,1.76
101.3069,1.75
101.3069,1.745
101.3079,1.764
101.3079,1.777
101.3079,1.785
101.3079,1.795
101.3079,1.811
101.3079,1.812
101.3079,1.828
101.3089,1.842
101.3089,1.825
101.3089,1.793
101.3089,1.789
101.3089,1.774
101.3089,1.76
101.3089,1.75
101.3099,1.765
101.3099,1.756
101.3099,1.766
101.3099,1.795
101.3099,1.796
101.3099,1.81
101.3099,1.833
101.3099,1.829
101.3109,1.83
101.3109,1.803
101.3109,1.791
101.3109,1.791
101.3109,1.78
101.3109,1.769
101.3119,1.758
101.3119,1.781
101.3119,1.784
101.3119,1.792
101.3119,1.813
101.3119,1.827
101.3119,1.821
101.3129,1.85
101.3129,1.838
101.3129,1.831
101.3129,1.808
101.3129,1.797
101.3129,1.799
101.3139,1.767
101.3139,1.763
101.3139,1.759
101.3139,1.783
101.3139,1.794
101.3139,1.787
101.3139,1.8
101.3139,1.791
101.3149,1.808
101.3149,1.827
101.3149,1.839
101.3149,1.777
101.3149,1.767
101.3149,1.753
101.3149,1.751
101.3159,1.742
101.3159,1.732
101.3159,1.734
101.3159,1.748
101.3159,1.774
101.3159,1.779
101.3159,1.78
101.3169,1.785
101.3169,1.809
101.3169,1.805
101.3169,1.817
101.3169,1.796
101.3169,1.781
101.3169,1.763
101.3179,1.757
101.3179,1.732
101.3179,1.752
101.3179,1.782
101.3179,1.784
101.3179,1.789
101.3179,1.796
101.3189,1.805
101.3189,1.829
101.3189,1.842
101.3189,1.847
101.3189,1.799
101.3189,1.791
101.3189,1.778
101.3199,1.773
101.3199,1.765
101.3199,1.761
101.3199,1.769
101.3199,1.785
101.3199,1.783
101.3199,1.793
101.3199,1.805
101.3209,1.817
101.3209,1.833
101.3209,1.847
101.3209,1.827
101.3209,1.784
101.3209,1.774
101.3209,1.766
101.3218,1.757
101.3218,1.763
101.3218,1.783
101.3218,1.795
101.9071,1.802
101.9081,1.815
101.9081,1.819
101.9081,1.84
101.9091,1.849
101.9091,1.83
101.9101,1.813
101.9101,1.803
101.9111,1.802
101.9111,1.792
101.9121,1.772
101.9121,1.763
101.9131,1.787
101.9131,1.797
101.9141,1.798
101.9141,1.804
101.9141,1.815
101.9151,1.836
101.9151,1.845
101.9161,1.864
101.9161,1.86
101.9161,1.82
101.9171,1.805
101.9171,1.792
101.9181,1.78
101.9181,1.753
101.9191,1.756
101.9191,1.787
101.9191,1.787
101.9201,1.804
101.9201,1.821
101.9201,1.822
101.9211,1.829
101.9211,1.822
101.9211,1.807
101.9220,1.78
101.9220,1.756
101.9220,1.748
101.9231,1.732
101.9231,1.709
101.9231,1.632
101.9231,1.633
101.9241,1.579
101.9241,1.537
101.9241,1.494
101.9241,1.481
101.9251,1.44
101.9251,1.427
101.9251,1.394
101.9251,1.388
101.9261,1.389
101.9261,1.333
101.9261,1.473
101.9261,1.716
101.9261,1.868
101.9271,1.892
101.9271,1.884
101.9271,1.863
101.9271,1.981
101.9271,2.053
101.9281,2.144
101.9281,2.311
101.9281,2.398
101.9281,2.385
101.9281,2.298
101.9291,2.273
101.9291,2.252
101.9291,2.25
101.9291,2.197
101.9291,2.132
101.9301,2.132
101.9301,2.097
101.9301,2.091
101.9301,2.042
101.9301,2.028
101.9301,2.006
101.9311,2.006
101.9311,1.975
101.9311,1.937
101.9311,1.906
101.9311,1.859
101.9311,1.81
101.9321,1.809
101.9321,1.786
101.9340,1.768
101.9350,1.777
101.9410,1.779
101.9420,1.797
101.9420,1.81
101.9420,1.816
101.9420,1.828
101.9430,1.841
101.9430,1.841
101.9430,1.809
101.9430,1.787
101.9430,1.771
101.9430,1.759
101.9430,1.748
101.9440,1.731
101.9440,1.726
101.9440,1.756
101.9440,1.753
101.9440,1.769
101.9440,1.77
101.9440,1.775
101.9450,1.795
101.9450,1.811
101.9450,1.799
101.9450,1.775
101.9450,1.754
101.9450,1.751
101.9450,1.725
101.9460,1.71
101.9460,1.701
101.9460,1.711
101.9460,1.74
101.9460,1.737
101.9460,1.753
101.9460,1.771
101.9470,1.769
101.9470,1.79
101.9470,1.781
101.9470,1.784
101.9470,1.75
101.9470,1.737
101.9470,1.728
101.9480,1.726
101.9480,1.714
101.9480,1.7
101.9480,1.739
101.9480,1.733
101.9480,1.743
101.9480,1.756
101.9490,1.767
101.9490,1.772
101.9490,1.794
101.9490,1.79
101.9490,1.773
101.9490,1.746
101.9490,1.732
101.9500,1.729
101.9500,1.714
101.9500,1.704
101.9500,1.707
101.9500,1.742
101.9500,1.743
101.9500,1.741
101.9510,1.764
101.9510,1.767
101.9510,1.79
101.9510,1.788
101.9510,1.79
101.9510,1.776
101.9510,1.743
101.9520,1.735
101.9520,1.729
101.9520,1.722
101.9520,1.694
101.9520,1.714
101.9520,1.731
101.9520,1.738
101.9530,1.75
101.9530,1.761
101.9530,1.759
101.9530,1.78
101.9530,1.781
101.9530,1.766
101.9540,1.745
101.9540,1.735
101.9540,1.728
101.9540,1.72
101.9540,1.689
101.9540,1.693
101.9540,1.722
101.9540,1.732
101.9550,1.727
101.9550,1.73
101.9550,1.751
101.9550,1.762
101.9559,1.776
101.9559,1.776
101.9559,1.763
101.9559,1.731
101.9559,1.716
101.9569,1.699
101.9569,1.68
101.9569,1.67
101.9569,1.681
101.9569,1.7
101.9569,1.693
101.9569,1.703
101.9579,1.707
101.9579,1.708
101.9579,1.732
101.9579,1.721
101.9579,1.718
101.9579,1.684
101.9579,1.662
101.9589,1.649
101.9589,1.645
101.9589,1.602
101.9589,1.606
101.9589,1.643
101.9589,1.634
101.9589,1.632
101.9599,1.632
101.9599,1.631
101.9599,1.65
101.9599,1.659
101.9599,1.653
101.9599,1.63
101.9599,1.6
101.9609,1.576
101.9609,1.56
101.9609,1.554
101.9609,1.533
101.9609,1.533
101.9609,1.562
101.9609,1.559
101.9619,1.565
101.9619,1.574
101.9619,1.576
101.9619,1.588
101.9619,1.617
101.9619,1.604
101.9619,1.574
101.9629,1.554
101.9629,1.546
101.9629,1.54
101.9629,1.517
101.9629,1.514
101.9629,1.545
101.9629,1.544
101.9639,1.551
101.9639,1.564
101.9639,1.581
101.9639,1.589
101.9639,1.613
101.9639,1.628
101.9639,1.616
101.9639,1.584
101.9649,1.565
101.9649,1.575
101.9649,1.573
101.9649,1.558
101.9649,1.564
101.9649,1.599
101.9659,1.618
101.9659,1.632
101.9659,1.649
101.9659,1.665
101.9659,1.673
101.9659,1.717
101.9659,1.71
101.9669,1.688
101.9669,1.682
101.9669,1.681
101.9669,1.664
101.9669,1.658
101.9669,1.663
101.9679,1.68
101.9679,1.707
101.9679,1.72
101.9679,1.732
101.9679,1.755
101.9679,1.775
101.9679,1.78
101.9689,1.799
101.9689,1.799
101.9689,1.772
101.9689,1.755
101.9689,1.749
101.9689,1.745
101.9689,1.73
101.9689,1.729
101.9699,1.763
101.9699,1.769
101.9699,1.781
101.9699,1.789
101.9699,1.8
101.9699,1.817
101.9699,1.834
101.9709,1.808
101.9709,1.808
101.9709,1.789
101.9709,1.781
101.9709,1.77
101.9709,1.757
101.9719,1.751
101.9719,1.765
101.9719,1.784
101.9729,1.788
101.9729,1.794
101.9729,1.806
101.9729,1.813
101.9729,1.824
101.9729,1.836
101.9729,1.837
101.9739,1.785
101.9739,1.778
101.9739,1.771
101.9739,1.766
101.9739,1.756
101.9739,1.751
101.9739,1.772
101.9749,1.788
101.9749,1.799
101.9749,1.807
101.9749,1.813
101.9749,1.823
101.9749,1.824
101.9749,1.824
101.9759,1.805
101.9759,1.792
101.9759,1.776
101.9759,1.768
101.9759,1.74
101.9759,1.736
101.9759,1.763
101.9769,1.775
101.9769,1.774
101.9769,1.778
101.9769,1.799
101.9769,1.804
101.9769,1.823
101.9769,1.827
101.9769,1.809
101.9779,1.781
101.9779,1.772
101.9779,1.759
101.9779,1.752
101.9779,1.739
101.9779,1.73
101.9779,1.751
101.9789,1.771
101.9789,1.775
101.9789,1.781
101.9789,1.793
101.9789,1.801
101.9789,1.827
101.9789,1.836
101.9799,1.799
101.9799,1.764
101.9799,1.765
101.9799,1.754
101.9799,1.738
101.9799,1.725
101.9799,1.737
101.9809,1.735
101.9809,1.754
101.9809,1.763
101.9809,1.769
101.9809,1.788
101.9809,1.811
101.9809,1.807
101.9809,1.798
101.9819,1.776
101.9819,1.764
101.9819,1.752
101.9819,1.748
101.9819,1.736
101.9819,1.726
101.9829,1.75
101.9829,1.761
101.9829,1.763
101.9829,1.77
101.9829,1.779
101.9829,1.793
101.9839,1.802
101.9839,1.809
101.9839,1.797
101.9839,1.764
101.9839,1.759
101.9839,1.756
101.9839,1.728
101.9849,1.71
101.9849,1.733
101.9849,1.745
101.9849,1.758
101.9849,1.777
101.9849,1.782
101.9849,1.784
101.9849,1.815
101.9859,1.81
101.9859,1.837
101.9859,1.774
101.9859,1.768
101.9859,1.755
101.9859,1.75
101.9859,1.738
101.9869,1.733
101.9869,1.743
101.9869,1.754
101.9869,1.761
101.9869,1.775
101.9869,1.781
101.9869,1.786
101.9879,1.811
101.9879,1.812
101.9879,1.792
101.9879,1.78
101.9879,1.767
101.9889,1.748
101.9889,1.74
101.9889,1.725
101.9889,1.739
101.9889,1.753
101.9889,1.749
101.9889,1.769
101.9899,1.774
101.9899,1.783
101.9899,1.799
101.9899,1.809
101.9899,1.831
101.9899,1.776
101.9899,1.765
101.9899,1.751
101.9909,1.748
101.9909,1.745
101.9909,1.734
101.9909,1.737
101.9909,1.753
101.9909,1.763
101.9909,1.776
101.9919,1.78
101.9919,1.789
101.9919,1.801
101.9919,1.808
101.9919,1.809
101.9919,1.786
101.9929,1.772
101.9929,1.751
101.9929,1.749
101.9929,1.719
101.9929,1.723
101.9929,1.762
101.9929,1.751
101.9939,1.773
101.9939,1.784
101.9939,1.785
101.9939,1.795
101.9939,1.815
101.9939,1.82
101.9939,1.784
101.9949,1.773
101.9949,1.767
101.9949,1.755
101.9949,1.743
101.9949,1.729
101.9949,1.751
101.9949,1.756
101.9959,1.769
101.9959,1.771
101.9959,1.781
101.9959,1.81
101.9959,1.81
101.9959,1.815
101.9959,1.803
101.9969,1.793
101.9969,1.766
101.9969,1.748
101.9969,1.744
101.9969,1.716
101.9969,1.717
101.9969,1.743
101.9969,1.741
101.9979,1.763
101.9979,1.766
101.9979,1.773
101.9979,1.783
101.9979,1.791
101.9979,1.773
101.9979,1.743
101.9989,1.733
101.9989,1.723
101.9989,1.711
101.9989,1.709
101.9989,1.687
101.9989,1.709
101.9999,1.721
101.9999,1.719
101.9999,1.734
101.9999,1.748
101.9999,1.769
101.9999,1.783
101.9999,1.795
102.0009,1.77
102.0009,1.753
102.0009,1.749
102.0009,1.72
102.0009,1.707
102.0009,1.706
102.0009,1.712
102.0019,1.742
102.0019,1.745
102.5896,1.766
102.6036,1.772
102.6136,1.784
102.6156,1.788
102.6166,1.796
102.6166,1.773
102.6166,1.749
102.6166,1.742
102.6166,1.732
102.6176,1.718
102.6176,1.711
102.6176,1.7
102.6176,1.75
102.6176,1.747
102.6176,1.762
102.6186,1.77
102.6186,1.795
102.6186,1.809
102.6186,1.828
102.6186,1.827
102.6186,1.787
102.6186,1.76
102.6196,1.747
102.6196,1.735
102.6196,1.732
102.6196,1.724
102.6196,1.758
102.6196,1.77
102.6205,1.776
102.6205,1.793
102.6205,1.793
102.6205,1.801
102.6205,1.814
102.6205,1.819
102.6215,1.803
102.6215,1.767
102.6215,1.751
102.6225,1.751
102.6225,1.718
102.6225,1.717
102.6225,1.758
102.6225,1.751
102.6225,1.763
102.6225,1.776
102.6225,1.782
102.6235,1.788
102.6235,1.821
102.6235,1.83
102.6235,1.805
102.6235,1.796
102.6235,1.759
102.6235,1.75
102.6245,1.741
102.6245,1.736
102.6245,1.721
102.6245,1.75
102.6245,1.767
102.6245,1.769
102.6255,1.776
102.6255,1.772
102.6255,1.774
102.6255,1.786
102.6255,1.784
102.6255,1.774
102.6255,1.732
102.6265,1.715
102.6265,1.69
102.6265,1.619
102.6265,1.578
102.6265,1.57
102.6265,1.537
102.6265,1.49
102.6275,1.476
102.6275,1.475
102.6275,1.445
102.6275,1.438
102.6275,1.451
102.6275,1.417
102.6275,1.458
102.6275,1.698
102.6285,1.904
102.6285,1.985
102.6285,1.927
102.6285,1.865
102.6285,1.867
102.6285,1.958
102.6285,2.033
102.6295,2.19
102.6295,2.326
102.6295,2.351
102.6295,2.288
102.6295,2.215
102.6295,2.168
102.6295,2.145
102.6305,2.127
102.6305,2.105
102.6305,2.073
102.6305,1.999
102.6305,1.967
102.6305,1.951
102.6305,1.945
102.6315,1.921
102.6315,1.9
102.6315,1.876
102.6315,1.88
102.6315,1.876
102.6315,1.861
102.6315,1.796
102.6325,1.748
102.6325,1.72
102.6325,1.701
102.6325,1.687
102.6325,1.686
102.6325,1.686
102.6325,1.702
102.6335,1.742
102.6335,1.747
102.6335,1.755
102.6335,1.754
102.6335,1.761
102.6335,1.771
102.6335,1.77
102.6335,1.735
102.6345,1.716
102.6345,1.701
102.6345,1.686
102.6345,1.675
102.6345,1.668
102.6345,1.664
102.6345,1.695
102.6355,1.714
102.6355,1.72
102.6355,1.721
102.6355,1.755
102.6355,1.749
102.6355,1.761
102.6355,1.741
102.6365,1.715
102.6365,1.706
102.6365,1.683
102.6365,1.676
102.6365,1.664
102.6365,1.673
102.6365,1.664
102.6375,1.684
102.6375,1.708
102.6375,1.717
102.6375,1.728
102.6375,1.745
102.6375,1.741
102.6375,1.747
102.6385,1.709
102.6385,1.697
102.6385,1.693
102.6385,1.686
102.6385,1.677
102.6395,1.659
102.6395,1.658
102.6395,1.676
102.6395,1.696
102.6395,1.707
102.6395,1.721
102.6395,1.718
102.6405,1.753
102.6405,1.747
102.6405,1.725
102.6405,1.712
102.6405,1.697
102.6405,1.679
102.6415,1.673
102.6415,1.662
102.6415,1.646
102.6415,1.679
102.6415,1.681
102.6415,1.695
102.6415,1.711
102.6425,1.717
102.6425,1.733
102.6425,1.744
102.6425,1.73
102.6425,1.701
102.6425,1.689
102.6425,1.678
102.6435,1.672
102.6435,1.659
102.6435,1.653
102.6435,1.665
102.6435,1.658
102.6435,1.679
102.6435,1.683
102.6445,1.699
102.6445,1.707
102.6445,1.729
102.6445,1.714
102.6445,1.724
102.6445,1.699
102.6445,1.68
102.6445,1.662
102.6455,1.653
102.6455,1.631
102.6455,1.617
102.6455,1.634
102.6455,1.649
102.6455,1.655
102.6455,1.678
102.6465,1.683
102.6465,1.691
102.6465,1.706
102.6465,1.717
102.6465,1.658
102.6465,1.651
102.6465,1.634
102.6475,1.608
102.6475,1.611
102.6475,1.604
102.6475,1.581
102.6475,1.612
102.6475,1.613
102.6475,1.619
102.6485,1.628
102.6485,1.637
102.6485,1.645
102.6485,1.648
102.6485,1.614
102.6485,1.589
102.6485,1.573
102.6495,1.565
102.6495,1.542
102.6495,1.527
102.6495,1.51
102.6495,1.496
102.6495,1.518
102.6495,1.534
102.6495,1.535
102.6505,1.538
102.6505,1.555
102.6505,1.551
102.6505,1.547
102.6505,1.52
102.6505,1.5
102.6505,1.481
102.6515,1.474
102.6515,1.467
102.6515,1.443
102.6515,1.456
102.6515,1.445
102.6515,1.478
102.6525,1.495
102.6525,1.501
102.6525,1.502
102.6525,1.54
102.6525,1.533
102.6525,1.502
102.6525,1.512
102.6535,1.489
102.6535,1.478
102.6535,1.457
102.6535,1.448
102.6535,1.443
102.6535,1.442
102.6535,1.471
102.6545,1.487
102.6545,1.515
102.6545,1.524
102.6545,1.533
102.6545,1.554
102.6545,1.588
102.6555,1.567
102.6555,1.535
102.6555,1.536
102.6555,1.53
102.6565,1.529
102.6565,1.529
102.6565,1.557
102.6565,1.599
102.6565,1.59
102.6575,1.595
102.6575,1.613
102.6575,1.622
102.6575,1.67
102.6575,1.7
102.6575,1.698
102.6575,1.671
102.6585,1.655
102.6585,1.647
102.6585,1.653
102.6585,1.637
102.6585,1.638
102.6585,1.658
102.6585,1.677
102.6585,1.7
102.6595,1.714
102.6595,1.727
102.6595,1.737
102.6595,1.758
102.6595,1.778
102.6595,1.766
102.6595,1.732
102.6605,1.726
102.6605,1.73
102.6605,1.724
102.6605,1.706
102.6605,1.716
102.6605,1.74
102.6605,1.747
102.6615,1.753
102.6615,1.763
102.6615,1.782
102.6615,1.819
102.6615,1.818
102.6615,1.805
102.6625,1.804
102.6625,1.778
102.6625,1.754
102.6625,1.751
102.6625,1.739
102.6625,1.724
102.6625,1.712
102.6625,1.757
102.6635,1.77
102.6635,1.779
102.6635,1.798
102.6635,1.805
102.6635,1.828
102.6635,1.814
102.6635,1.797
102.6645,1.776
102.6645,1.76
102.6645,1.757
102.6645,1.751
102.6645,1.733
102.6645,1.715
102.6645,1.738
102.6655,1.749
102.6655,1.766
102.6655,1.77
102.6655,1.781
102.6655,1.823
102.6655,1.823
102.6655,1.801
102.6665,1.784
102.6665,1.771
102.6665,1.741
102.6665,1.738
102.6665,1.732
102.6665,1.704
102.6665,1.695
102.6665,1.71
102.6675,1.755
102.6675,1.758
102.6675,1.763
102.6675,1.773
102.6675,1.799
102.6675,1.799
102.6675,1.788
102.6685,1.75
102.6685,1.737
102.6685,1.728
102.6685,1.721
102.6685,1.706
102.6685,1.697
102.6685,1.697
102.6695,1.72
102.6695,1.742
102.6695,1.748
102.6695,1.765
102.6695,1.778
102.6695,1.777
102.6695,1.786
102.6705,1.768
102.6705,1.748
102.6705,1.707
102.6705,1.715
102.6705,1.704
102.6705,1.685
102.6705,1.688
102.6714,1.695
102.6714,1.72
102.6714,1.739
102.6714,1.745
102.6714,1.749
102.6724,1.773
102.6724,1.789
102.6724,1.75
102.6724,1.744
102.6724,1.731
102.6724,1.721
102.6734,1.719
102.6734,1.705
102.6734,1.691
102.6734,1.719
102.6734,1.726
102.6734,1.735
102.6734,1.747
102.6744,1.761
102.6744,1.774
102.6744,1.791
102.6744,1.785
102.6744,1.756
102.6744,1.747
102.6744,1.727
102.6754,1.719
102.6754,1.712
102.6754,1.703
102.6754,1.686
102.6754,1.7
102.6754,1.738
102.6754,1.745
102.6764,1.744
102.6764,1.759
102.6764,1.763
102.6764,1.784
102.6764,1.781
102.6764,1.763
102.6764,1.748
102.6764,1.738
102.6774,1.724
102.6774,1.718
102.6774,1.707
102.6774,1.711
102.6774,1.733
102.6774,1.751
102.6774,1.766
102.6784,1.771
102.6784,1.794
102.6784,1.811
102.6784,1.801
102.6784,1.779
102.6784,1.776
102.6784,1.743
102.6794,1.733
102.6794,1.741
102.6794,1.71
102.6794,1.701
102.6794,1.709
102.6794,1.752
102.6794,1.76
102.6804,1.765
102.6804,1.776
102.6804,1.784
102.6804,1.802
102.6804,1.803
102.6804,1.768
102.6804,1.756
102.6814,1.74
102.6814,1.728
102.6814,1.696
102.6814,1.687
102.6814,1.681
102.6814,1.705
102.6814,1.723
102.6824,1.724
102.6824,1.742
102.6824,1.755
102.6824,1.763
102.6824,1.793
102.6824,1.78
102.6824,1.756
102.6834,1.72
102.6834,1.724
102.6834,1.714
102.6834,1.691
102.6834,1.691
102.6834,1.723
102.6834,1.744
102.6844,1.76
102.6844,1.77
102.6844,1.775
102.6844,1.785
102.6844,1.806
102.6844,1.793
102.6844,1.778
102.6854,1.757
102.6854,1.748
102.6854,1.747
102.6854,1.72
102.6854,1.712
102.6854,1.717
102.6854,1.734
102.6864,1.757
102.6864,1.765
102.6864,1.787
102.6864,1.785
102.6864,1.795
102.6864,1.81
102.6864,1.814
102.6874,1.784
102.6874,1.754
102.6874,1.744
102.6874,1.737
102.6874,1.712
102.6874,1.736
102.6874,1.759
102.6884,1.772
102.6884,1.786
102.6884,1.791
103.2725,1.811
103.2725,1.823
103.2735,1.82
103.2735,1.796
103.2735,1.769
103.2735,1.754
103.2745,1.743
103.2745,1.732
103.2745,1.72
103.2745,1.747
103.2745,1.763
103.2755,1.768
103.2755,1.797
103.2755,1.806
103.2755,1.809
103.2765,1.833
103.2765,1.855
103.2765,1.799
103.2765,1.787
103.2765,1.775
103.2775,1.754
103.2775,1.743
103.2775,1.734
103.2775,1.734
103.2775,1.761
103.2775,1.761
103.2785,1.767
103.2785,1.785
103.2785,1.808
103.2785,1.841
103.2785,1.862
103.2785,1.865
103.2795,1.798
103.2795,1.763
103.2795,1.763
103.2795,1.771
103.2795,1.759
103.2795,1.74
103.2805,1.743
103.2805,1.745
103.2805,1.744
103.2805,1.755
103.2805,1.766
103.2805,1.781
103.2815,1.802
103.2815,1.778
103.2815,1.72
103.2825,1.662
103.2825,1.615
103.2825,1.561
103.2825,1.517
103.2825,1.496
103.2825,1.478
103.2835,1.482
103.2835,1.459
103.2835,1.438
103.2835,1.452
103.2835,1.528
103.2835,1.892
103.2835,2.031
103.2845,2.071
103.2845,1.995
103.2845,1.917
103.2845,1.881
103.2845,1.947
103.2845,2.034
103.2855,2.175
103.2855,2.287
103.2855,2.285
103.2855,2.213
103.2855,2.165
103.2855,2.148
103.2855,2.157
103.2865,2.172
103.2865,2.168
103.2865,2.105
103.2865,2.043
103.2865,1.995
103.2865,1.955
103.2865,1.911
103.2875,1.884
103.2875,1.815
103.2875,1.826
103.2875,1.829
103.2875,1.809
103.2875,1.787
103.2885,1.781
103.2885,1.79
103.2885,1.799
103.2885,1.803
103.2885,1.779
103.2885,1.751
103.2885,1.746
103.2895,1.736
103.2895,1.727
103.2895,1.719
103.2895,1.702
103.2895,1.722
103.2895,1.733
103.2895,1.754
103.2905,1.759
103.2905,1.766
103.2905,1.768
103.2905,1.79
103.2905,1.762
103.2905,1.746
103.2905,1.735
103.2915,1.725
103.2915,1.717
103.2915,1.706
103.2915,1.692
103.2915,1.708
103.2915,1.714
103.2925,1.734
103.2925,1.739
103.2925,1.747
103.2925,1.762
103.2925,1.784
103.2925,1.799
103.2925,1.776
103.2935,1.743
103.2935,1.734
103.2935,1.721
103.2935,1.703
103.2935,1.693
103.2935,1.684
103.2935,1.703
103.2945,1.715
103.2945,1.733
103.2945,1.746
103.2945,1.754
103.2945,1.762
103.2945,1.776
103.2955,1.786
103.2955,1.76
103.2955,1.726
103.2955,1.718
103.2955,1.707
103.2965,1.694
103.2965,1.676
103.2965,1.684
103.2965,1.71
103.2975,1.725
103.2975,1.734
103.2975,1.736
103.2975,1.744
103.2975,1.785
103.2975,1.758
103.2975,1.741
103.2985,1.74
103.2985,1.724
103.2985,1.705
103.2985,1.689
103.2985,1.672
103.2985,1.664
103.2995,1.701
103.2995,1.724
103.2995,1.709
103.2995,1.73
103.2995,1.737
103.2995,1.759
103.2995,1.776
103.2995,1.772
103.3005,1.762
103.3005,1.71
103.3005,1.696
103.3005,1.691
103.3005,1.682
103.3005,1.658
103.3005,1.655
103.3015,1.697
103.3015,1.689
103.3015,1.696
103.3015,1.707
103.3015,1.716
103.3015,1.728
103.3025,1.767
103.3025,1.741
103.3025,1.707
103.3025,1.686
103.3025,1.676
103.3025,1.661
103.3025,1.638
103.3035,1.634
103.3035,1.646
103.3035,1.669
103.3035,1.669
103.3035,1.671
103.3035,1.683
103.3035,1.7
103.3044,1.708
103.3044,1.698
103.3044,1.711
103.3044,1.677
103.3044,1.628
103.3044,1.622
103.3054,1.611
103.3054,1.582
103.3054,1.58
103.3054,1.625
103.3054,1.609
103.3054,1.619
103.3054,1.619
103.3064,1.616
103.3064,1.628
103.3064,1.646
103.3064,1.624
103.3064,1.609
103.3064,1.565
103.3074,1.544
103.3074,1.531
103.3074,1.492
103.3074,1.488
103.3074,1.516
103.3074,1.522
103.3074,1.512
103.3074,1.52
103.3084,1.53
103.3084,1.545
103.3084,1.565
103.3084,1.565
103.3084,1.563
103.3084,1.537
103.3084,1.481
103.3094,1.473
103.3094,1.466
103.3094,1.44
103.3094,1.438
103.3094,1.475
103.3094,1.475
103.3104,1.485
103.3104,1.495
103.3104,1.502
103.3104,1.512
103.3104,1.54
103.3104,1.53
103.3104,1.502
103.3104,1.49
103.3114,1.479
103.3114,1.471
103.3114,1.452
103.3114,1.456
103.3124,1.463
103.3124,1.465
103.3124,1.5
103.3124,1.518
103.3124,1.545
103.3124,1.56
103.3124,1.576
103.3134,1.589
103.3134,1.592
103.3134,1.59
103.3134,1.56
103.3134,1.558
103.3134,1.56
103.3134,1.552
103.3134,1.544
103.3144,1.55
103.3144,1.604
103.3144,1.619
103.3144,1.635
103.3144,1.648
103.3144,1.664
103.3154,1.682
103.3154,1.694
103.3154,1.683
103.3154,1.667
103.3154,1.658
103.3154,1.655
103.3154,1.639
103.3164,1.635
103.3164,1.652
103.3164,1.665
103.3164,1.678
103.3164,1.693
103.3164,1.716
103.3164,1.725
103.3174,1.752
103.3174,1.75
103.3174,1.744
103.3174,1.736
103.3174,1.702
103.3174,1.697
103.3174,1.693
103.3184,1.684
103.3184,1.67
103.3184,1.702
103.3184,1.706
103.3184,1.725
103.3184,1.733
103.3194,1.743
103.3194,1.749
103.3194,1.775
103.3194,1.746
103.3194,1.738
103.3194,1.729
103.3194,1.716
103.3194,1.705
103.3204,1.685
103.3204,1.668
103.3204,1.673
103.3204,1.697
103.3204,1.707
103.3204,1.717
103.3204,1.736
103.3214,1.733
103.3214,1.75
103.3214,1.763
103.3214,1.756
103.3214,1.723
103.3224,1.697
103.3224,1.686
103.3224,1.672
103.3224,1.662
103.3224,1.653
103.3224,1.667
103.3224,1.68
103.3234,1.698
103.3234,1.708
103.3234,1.709
103.3234,1.713
103.3234,1.724
103.3234,1.721
103.3234,1.728
103.3244,1.682
103.3244,1.671
103.3244,1.66
103.3244,1.638
103.3244,1.62
103.3244,1.637
103.3244,1.648
103.3254,1.646
103.3254,1.662
103.3254,1.678
103.3254,1.683
103.3254,1.705
103.3254,1.714
103.3254,1.685
103.3264,1.662
103.3264,1.647
103.3264,1.631
103.3264,1.62
103.3264,1.61
103.3264,1.589
103.3264,1.6
103.3274,1.626
103.3274,1.631
103.3274,1.64
103.3274,1.646
103.3274,1.649
103.3274,1.671
103.3274,1.683
103.3284,1.649
103.3284,1.631
103.3284,1.618
103.3284,1.606
103.3284,1.584
103.3284,1.571
103.3284,1.563
103.3284,1.576
103.3294,1.598
103.3294,1.621
103.3294,1.628
103.3294,1.634
103.3294,1.651
103.3294,1.646
103.3294,1.643
103.3304,1.613
103.3304,1.596
103.3304,1.588
103.3304,1.582
103.3314,1.577
103.3314,1.553
103.3314,1.571
103.3324,1.561
103.3324,1.591
103.3324,1.602
103.3324,1.61
103.3324,1.625
103.3334,1.653
103.3334,1.641
103.3334,1.612
103.3334,1.601
103.3334,1.585
103.3334,1.571
103.3344,1.563
103.3344,1.539
103.3344,1.532
103.3344,1.547
103.3344,1.57
103.3344,1.588
103.3344,1.601
103.3344,1.606
103.3354,1.605
103.3354,1.626
103.3354,1.631
103.3354,1.58
103.3354,1.57
103.3354,1.566
103.3354,1.558
103.3364,1.55
103.3364,1.532
103.3364,1.548
103.3364,1.553
103.3364,1.573
103.3364,1.582
103.3364,1.593
103.3374,1.606
103.3374,1.621
103.3374,1.611
103.3374,1.613
103.3374,1.582
103.3374,1.571
103.3374,1.542
103.3384,1.535
103.3384,1.513
103.3384,1.507
103.3384,1.512
103.3384,1.54
103.3384,1.551
103.3394,1.56
103.3394,1.565
103.3394,1.562
103.3394,1.575
103.3394,1.584
103.3394,1.524
103.3394,1.511
103.3404,1.498
103.3404,1.487
103.3404,1.484
103.3404,1.474
103.3404,1.461
103.3404,1.487
103.3404,1.495
103.3404,1.502
103.3414,1.515
103.3414,1.522
103.3414,1.546
103.3414,1.56
103.3414,1.541
103.3414,1.503
103.3414,1.493
103.3423,1.476
103.3423,1.474
103.3423,1.456
103.3423,1.462
103.3423,1.455
103.3423,1.477
103.3433,1.508
103.3433,1.52
103.3433,1.527
103.3433,1.53
103.3433,1.542
103.3433,1.539
103.3433,1.518
103.3443,1.491
103.3443,1.48
103.3443,1.469
103.3443,1.468
103.3443,1.449
103.3443,1.464
103.3443,1.454
103.3453,1.48
103.3453,1.489
103.3453,1.498
103.3453,1.502
103.3453,1.531
103.3453,1.522
103.3453,1.51
103.3463,1.493
103.3463,1.48
103.3463,1.458
103.3463,1.452
103.3463,1.438
103.3463,1.426
103.3463,1.436
103.3473,1.457
103.3473,1.464
103.3473,1.477
103.3473,1.484
103.3473,1.487
103.3473,1.499
103.3473,1.513
103.3483,1.483
103.3483,1.449
103.3483,1.441
103.3483,1.427
103.3483,1.42
103.3483,1.412
103.3493,1.421
103.3493,1.439
103.3493,1.449
103.3493,1.468
103.3493,1.479
103.3493,1.493
103.3493,1.484
104.1761,1.47
104.1761,1.484
104.1761,1.429
104.1771,1.422
104.1771,1.41
104.1771,1.395
104.1771,1.389
104.1781,1.41
104.1781,1.424
104.1781,1.433
104.1781,1.443
104.1791,1.449
104.1791,1.451
104.1791,1.479
104.1791,1.456
104.1791,1.422
104.1801,1.38
104.1801,1.365
104.1801,1.352
104.1801,1.348
104.1811,1.314
104.1811,1.307
104.1811,1.327
104.1811,1.291
104.1821,1.262
104.1821,1.249
104.1821,1.235
104.1831,1.235
104.1831,1.236
104.1831,1.235
104.1831,1.23
104.1841,1.228
104.1841,1.228
104.1841,1.228
104.1841,1.229
104.1841,1.264
104.1851,1.436
104.1851,1.485
104.1851,1.414
104.1851,1.408
104.1851,1.485
104.1861,1.556
104.1861,1.647
104.1861,1.798
104.1861,1.877
104.1871,1.824
104.1871,1.777
104.1871,1.749
104.1871,1.745
104.1881,1.728
104.1881,1.679
104.1881,1.697
104.1881,1.691
104.1891,1.654
104.1891,1.64
104.1891,1.613
104.1891,1.581
104.1901,1.574
104.1901,1.571
104.1901,1.512
104.1901,1.458
104.1911,1.391
104.1911,1.358
104.1911,1.33
104.1911,1.326
104.1911,1.34
104.1921,1.348
104.1921,1.347
104.1921,1.356
104.1921,1.363
104.1931,1.366
104.1931,1.395
104.1931,1.394
104.1931,1.396
104.1941,1.337
104.1941,1.321
104.1941,1.309
104.1941,1.298
104.1951,1.29
104.1951,1.274
104.1951,1.307
104.1951,1.306
104.1961,1.299
104.1961,1.308
104.1961,1.314
104.1961,1.319
104.1961,1.346
104.1971,1.367
104.1971,1.32
104.1971,1.302
104.1971,1.286
104.1981,1.278
104.1981,1.267
104.1981,1.262
104.1981,1.265
104.1991,1.273
104.1991,1.282
104.1991,1.284
104.1991,1.292
104.2001,1.297
104.2001,1.323
104.2001,1.324
104.2001,1.324
104.2011,1.319
104.2011,1.29
104.2011,1.267
104.2011,1.264
104.2020,1.263
104.2020,1.253
104.2020,1.257
104.2020,1.274
104.2030,1.273
104.2030,1.279
104.2030,1.289
104.2030,1.292
104.2040,1.302
104.2040,1.31
104.2040,1.332
104.2040,1.279
104.2050,1.27
104.2050,1.267
104.2050,1.26
104.2050,1.257
104.2050,1.251
104.2060,1.26
104.2060,1.272
104.2060,1.269
104.2060,1.274
104.2070,1.279
104.2070,1.278
104.2070,1.313
104.2070,1.302
104.2080,1.297
104.2080,1.275
104.2080,1.265
104.2080,1.258
104.2090,1.254
104.2090,1.247
104.2090,1.248
104.2090,1.261
104.2100,1.274
104.2100,1.259
104.2100,1.264
104.2100,1.27
104.2100,1.279
104.2110,1.288
104.2110,1.309
104.2110,1.291
104.2110,1.263
104.2110,1.253
104.2120,1.249
104.2120,1.249
104.2120,1.246
104.2130,1.243
104.2130,1.253
104.2130,1.258
104.2130,1.256
104.2140,1.258
104.2140,1.263
104.2140,1.277
104.2140,1.277
104.2150,1.28
104.2150,1.268
104.2150,1.248
104.2150,1.245
104.2150,1.244
104.2160,1.242
104.2160,1.238
104.2160,1.255
104.2160,1.246
104.2170,1.243
104.2170,1.245
104.2170,1.247
104.2170,1.248
104.2180,1.251
104.2180,1.261
104.2180,1.263
104.2180,1.252
104.2190,1.239
104.2190,1.237
104.2190,1.236
104.2190,1.234
104.2200,1.232
104.2200,1.241
104.2200,1.243
104.2200,1.234
104.2210,1.235
104.2210,1.235
104.2210,1.238
104.2220,1.238
104.2220,1.244
104.2220,1.245
104.2220,1.237
104.2220,1.232
104.2230,1.23
104.2230,1.23
104.2230,1.23
104.2230,1.229
104.2230,1.234
104.2240,1.234
104.2240,1.231
104.2240,1.231
104.2240,1.231
104.2240,1.232
104.2250,1.232
104.2250,1.233
104.2250,1.233
104.2250,1.23
104.2260,1.229
104.2260,1.229
104.2260,1.229
104.2260,1.229
104.2270,1.23
104.2270,1.232
104.2270,1.23
104.2270,1.23
104.2270,1.23
104.2280,1.23
104.2280,1.231
104.2280,1.235
104.2280,1.238
104.2280,1.232
104.2290,1.23
104.2290,1.23
104.2290,1.23
104.2290,1.23
104.2300,1.229
104.2300,1.231
104.2300,1.234
104.2300,1.233
104.2300,1.233
104.2310,1.234
104.2310,1.235
104.2310,1.239
104.2310,1.246
104.2310,1.244
104.2320,1.244
104.2350,1.236
104.2360,1.235
104.2429,1.235
104.2449,1.234
104.2459,1.234
104.2469,1.244
104.2469,1.241
104.2469,1.241
104.2469,1.244
104.2479,1.246
104.2479,1.253
104.2479,1.265
104.2479,1.282
104.2489,1.272
104.2489,1.25
104.2489,1.247
104.2489,1.246
104.2499,1.244
104.2499,1.242
104.2499,1.253
104.2499,1.262
104.2509,1.257
104.2509,1.255
104.2509,1.258
104.2509,1.268
104.2519,1.275
104.2519,1.285
104.2519,1.306
104.2519,1.291
104.2519,1.258
104.2529,1.251
104.2529,1.249
104.2529,1.246
104.2529,1.244
104.2529,1.245
104.2539,1.256
104.2539,1.257
104.2539,1.259
104.2539,1.263
104.2549,1.27
104.2549,1.29
104.2549,1.286
104.2559,1.294
104.2559,1.262
104.2559,1.255
104.2559,1.252
104.2569,1.251
104.2569,1.245
104.2569,1.244
104.2569,1.264
104.2569,1.254
104.2579,1.258
104.2579,1.261
104.2579,1.265
104.2579,1.267
104.2589,1.283
104.2589,1.307
104.2589,1.304
104.2589,1.258
104.2589,1.254
104.2599,1.252
104.2599,1.246
104.2599,1.243
104.2599,1.253
104.2609,1.257
104.2609,1.262
104.2609,1.256
104.2609,1.262
104.2609,1.265
104.2609,1.278
104.2619,1.277
104.2619,1.296
104.2629,1.3
104.2629,1.253
104.2629,1.25
104.2629,1.247
104.2629,1.246
104.2639,1.244
104.2639,1.247
104.2639,1.26
104.2639,1.254
104.2649,1.257
104.2649,1.261
104.2649,1.265
104.2659,1.273
104.2659,1.307
104.2659,1.285
104.2659,1.257
104.2669,1.253
104.2669,1.249
104.2669,1.246
104.2669,1.242
104.2679,1.247
104.2679,1.262
104.2679,1.262
104.2679,1.252
104.2689,1.256
104.2689,1.262
104.2689,1.27
104.2689,1.285
104.2699,1.306
104.2699,1.274
104.2699,1.257
104.2699,1.249
104.2709,1.246
104.2709,1.244
104.2709,1.244
104.2709,1.242
104.2709,1.253
104.2709,1.253
104.2719,1.255
104.2719,1.261
104.2719,1.267
104.2729,1.272
104.2729,1.29
104.2729,1.302
104.2729,1.265
104.2739,1.256
104.2739,1.251
104.2739,1.248
104.2739,1.247
104.2739,1.244
104.2749,1.256
104.2749,1.269
104.2749,1.256
104.2749,1.259
104.2759,1.264
104.2759,1.269
104.2759,1.288
104.2759,1.295
104.2759,1.303
104.2768,1.272
104.2768,1.261
104.2768,1.26
104.2768,1.253
104.2768,1.248
104.2768,1.253
104.2778,1.268
104.2778,1.262
104.2778,1.265
104.2778,1.276
104.2788,1.277
104.2788,1.296
104.2798,1.306
104.2798,1.314
104.2798,1.322
104.2798,1.267
104.2798,1.262
104.2808,1.26
104.2808,1.255
104.2808,1.249
104.2818,1.253
104.2818,1.263
104.2818,1.264
104.2818,1.271
104.2828,1.277
104.2828,1.277
104.2828,1.281
104.2828,1.313
104.2828,1.291
104.2838,1.268
104.2838,1.26
104.2838,1.254
104.2838,1.253
104.2848,1.247
104.2848,1.245
104.2848,1.255
104.2848,1.26
104.2848,1.259
104.2858,1.264
104.2858,1.28
104.2858,1.296
104.2858,1.306
104.2858,1.307
104.2868,1.327
104.2868,1.289
104.2868,1.265
104.2868,1.266
104.2878,1.262
104.2878,1.256
104.2878,1.259
104.2878,1.273
104.2888,1.273
104.2888,1.28
104.2888,1.288
104.2888,1.295
104.2888,1.312
104.2888,1.322
104.2898,1.357
104.2898,1.325
104.2898,1.288
104.2898,1.282
104.2908,1.274
104.2908,1.271
104.2908,1.262
104.2908,1.275
104.2918,1.296
104.2918,1.286
104.2918,1.301
104.2918,1.306
104.2928,1.31
104.2928,1.34
104.2928,1.349
104.2928,1.366
104.2938,1.343
104.2938,1.298
104.2938,1.293
104.2938,1.281
104.2938,1.272
104.2948,1.271
104.2948,1.294
104.2948,1.316
104.2948,1.301
104.2958,1.32
104.2958,1.331
104.2958,1.33
104.2958,1.349
104.2958,1.381
104.2958,1.395
104.2968,1.316
104.2968,1.307
104.2968,1.296
104.2968,1.294
104.2978,1.284
104.2978,1.275
104.2978,1.33
104.2978,1.319
104.2988,1.319
104.2988,1.33
104.2988,1.336
104.2988,1.34
104.2998,1.394
104.2998,1.396
104.2998,1.361
104.2998,1.33
104.3008,1.319
104.3008,1.303
104.3008,1.29
104.3008,1.281
104.3008,1.313
104.3018,1.347
104.3018,1.323
104.3018,1.331
104.3018,1.352
104.3028,1.36
104.3028,1.389
104.3028,1.393
104.3028,1.406
104.3038,1.372
104.3038,1.298
104.3038,1.292
104.3038,1.283
104.3048,1.269
104.3048,1.285
104.3048,1.261
104.3048,1.246
104.3058,1.238
104.3058,1.234
104.3058,1.231
104.3058,1.234
104.3058,1.232
104.3068,1.229
104.3068,1.228
104.3068,1.228
104.3068,1.227
104.3078,1.228
104.3078,1.234
104.3078,1.346
104.3078,1.474
104.3078,1.462
104.3078,1.391
104.3088,1.426
104.3088,1.532
104.3088,1.621
104.3088,1.758
104.3098,1.907
104.3098,1.924
104.3098,1.817
104.3098,1.778
104.3108,1.775
104.3108,1.753
104.3108,1.73
104.3108,1.721
104.3108,1.698
104.3108,1.677
104.3118,1.663
104.3118,1.639
104.3118,1.604
104.3128,1.612
104.3128,1.599
104.3128,1.573
104.3128,1.493
104.3137,1.464
104.3137,1.425
104.3137,1.388
104.3137,1.35
104.3137,1.381
104.3147,1.406
104.3147,1.398
104.3147,1.385
104.3147,1.401
104.3157,1.411
104.3157,1.439
104.3157,1.445
104.3157,1.475
104.3157,1.469
104.3167,1.382
104.3167,1.373
104.3167,1.358
104.3167,1.341
104.3167,1.343
104.3177,1.34
104.3177,1.366
104.3177,1.359
104.3177,1.366
104.3187,1.382
104.3187,1.392
104.3187,1.406
104.3187,1.412
104.3187,1.435
104.3197,1.38
104.3197,1.368
104.3197,1.356
104.3197,1.349
104.3207,1.325
104.3207,1.331
104.3207,1.378
104.3207,1.383
104.3217,1.367
104.3217,1.379
104.3217,1.39
104.3217,1.424
104.3227,1.434
104.3227,1.443
104.3227,1.443
104.3227,1.397
104.3237,1.367
104.3237,1.362
104.3237,1.35
104.3237,1.333
104.3237,1.352
104.3247,1.393
104.3247,1.386
104.3247,1.394
104.3247,1.405
104.3257,1.41
104.3257,1.434
104.3257,1.436
104.3257,1.47
104.3257,1.413
104.3267,1.392
104.3267,1.385
104.3267,1.374
104.3267,1.368
104.3277,1.354
104.3277,1.395
104.3277,1.416
104.3277,1.398
104.3287,1.414
104.3287,1.421
104.3287,1.427
104.3287,1.454
104.3287,1.491
104.3297,1.482
104.3297,1.427
104.3297,1.413
104.3297,1.411
104.3307,1.383
104.3307,1.368
104.3307,1.37
104.3307,1.407
104.3307,1.426
104.3307,1.41
104.3317,1.422
104.3317,1.436
104.3317,1.447
104.3317,1.475
104.3327,1.51
104.3327,1.479
104.3327,1.418
104.3327,1.405
104.3337,1.397
104.3337,1.391
104.3337,1.371
104.3337,1.375
104.3347,1.413
104.3347,1.409
104.3347,1.421
104.3347,1.43
104.3357,1.435
104.3357,1.451
104.3357,1.476
104.3357,1.482
104.3367,1.446
104.3367,1.417
104.3367,1.403
104.3367,1.396
104.3377,1.387
104.3377,1.363
104.3377,1.407
104.3377,1.401
104.3387,1.39
104.3387,1.4
104.3387,1.405
104.3387,1.427
104.3397,1.437
104.3397,1.453
104.3397,1.455
104.3397,1.425
104.3397,1.378
104.3407,1.349
104.3407,1.339
104.3407,1.314
104.3407,1.314
104.3417,1.347
104.3447,1.361
104.3457,1.341
104.3526,1.343
104.3556,1.347
104.3566,1.352
104.3566,1.366
104.3576,1.401
104.3576,1.382
104.3576,1.311
104.6316,1.301
104.6327,1.29
104.6327,1.285
104.6337,1.269
104.6337,1.263
104.6337,1.312
104.6347,1.286
104.6347,1.292
104.6356,1.301
104.6356,1.307
104.6367,1.317
104.6367,1.358
104.6367,1.346
104.6377,1.33
104.6387,1.3
104.6387,1.287
104.6396,1.279
104.6406,1.278
104.6406,1.264
104.6416,1.294
104.6416,1.314
104.6426,1.292
104.6426,1.301
104.6426,1.313
104.6436,1.336
104.6436,1.373
104.6446,1.389
104.6446,1.383
104.6456,1.367
104.6456,1.342
104.6466,1.335
104.6466,1.341
104.6466,1.323
104.6476,1.319
104.6476,1.366
104.6486,1.406
104.6486,1.399
104.6486,1.421
104.6496,1.436
104.6496,1.451
104.6506,1.49
104.6506,1.505
104.6506,1.508
104.6516,1.466
104.6526,1.462
104.6526,1.462
104.6526,1.463
104.6536,1.45
104.6536,1.503
104.6536,1.514
104.6546,1.511
104.6556,1.523
104.6556,1.538
104.6566,1.551
104.6566,1.601
104.6566,1.608
104.6576,1.629
104.6576,1.623
104.6576,1.578
104.6586,1.554
104.6586,1.551
104.6596,1.539
104.6596,1.533
104.6596,1.574
104.6606,1.591
104.6606,1.59
104.6606,1.603
104.6616,1.617
104.6616,1.627
104.6626,1.645
104.6626,1.659
104.6626,1.672
104.6636,1.616
104.6636,1.61
104.6646,1.597
104.6646,1.589
104.6646,1.582
104.6656,1.596
104.6656,1.628
104.6656,1.624
104.6666,1.619
104.6666,1.632
104.6676,1.642
104.6676,1.664
104.6676,1.69
104.6686,1.71
104.6686,1.676
104.6686,1.638
104.6696,1.615
104.6696,1.608
104.6696,1.604
104.6705,1.589
104.6705,1.603
104.6715,1.646
104.6755,1.63
104.6775,1.645
104.6845,1.658
104.6865,1.66
104.6875,1.682
104.6875,1.71
104.6885,1.7
104.6885,1.653
104.6885,1.64
104.6895,1.632
104.6895,1.624
104.6895,1.596
104.6895,1.616
104.6905,1.667
104.6905,1.633
104.6905,1.637
104.6905,1.655
104.6915,1.666
104.6915,1.695
104.6915,1.698
104.6915,1.715
104.6925,1.722
104.6925,1.662
104.6925,1.637
104.6925,1.634
104.6934,1.621
104.6934,1.606
104.6934,1.625
104.6934,1.668
104.6934,1.65
104.6944,1.661
104.6944,1.67
104.6944,1.675
104.6944,1.705
104.6944,1.721
104.6944,1.722
104.6955,1.673
104.6955,1.656
104.6955,1.648
104.6955,1.646
104.6955,1.61
104.6955,1.639
104.6955,1.659
104.6965,1.662
104.6965,1.657
104.6965,1.666
104.6965,1.687
104.6965,1.707
104.6965,1.709
104.6965,1.734
104.6974,1.718
104.6974,1.679
104.6974,1.656
104.6974,1.651
104.6974,1.641
104.6984,1.622
104.6984,1.611
104.6984,1.657
104.6984,1.664
104.6984,1.672
104.6994,1.678
104.6994,1.694
104.6994,1.707
104.6994,1.736
104.6994,1.718
104.7004,1.685
104.7004,1.671
104.7004,1.661
104.7014,1.655
104.7014,1.634
104.7014,1.622
104.7014,1.625
104.7024,1.663
104.7024,1.673
104.7024,1.682
104.7024,1.702
104.7024,1.722
104.7024,1.73
104.7035,1.717
104.7035,1.703
104.7035,1.7
104.7035,1.675
104.7035,1.666
104.7035,1.665
104.7035,1.649
104.7045,1.64
104.7045,1.69
104.7045,1.694
104.7045,1.706
104.7055,1.712
104.7055,1.72
104.7055,1.736
104.7055,1.754
104.7064,1.732
104.7064,1.726
104.7064,1.716
104.7064,1.701
104.7064,1.691
104.7064,1.666
104.7064,1.663
104.7074,1.665
104.7074,1.672
104.7074,1.702
104.7074,1.724
104.7074,1.732
104.7074,1.739
104.7074,1.762
104.7084,1.744
104.7084,1.748
104.7084,1.714
104.7084,1.7
104.7084,1.688
104.7084,1.678
104.7084,1.65
104.7094,1.639
104.7094,1.669
104.7094,1.678
104.7094,1.691
104.7094,1.703
104.7094,1.711
104.7094,1.717
104.7094,1.75
104.7104,1.75
104.7104,1.723
104.7104,1.701
104.7104,1.697
104.7104,1.685
104.7104,1.667
104.7104,1.661
104.7114,1.69
104.7114,1.679
104.7114,1.704
104.7114,1.738
104.7114,1.746
104.7114,1.751
104.7114,1.78
104.7124,1.79
104.7124,1.767
104.7124,1.738
104.7124,1.726
104.7124,1.714
104.7124,1.709
104.7124,1.704
104.7134,1.695
104.7134,1.72
104.7134,1.738
104.7134,1.744
104.7134,1.755
104.7134,1.767
104.7134,1.789
104.7144,1.791
104.7144,1.777
104.7144,1.773
104.7144,1.745
104.7144,1.739
104.7144,1.727
104.7144,1.707
104.7154,1.706
104.7154,1.706
104.7154,1.739
104.7154,1.746
104.7154,1.769
104.7154,1.777
104.7154,1.783
104.7164,1.795
104.7164,1.809
104.7164,1.82
104.7164,1.775
104.7164,1.761
104.7164,1.751
104.7164,1.745
104.7174,1.729
104.7174,1.719
104.7174,1.75
104.7174,1.754
104.7174,1.77
104.7174,1.78
104.7174,1.795
104.7184,1.826
104.7184,1.842
104.7184,1.826
104.7184,1.805
104.7184,1.784
104.7184,1.773
104.7194,1.759
104.7194,1.744
104.7194,1.741
104.7194,1.737
104.7194,1.746
104.7194,1.78
104.7194,1.797
104.7204,1.799
104.7204,1.806
104.7204,1.837
104.7204,1.848
104.7204,1.83
104.7204,1.795
104.7204,1.789
104.7214,1.78
104.7214,1.77
104.7214,1.753
104.7214,1.716
104.7214,1.723
104.7214,1.75
104.7224,1.76
104.7224,1.77
104.7224,1.781
104.7224,1.792
104.7224,1.76
104.7224,1.75
104.7234,1.662
104.7234,1.592
104.7234,1.516
104.7234,1.449
104.7234,1.41
104.7234,1.36
104.7234,1.326
104.7244,1.325
104.7244,1.367
104.7244,1.391
104.7244,1.488
104.7244,1.734
104.7244,1.937
104.7244,1.982
104.7244,1.931
104.7254,1.836
104.7254,1.913
104.7254,1.984
104.7254,2.051
104.7254,2.213
104.7254,2.294
104.7254,2.229
104.7264,2.218
104.7264,2.227
104.7264,2.221
104.7264,2.212
105.5412,2.211
105.5531,2.172
105.5561,2.13
105.5661,2.094
105.5681,1.989
105.5691,1.965
105.5701,1.942
105.5701,1.913
105.5701,1.911
105.5701,1.892
105.5711,1.867
105.5711,1.856
105.5711,1.854
105.5721,1.856
105.5721,1.868
105.5721,1.885
105.5731,1.862
105.5731,1.836
105.5731,1.829
105.5731,1.819
105.5731,1.812
105.5731,1.798
105.5741,1.79
105.5741,1.804
105.5741,1.815
105.5741,1.816
105.5741,1.817
105.5751,1.834
105.5751,1.842
105.5751,1.846
105.5751,1.858
105.5751,1.856
105.5751,1.818
105.5751,1.795
105.5761,1.782
105.5761,1.773
105.5761,1.761
105.5761,1.774
105.5761,1.787
105.5761,1.801
105.5761,1.812
105.5771,1.822
105.5771,1.831
105.5771,1.859
105.5771,1.851
105.5771,1.877
105.5771,1.826
105.5771,1.804
105.5781,1.797
105.5781,1.783
105.5781,1.758
105.5781,1.772
105.5781,1.792
105.5781,1.797
105.5781,1.807
105.5791,1.809
105.5791,1.831
105.5791,1.86
105.5791,1.864
105.5791,1.863
105.5791,1.87
105.5791,1.835
105.5791,1.802
105.5801,1.794
105.5801,1.789
105.5801,1.764
105.5801,1.763
105.5801,1.804
105.5801,1.814
105.5811,1.832
105.5811,1.835
105.5811,1.844
105.5811,1.867
105.5811,1.859
105.5811,1.866
105.5811,1.845
105.5821,1.817
105.5821,1.806
105.5821,1.802
105.5821,1.776
105.5821,1.763
105.5821,1.766
105.5831,1.815
105.5831,1.816
105.5831,1.824
105.5831,1.841
105.5831,1.858
105.5831,1.877
105.5831,1.863
105.5840,1.863
105.5840,1.848
105.5840,1.82
105.5840,1.805
105.5840,1.798
105.5840,1.78
105.5840,1.768
105.5850,1.771
105.5850,1.813
105.5850,1.819
105.5850,1.83
105.5850,1.837
105.5850,1.848
105.5850,1.877
105.5860,1.842
105.5860,1.833
105.5860,1.815
105.5860,1.803
105.5860,1.785
105.5860,1.782
105.5860,1.763
105.5870,1.762
105.5870,1.785
105.5870,1.79
105.5870,1.794
105.5870,1.805
105.5870,1.826
105.5870,1.838
105.5880,1.821
105.5880,1.808
105.5880,1.8
105.5880,1.78
105.5890,1.744
105.5890,1.733
105.5890,1.714
105.5890,1.706
105.5890,1.696
105.5890,1.717
105.5890,1.736
105.5900,1.735
105.5900,1.742
105.5900,1.752
105.5900,1.757
105.5900,1.739
105.5900,1.742
105.5900,1.703
105.5910,1.686
105.5910,1.669
105.5910,1.654
105.5910,1.633
105.5910,1.643
105.5910,1.646
105.5910,1.655
105.5920,1.656
105.5920,1.668
105.5920,1.67
105.5920,1.695
105.5920,1.718
105.5920,1.716
105.5930,1.668
105.5930,1.649
105.5930,1.637
105.5930,1.617
105.5930,1.6
105.5930,1.585
105.5930,1.594
105.5940,1.613
105.5940,1.629
105.5940,1.647
105.5940,1.655
105.5940,1.67
105.5940,1.679
105.5940,1.684
105.5950,1.693
105.5950,1.645
105.5950,1.646
105.5950,1.638
105.5950,1.633
105.5950,1.622
105.5950,1.623
105.5960,1.651
105.5960,1.67
105.5960,1.689
105.5960,1.706
105.5960,1.715
105.5960,1.731
105.5960,1.771
105.5970,1.761
105.5970,1.776
105.5970,1.75
105.5970,1.749
105.5970,1.735
105.5970,1.739
105.5970,1.731
105.5980,1.744
105.5980,1.768
105.5980,1.788
105.5980,1.804
105.5980,1.837
105.5980,1.848
105.5980,1.875
105.5990,1.888
105.5990,1.9
105.5990,1.882
105.5990,1.855
105.5990,1.855
105.5990,1.844
105.5990,1.835
105.6000,1.824
105.6000,1.817
105.6000,1.871
105.6000,1.881
105.6000,1.894
105.6000,1.907
105.6000,1.918
105.6000,1.943
105.6010,1.93
105.6010,1.931
105.6010,1.912
105.6010,1.897
105.6010,1.889
105.6010,1.871
105.6010,1.856
105.6020,1.853
105.6020,1.899
105.6020,1.905
105.6020,1.903
105.6020,1.932
105.6020,1.931
105.6030,1.939
105.6030,1.96
105.6030,1.969
105.6030,1.929
105.6030,1.907
105.6030,1.894
105.6030,1.888
105.6040,1.881
105.6040,1.873
105.6040,1.868
105.6040,1.903
105.6040,1.906
105.6040,1.919
105.6050,1.931
105.6050,1.935
105.6050,1.961
105.6050,1.946
105.6050,1.929
105.6050,1.921
105.6050,1.905
105.6060,1.895
105.6060,1.876
105.6060,1.862
105.6060,1.856
105.6060,1.87
105.6060,1.901
105.6060,1.903
105.6070,1.921
105.6070,1.926
105.6070,1.943
105.6070,1.942
105.6070,1.925
105.6070,1.946
105.6070,1.892
105.6070,1.887
105.6080,1.878
105.6080,1.868
105.6080,1.857
105.6080,1.838
105.6080,1.884
105.6080,1.887
105.6080,1.886
105.6090,1.907
105.6090,1.92
105.6090,1.938
105.6090,1.92
105.6090,1.928
105.6090,1.904
105.6090,1.886
105.6100,1.88
105.6100,1.866
105.6100,1.849
105.6100,1.84
105.6100,1.887
105.6100,1.881
105.6100,1.881
105.6110,1.904
105.6110,1.907
105.6110,1.911
105.6110,1.925
105.6110,1.945
105.6110,1.926
105.6110,1.884
105.6120,1.873
105.6120,1.861
105.6120,1.86
105.6120,1.838
105.6120,1.829
105.6120,1.871
105.6120,1.872
105.6130,1.885
105.6130,1.894
105.6130,1.9
105.6130,1.92
105.6130,1.942
105.6130,1.921
105.6130,1.895
105.6140,1.879
105.6140,1.874
105.6140,1.853
105.6140,1.835
105.6140,1.838
105.6140,1.844
105.6150,1.847
105.6150,1.874
105.6150,1.9
105.6150,1.904
105.6150,1.925
105.6150,1.946
105.6150,1.925
105.6150,1.904
105.6160,1.879
105.6160,1.882
105.6160,1.868
105.6160,1.855
105.6160,1.843
105.6160,1.848
105.6160,1.863
105.6170,1.887
105.6170,1.9
105.6170,1.908
105.6170,1.915
105.6170,1.951
105.6170,1.938
105.6170,1.923
105.6180,1.918
105.6180,1.901
105.6180,1.886
105.6180,1.865
105.6180,1.845
105.6180,1.841
105.6190,1.843
105.6190,1.861
105.6190,1.884
105.6190,1.897
105.6190,1.902
105.6190,1.919
105.6190,1.946
105.6200,1.935
105.6200,1.92
105.6200,1.899
105.6200,1.88
105.6200,1.858
105.6200,1.861
105.6200,1.836
105.6200,1.857
105.6210,1.844
105.6210,1.852
105.6210,1.859
105.6210,1.862
105.6210,1.873
105.6219,1.91
105.6219,1.902
105.6219,1.892
105.6219,1.893
105.6219,1.867
105.6219,1.853
105.6229,1.845
105.6229,1.833
105.6229,1.823
105.6229,1.831
105.6229,1.877
105.6229,1.868
105.6229,1.903
105.6239,1.907
105.6239,1.906
105.6239,1.937
105.6239,1.954
105.6239,1.911
105.6239,1.894
105.6249,1.89
105.6249,1.877
105.6249,1.87
105.6249,1.855
105.6249,1.853
105.6249,1.879
105.6249,1.895
105.6249,1.896
105.6259,1.906
105.6259,1.914
105.6259,1.931
105.6259,1.937
105.6259,1.944
105.6259,1.912
105.6259,1.901
105.6269,1.889
105.6269,1.876
105.6269,1.859
105.6269,1.856
105.6269,1.846
105.6269,1.871
105.6269,1.894
105.6279,1.912
105.6279,1.923
105.6279,1.929
105.6279,1.949
105.6279,1.953
105.6279,1.948
105.6289,1.904
105.6289,1.898
105.6289,1.89
105.6289,1.881
105.6289,1.866
105.6289,1.876
105.6289,1.86
105.6299,1.889
105.6299,1.904
105.6299,1.913
105.6299,1.919
105.6299,1.964
105.6299,1.966
105.6299,1.939
105.6309,1.937
105.6309,1.923
105.6309,1.892
105.6309,1.886
105.6309,1.878
105.6309,1.854
105.6309,1.857
105.6319,1.882
105.6319,1.903
105.6319,1.922
105.6319,1.931
105.6319,1.93
105.6319,1.949
105.6319,1.963
105.6329,1.921
105.6329,1.914
105.6329,1.909
105.6329,1.899
105.6329,1.89
105.6329,1.874
105.6329,1.865
105.6339,1.88
105.6339,1.881
105.6339,1.89
105.6339,1.899
105.6339,1.909
105.6339,1.939
105.6339,1.931
105.6349,1.901
105.6349,1.877
105.6349,1.829
105.6349,1.736
105.6349,1.684
105.6349,1.626
105.6349,1.585
105.6359,1.615
105.6359,1.579
105.6359,1.552
105.6359,1.553
105.6359,1.554
105.6359,1.607
105.6359,1.697
105.6359,1.955
105.6369,2.139
105.6369,2.056
105.6369,2.006
105.6369,1.973
105.6369,2.003
105.6369,2.051
105.6369,2.285
105.6379,2.398
105.6379,2.429
105.6379,2.394
105.6379,2.336
105.6379,2.283
105.6389,2.296
105.6389,2.299
105.6389,2.293
105.6389,2.277
105.6389,2.205
105.6389,2.125
105.6389,2.077
105.6389,2.039
105.6399,2.005
105.6399,1.981
105.6399,1.96
105.6399,1.968
105.6399,1.957
105.6399,1.938
105.6399,1.922
105.6409,1.933
105.6409,1.937
105.6409,1.901
105.6409,1.882
105.6409,1.879
105.6409,1.871
105.6409,1.859
105.6419,1.858
105.6419,1.849
105.6419,1.858
105.6419,1.861
105.6419,1.893
105.6419,1.898
105.6429,1.907
105.6429,1.924
105.6429,1.938
105.6429,1.877
105.6429,1.857
105.6429,1.841
105.6429,1.838
105.6439,1.835
105.6439,1.817
105.6439,1.828
105.6439,1.853
105.6439,1.855
105.6439,1.86
105.6449,1.874
105.6449,1.882
105.6449,1.907
105.6449,1.9
105.6449,1.897
105.6449,1.872
105.6449,1.858
105.6459,1.84
105.6459,1.828
105.6459,1.807
105.6459,1.808
105.6459,1.83
105.6459,1.826
105.6459,1.85
105.6459,1.868
105.6469,1.873
105.6469,1.885
105.6469,1.908
105.6469,1.891
105.6469,1.865
105.6469,1.852
105.6469,1.838
105.6479,1.837
105.6479,1.83
105.6479,1.801
105.6479,1.823
105.6479,1.84
105.6479,1.842
105.6479,1.852
105.6489,1.869
105.6489,1.873
105.6489,1.893
105.6489,1.909
105.6489,1.889
105.6489,1.859
105.6489,1.848
105.6499,1.84
105.6499,1.822
105.6499,1.808
105.6499,1.794
105.6499,1.799
105.6499,1.832
105.6499,1.837
105.6509,1.857
105.6509,1.865
105.6509,1.881
105.6509,1.878
105.6509,1.897
105.6509,1.858
105.6509,1.833
105.6509,1.821
105.6519,1.821
105.6529,1.812
105.6539,1.791
105.6589,1.783
105.6599,1.795
105.6609,1.81
105.6609,1.823
105.6619,1.831
105.6619,1.842
105.6619,1.873
105.6619,1.868
105.6619,1.859
105.6619,1.844
105.6619,1.822
105.6629,1.815
105.6629,1.797
105.6629,1.768
105.6629,1.757
105.6629,1.775
105.6629,1.794
105.6629,1.796
105.6639,1.815
105.6639,1.816
105.6639,1.822
105.6639,1.849
105.6639,1.846
105.6639,1.806
105.6639,1.783
105.6649,1.767
105.6649,1.757
105.6649,1.756
105.6649,1.732
105.6649,1.718
105.6649,1.737
105.6649,1.748
105.6659,1.752
105.6659,1.753
105.6659,1.754
105.6659,1.764
105.6659,1.765
105.6659,1.753
105.6659,1.743
105.6669,1.703
105.6669,1.686
105.6669,1.675
105.6669,1.631
105.6669,1.63
105.6669,1.642
105.6669,1.649
105.6679,1.666
105.6679,1.673
105.6679,1.679
105.6679,1.683
105.6679,1.705
105.6679,1.714
105.6679,1.683
105.6689,1.648
105.6689,1.636
105.6689,1.623
105.6689,1.615
105.6689,1.603
105.6689,1.585
105.6689,1.607
105.6689,1.624
105.6699,1.633
105.6699,1.643
105.6699,1.654
105.6699,1.663
105.6699,1.668
105.6699,1.666
105.6699,1.662
105.6709,1.645
105.6709,1.631
105.6709,1.624
105.6709,1.612
105.6718,1.601
105.6718,1.614
105.6718,1.643
105.6718,1.655
105.6718,1.674
105.6718,1.71
105.6728,1.725
105.6728,1.751
105.6728,1.76
105.6728,1.757
105.6728,1.76
105.6728,1.732
105.6728,1.733
105.6738,1.736
105.6738,1.722
105.6738,1.717
105.6738,1.742
105.6738,1.77
105.6738,1.792
105.6738,1.805
105.6748,1.818
105.6748,1.826
105.6748,1.855
105.6748,1.86
105.6748,1.857
105.6748,1.848
105.6748,1.836
105.6758,1.826
105.6758,1.826
105.9973,1.81
105.9977,1.808
105.9988,1.844
105.9988,1.856
105.9988,1.865
105.9998,1.884
105.9998,1.91
106.0008,1.927
106.0008,1.931
106.0008,1.952
106.0018,1.928
106.0028,1.894
106.0028,1.883
106.0038,1.878
106.0038,1.864
106.0057,1.85
106.0057,1.865
106.0057,1.896
106.0067,1.901
106.0067,1.915
106.0077,1.925
106.0077,1.93
106.0087,1.962
106.0087,1.971
106.0087,1.974
106.0097,1.921
106.0097,1.906
106.0107,1.899
106.0107,1.889
106.0117,1.877
106.0117,1.896
106.0127,1.898
106.0127,1.893
106.0127,1.909
106.0127,1.924
106.0137,1.932
106.0137,1.964
106.0137,1.975
106.0147,1.962
106.0147,1.956
106.0147,1.916
106.0147,1.895
106.0157,1.884
106.0157,1.872
106.0157,1.862
106.0167,1.869
106.0167,1.889
106.0167,1.902
106.0167,1.91
106.0177,1.92
106.0177,1.926
106.0177,1.952
106.0177,1.949
106.0187,1.953
106.0187,1.909
106.0187,1.902
106.0187,1.881
106.0187,1.874
106.0197,1.859
106.0197,1.852
106.0197,1.888
106.0197,1.891
106.0207,1.892
106.0207,1.904
106.0207,1.908
106.0207,1.923
106.0207,1.944
106.0217,1.971
106.0217,1.924
106.0227,1.905
106.0227,1.87
106.0227,1.861
106.0227,1.852
106.0227,1.84
106.0237,1.845
106.0237,1.86
106.0237,1.878
106.0237,1.886
106.0237,1.894
106.0237,1.896
106.0237,1.935
106.0247,1.935
106.0247,1.913
106.0247,1.893
106.0247,1.876
106.0247,1.86
106.0247,1.856
106.0257,1.851
106.0257,1.842
106.0257,1.877
106.0257,1.884
106.0257,1.874
106.0257,1.881
106.0267,1.899
106.0267,1.914
106.0267,1.926
106.0267,1.952
106.0267,1.941
106.0267,1.899
106.0277,1.87
106.0277,1.859
106.0277,1.85
106.0277,1.83
106.0277,1.839
106.0277,1.838
106.0286,1.872
106.0286,1.886
106.0286,1.895
106.0286,1.899
106.0286,1.919
106.0286,1.927
106.0286,1.928
106.0286,1.896
106.0296,1.877
106.0296,1.869
106.0296,1.859
106.0296,1.856
106.0296,1.823
106.0296,1.855
106.0296,1.874
106.0306,1.875
106.0306,1.893
106.0306,1.905
106.0306,1.921
106.0306,1.955
106.0306,1.941
106.0306,1.917
106.0316,1.901
106.0316,1.891
106.0316,1.867
106.0316,1.861
106.0316,1.85
106.0316,1.839
106.0316,1.841
106.0326,1.882
106.0326,1.885
106.0326,1.898
106.0326,1.905
106.0326,1.923
106.0326,1.928
106.0326,1.936
106.0336,1.909
106.0336,1.891
106.0336,1.88
106.0336,1.875
106.0336,1.87
106.0336,1.84
106.0336,1.861
106.0346,1.869
106.0346,1.883
106.0346,1.892
106.0346,1.907
106.0346,1.928
106.0346,1.951
106.0346,1.935
106.0356,1.941
106.0356,1.914
106.0356,1.877
106.0356,1.866
106.0366,1.863
106.0366,1.841
106.0366,1.83
106.0366,1.842
106.0366,1.86
106.0376,1.871
106.0376,1.874
106.0376,1.88
106.0376,1.888
106.0376,1.918
106.0386,1.901
106.0386,1.88
106.0386,1.862
106.0386,1.849
106.0386,1.839
106.0386,1.834
106.0386,1.81
106.0396,1.822
106.0396,1.846
106.0396,1.861
106.0396,1.868
106.0396,1.898
106.0396,1.901
106.0396,1.919
106.0406,1.932
106.0406,1.937
106.0406,1.907
106.0406,1.878
106.0406,1.863
106.0406,1.854
106.0406,1.84
106.0406,1.838
106.0416,1.839
106.0416,1.874
106.0416,1.888
106.0416,1.888
106.0416,1.895
106.0416,1.916
106.0416,1.942
106.0426,1.913
106.0426,1.92
106.0426,1.883
106.0426,1.871
106.0426,1.861
106.0426,1.857
106.0436,1.835
106.0436,1.831
106.0436,1.879
106.0436,1.871
106.0436,1.886
106.0436,1.908
106.0436,1.903
106.0446,1.921
106.0446,1.943
106.0446,1.944
106.0446,1.908
106.0446,1.876
106.0446,1.869
106.0446,1.861
106.0456,1.848
106.0456,1.841
106.0456,1.856
106.0456,1.87
106.0456,1.884
106.0456,1.894
106.0456,1.904
106.0466,1.908
106.0466,1.936
106.0466,1.935
106.0466,1.907
106.0466,1.885
106.0466,1.88
106.0466,1.868
106.0476,1.858
106.0476,1.846
106.0476,1.839
106.0476,1.851
106.0476,1.876
106.0476,1.883
106.0476,1.902
106.0486,1.911
106.0486,1.94
106.0486,1.936
106.0486,1.918
106.0486,1.922
106.0486,1.88
106.0486,1.867
106.0496,1.862
106.0496,1.854
106.0496,1.835
106.0496,1.843
106.0496,1.887
106.0496,1.891
106.0496,1.893
106.0496,1.895
106.0506,1.893
106.0506,1.91
106.0506,1.924
106.0506,1.897
106.0506,1.868
106.0506,1.84
106.0506,1.811
106.0516,1.731
106.0516,1.663
106.0516,1.623
106.0516,1.593
106.0516,1.569
106.0516,1.575
106.0526,1.535
106.0526,1.511
106.0526,1.508
106.0526,1.528
106.0526,1.525
106.0526,1.538
106.0526,1.919
106.0536,1.994
106.0536,1.961
106.0536,1.883
106.0536,1.871
106.0536,1.863
106.0536,2.053
106.0536,2.185
106.0546,2.345
106.0546,2.391
106.0546,2.366
106.0546,2.331
106.0546,2.265
106.0546,2.266
106.0556,2.229
106.0556,2.206
106.0556,2.19
106.0556,2.118
106.0556,2.086
106.0556,2.049
106.0556,2.047
106.0566,2.021
106.0566,2.01
106.0566,2.01
106.0566,1.993
106.0566,1.984
106.0566,1.964
106.0566,1.93
106.0576,1.915
106.0576,1.859
106.0576,1.843
106.0576,1.838
106.0576,1.832
106.0576,1.816
106.0576,1.809
106.0576,1.855
106.0586,1.862
106.0586,1.875
106.0586,1.881
106.0586,1.884
106.0586,1.892
106.0586,1.908
106.0586,1.898
106.0596,1.862
106.0596,1.841
106.0596,1.832
106.0596,1.81
106.0596,1.792
106.0596,1.793
106.0596,1.82
106.0606,1.816
106.0606,1.826
106.0606,1.853
106.0606,1.867
106.0606,1.892
106.0606,1.893
106.0606,1.845
106.0616,1.833
106.6789,1.821
106.6789,1.811
106.6789,1.802
106.6799,1.79
106.6799,1.798
106.6799,1.807
106.6799,1.827
106.6799,1.832
106.6799,1.846
106.6799,1.849
106.6809,1.885
106.6809,1.88
106.6809,1.858
106.6809,1.837
106.6809,1.828
106.6809,1.807
106.6809,1.798
106.6819,1.786
106.6819,1.778
106.6819,1.8
106.6819,1.826
106.6819,1.829
106.6819,1.841
106.6819,1.849
106.6829,1.861
106.6829,1.877
106.6829,1.897
106.6829,1.844
106.6829,1.835
106.6829,1.814
106.6829,1.799
106.6839,1.793
106.6839,1.777
106.6839,1.796
106.6839,1.816
106.6839,1.819
106.6839,1.832
106.6839,1.837
106.6839,1.875
106.6849,1.884
106.6849,1.879
106.6849,1.877
106.6849,1.849
106.6849,1.825
106.6849,1.803
106.6859,1.796
106.6859,1.775
106.6859,1.771
106.6859,1.795
106.6859,1.832
106.6859,1.821
106.6859,1.83
106.6869,1.841
106.6869,1.851
106.6869,1.865
106.6869,1.877
106.6869,1.84
106.6869,1.817
106.6869,1.803
106.6879,1.797
106.6879,1.79
106.6879,1.769
106.6879,1.805
106.6879,1.797
106.6879,1.799
106.6889,1.811
106.6889,1.822
106.6889,1.835
106.6889,1.862
106.6889,1.866
106.6889,1.841
106.6889,1.813
106.6889,1.798
106.6899,1.771
106.6899,1.765
106.6899,1.747
106.6899,1.73
106.6899,1.755
106.6899,1.79
106.6909,1.77
106.6909,1.782
106.6909,1.785
106.6909,1.786
106.6909,1.8
106.6909,1.809
106.6909,1.77
106.6909,1.738
106.6919,1.725
106.6919,1.712
106.6919,1.7
106.6919,1.673
106.6919,1.688
106.6919,1.697
106.6929,1.692
106.6929,1.704
106.6929,1.692
106.6929,1.698
106.6929,1.735
106.6929,1.727
106.6929,1.722
106.6939,1.693
106.6939,1.672
106.6939,1.64
106.6939,1.634
106.6939,1.613
106.6939,1.599
106.6939,1.618
106.6939,1.641
106.6949,1.64
106.6949,1.649
106.6949,1.654
106.6949,1.652
106.6949,1.676
106.6949,1.692
106.6949,1.668
106.6959,1.64
106.6959,1.628
106.6959,1.616
106.6959,1.608
106.6959,1.589
106.6959,1.62
106.6959,1.615
106.6969,1.632
106.6969,1.646
106.6969,1.66
106.6969,1.672
106.6969,1.723
106.6969,1.727
106.6969,1.726
106.6979,1.712
106.6979,1.691
106.6979,1.681
106.6979,1.673
106.6979,1.676
106.6979,1.662
106.6979,1.685
106.6989,1.727
106.6989,1.721
106.6989,1.752
106.6989,1.769
106.6989,1.774
106.6989,1.803
106.6989,1.829
106.6999,1.845
106.6999,1.79
106.6999,1.786
106.6999,1.778
106.6999,1.775
106.6999,1.782
106.6999,1.762
106.7009,1.772
106.7009,1.818
106.7009,1.827
106.7009,1.84
106.7009,1.852
106.7019,1.867
106.7019,1.895
106.7019,1.903
106.7019,1.897
106.7019,1.858
106.7019,1.844
106.7028,1.84
106.7028,1.825
106.7028,1.811
106.7028,1.82
106.7028,1.879
106.7028,1.861
106.7028,1.863
106.7038,1.889
106.7038,1.889
106.7038,1.914
106.7038,1.933
106.7038,1.95
106.7038,1.91
106.7038,1.877
106.7048,1.857
106.7048,1.85
106.7048,1.841
106.7048,1.832
106.7048,1.842
106.7048,1.877
106.7048,1.876
106.7059,1.887
106.7059,1.894
106.7059,1.897
106.7059,1.93
106.7059,1.933
106.7059,1.928
106.7059,1.891
106.7069,1.872
106.7069,1.859
106.7069,1.859
106.7069,1.826
106.7069,1.84
106.7069,1.868
106.7069,1.877
106.7079,1.87
106.7079,1.88
106.7079,1.896
106.7079,1.916
106.7079,1.924
106.7079,1.939
106.7079,1.922
106.7089,1.882
106.7089,1.858
106.7089,1.843
106.7089,1.831
106.7089,1.816
106.7089,1.837
106.7089,1.855
106.7099,1.857
106.7099,1.869
106.7099,1.877
106.7099,1.877
106.7099,1.904
106.7099,1.914
106.7099,1.899
106.7109,1.869
106.7109,1.854
106.7109,1.842
106.7109,1.832
106.7109,1.808
106.7109,1.808
106.7109,1.831
106.7109,1.849
106.7119,1.849
106.7119,1.868
106.7119,1.869
106.7119,1.88
106.7119,1.904
106.7129,1.941
106.7129,1.897
106.7129,1.85
106.7129,1.841
106.7129,1.824
106.7129,1.818
106.7139,1.809
106.7139,1.804
106.7139,1.844
106.7139,1.842
106.7139,1.846
106.7139,1.858
106.7139,1.857
106.7139,1.887
106.7149,1.9
106.7149,1.899
106.7149,1.859
106.7149,1.839
106.7149,1.829
106.7149,1.811
106.7149,1.793
106.7158,1.804
106.7158,1.839
106.7158,1.828
106.7158,1.83
106.7158,1.853
106.7158,1.855
106.7158,1.875
106.7168,1.901
106.7168,1.904
106.7168,1.874
106.7168,1.847
106.7168,1.82
106.7178,1.815
106.7178,1.812
106.7178,1.799
106.7178,1.79
106.7178,1.834
106.7178,1.839
106.7178,1.845
106.7188,1.856
106.7188,1.863
106.7188,1.894
106.7188,1.904
106.7188,1.916
106.7188,1.871
106.7188,1.848
106.7198,1.828
106.7198,1.813
106.7198,1.792
106.7198,1.788
106.7198,1.826
106.7198,1.844
106.7198,1.841
106.7208,1.86
106.7208,1.861
106.7208,1.87
106.7208,1.897
106.7208,1.925
106.7208,1.896
106.7218,1.854
106.7218,1.848
106.7218,1.826
106.7218,1.816
106.7218,1.801
106.7218,1.802
106.7218,1.838
106.7228,1.845
106.7228,1.853
106.7228,1.856
106.7228,1.86
106.7228,1.9
106.7228,1.901
106.7228,1.89
106.7238,1.87
106.7238,1.839
106.7238,1.831
106.7238,1.811
106.7238,1.793
106.7238,1.788
106.7238,1.837
106.7248,1.83
106.7248,1.831
106.7248,1.86
106.7248,1.864
106.7248,1.871
106.7248,1.897
106.7248,1.923
106.7258,1.892
106.7258,1.846
106.7258,1.833
106.7258,1.818
106.7258,1.818
106.7258,1.804
106.7258,1.788
106.7258,1.842
106.7268,1.841
106.7268,1.841
106.7268,1.853
106.7268,1.869
106.7268,1.894
106.7268,1.904
106.7268,1.911
106.7278,1.888
106.7278,1.849
106.7278,1.838
106.7278,1.827
106.7278,1.805
106.7278,1.793
106.7278,1.827
106.7288,1.849
106.7288,1.842
106.7288,1.865
106.7288,1.87
106.7288,1.877
106.7288,1.9
106.7288,1.927
106.7298,1.914
106.7298,1.847
106.7298,1.831
106.7298,1.821
106.7298,1.812
106.7298,1.792
106.7298,1.79
106.7308,1.813
106.7308,1.808
106.7308,1.82
106.7308,1.829
106.7308,1.834
106.7308,1.873
106.7308,1.872
106.7318,1.872
106.7318,1.86
106.7318,1.816
106.7318,1.801
106.7318,1.79
106.7318,1.774
106.7318,1.765
106.7318,1.793
106.7328,1.805
106.7328,1.817
106.7328,1.838
106.7328,1.844
106.7328,1.843
106.7328,1.869
106.7338,1.888
106.7338,1.861
106.7338,1.835
106.7338,1.827
106.7338,1.813
106.7338,1.813
106.7338,1.799
106.7348,1.791
106.7348,1.828
106.7348,1.829
106.7348,1.828
106.7348,1.841
106.7348,1.851
106.7348,1.88
106.7358,1.906
106.7358,1.905
106.7358,1.871
106.7358,1.839
106.7358,1.826
106.7358,1.814
106.7358,1.794
106.7368,1.787
106.7368,1.819
106.7368,1.837
106.7368,1.834
106.7368,1.845
106.7368,1.848
106.7378,1.862
106.7378,1.885
106.7378,1.895
106.7378,1.899
106.7378,1.844
106.7378,1.828
106.7378,1.818
106.7388,1.814
106.7388,1.791
106.7388,1.809
106.7388,1.833
106.7388,1.835
106.7388,1.827
106.7388,1.847
106.7397,1.851
106.7397,1.885
106.7397,1.898
106.7397,1.907
106.7397,1.879
106.7397,1.848
106.7397,1.832
106.7407,1.811
106.7407,1.806
106.7407,1.789
106.7407,1.792
106.7407,1.842
106.7407,1.846
106.7407,1.844
106.7417,1.859
106.7417,1.859
106.7427,1.881
106.7437,1.904
106.7487,1.891
106.7497,1.848
106.7507,1.829
106.7507,1.827
106.7517,1.811
106.7517,1.803
106.7517,1.811
106.7517,1.816
106.7517,1.833
106.7527,1.815
106.7527,1.813
106.7527,1.829
106.7527,1.851
106.7527,1.861
106.7527,1.885
106.7527,1.844
106.7527,1.769
106.7537,1.721
106.7537,1.601
106.7537,1.533
106.7537,1.463
106.7537,1.456
106.7547,1.463
106.7547,1.407
106.7547,1.372
106.7547,1.386
106.7557,1.39
106.7557,1.404
106.7557,1.479
106.7557,1.711
106.7557,1.927
106.7557,1.895
106.7557,1.831
106.7557,1.794
106.7567,1.833
106.7567,1.916
106.7567,2.15
106.7567,2.289
106.7567,2.315
106.7567,2.286
106.7567,2.247
106.7577,2.255
106.7577,2.259
106.7577,2.239
106.7577,2.21
106.7577,2.154
106.7577,2.124
106.7577,2.045
106.7587,2.028
106.7587,1.966
106.7587,1.946
106.7587,1.958
106.7587,1.968
106.7587,1.922
106.7587,1.923
106.7597,1.906
106.7597,1.899
106.7597,1.903
106.7597,1.853
106.7597,1.828
106.7597,1.816
107.3615,1.812
107.3624,1.778
107.3624,1.781
107.3634,1.826
107.3634,1.832
107.3644,1.824
107.3644,1.837
107.3654,1.843
107.3654,1.845
107.3664,1.872
107.3664,1.883
107.3664,1.848
107.3674,1.823
107.3674,1.787
107.3684,1.779
107.3684,1.778
107.3694,1.754
107.3694,1.757
107.3694,1.791
107.3704,1.793
107.3704,1.806
107.3714,1.812
107.3724,1.818
107.3724,1.84
107.3734,1.853
107.3744,1.85
107.3744,1.829
107.3744,1.795
107.3744,1.777
107.3754,1.769
107.3754,1.745
107.3754,1.747
107.3764,1.786
107.3764,1.805
107.3764,1.786
107.3764,1.797
107.3774,1.814
107.3774,1.824
107.3774,1.839
107.3784,1.854
107.3784,1.86
107.3784,1.794
107.3784,1.78
107.3794,1.775
107.3794,1.765
107.3794,1.743
107.3794,1.745
107.3794,1.788
107.3804,1.793
107.3804,1.793
107.3804,1.803
107.3804,1.814
107.3804,1.825
107.3814,1.873
107.3814,1.843
107.3814,1.821
107.3814,1.804
107.3814,1.777
107.3824,1.773
107.3824,1.748
107.3824,1.741
107.3824,1.755
107.3833,1.77
107.3833,1.785
107.3833,1.806
107.3833,1.814
107.3833,1.823
107.3843,1.843
107.3843,1.838
107.3843,1.848
107.3843,1.795
107.3843,1.785
107.3843,1.769
107.3853,1.767
107.3853,1.751
107.3853,1.739
107.3853,1.781
107.3853,1.784
107.3853,1.794
107.3863,1.799
107.3863,1.807
107.3863,1.816
107.3863,1.834
107.3863,1.839
107.3863,1.817
107.3873,1.794
107.3873,1.779
107.3873,1.759
107.3873,1.755
107.3873,1.734
107.3873,1.736
107.3883,1.742
107.3883,1.762
107.3883,1.784
107.3883,1.789
107.3883,1.799
107.3883,1.826
107.3883,1.818
107.3893,1.797
107.3893,1.787
107.3893,1.761
107.3893,1.74
107.3893,1.727
107.3893,1.716
107.3903,1.703
107.3903,1.688
107.3903,1.73
107.3903,1.736
107.3903,1.739
107.3903,1.746
107.3903,1.759
107.3913,1.763
107.3913,1.752
107.3913,1.743
107.3913,1.713
107.3913,1.693
107.3913,1.678
107.3913,1.667
107.3923,1.63
107.3923,1.628
107.3923,1.655
107.3923,1.66
107.3923,1.655
107.3923,1.674
107.3933,1.674
107.3933,1.683
107.3933,1.685
107.3933,1.677
107.3933,1.667
107.3933,1.638
107.3933,1.61
107.3943,1.603
107.3943,1.584
107.3943,1.566
107.3943,1.578
107.3943,1.598
107.3943,1.609
107.3943,1.625
107.3943,1.635
107.3953,1.64
107.3953,1.649
107.3953,1.662
107.3953,1.649
107.3953,1.611
107.3953,1.597
107.3953,1.594
107.3963,1.586
107.3963,1.571
107.3963,1.579
107.3963,1.583
107.3963,1.593
107.3963,1.614
107.3963,1.629
107.3973,1.637
107.3973,1.684
107.3973,1.685
107.3973,1.679
107.3973,1.677
107.3973,1.659
107.3973,1.65
107.3983,1.644
107.3983,1.643
107.3983,1.636
107.3983,1.638
107.3983,1.668
107.3983,1.7
107.3983,1.717
107.3993,1.736
107.3993,1.749
107.3993,1.763
107.3993,1.776
107.3993,1.791
107.3993,1.756
107.3993,1.744
107.4003,1.741
107.4003,1.743
107.4003,1.735
107.4003,1.731
107.4003,1.764
107.4003,1.766
107.4003,1.782
107.4003,1.797
107.4013,1.81
107.4013,1.837
107.4013,1.859
107.4013,1.863
107.4013,1.826
107.4013,1.817
107.4023,1.806
107.4023,1.789
107.4043,1.787
107.4043,1.773
107.4053,1.772
107.4093,1.779
107.4103,1.794
107.4113,1.828
107.4123,1.839
107.4123,1.849
107.4123,1.864
107.4133,1.88
107.4133,1.863
107.4133,1.833
107.4133,1.819
107.4133,1.812
107.4133,1.805
107.4133,1.798
107.4143,1.782
107.4143,1.789
107.4143,1.813
107.4143,1.822
107.4143,1.836
107.4143,1.841
107.4143,1.847
107.4153,1.886
107.4153,1.874
107.4153,1.875
107.4153,1.844
107.4153,1.826
107.4153,1.803
107.4153,1.799
107.4153,1.785
107.4163,1.775
107.4163,1.782
107.4163,1.818
107.4163,1.832
107.4163,1.841
107.4163,1.846
107.4163,1.865
107.4173,1.874
107.4173,1.861
107.4173,1.844
107.4173,1.827
107.4173,1.816
107.4173,1.805
107.4173,1.804
107.4183,1.772
107.4183,1.805
107.4183,1.816
107.4183,1.817
107.4183,1.824
107.4183,1.838
107.4183,1.861
107.4193,1.866
107.4193,1.858
107.4193,1.866
107.4193,1.841
107.4193,1.822
107.4193,1.802
107.4193,1.801
107.4202,1.773
107.4202,1.761
107.4202,1.787
107.4202,1.805
107.4202,1.821
107.4202,1.834
107.4212,1.839
107.4212,1.855
107.4212,1.854
107.4212,1.863
107.4212,1.838
107.4222,1.815
107.4222,1.803
107.4222,1.795
107.4222,1.785
107.4222,1.764
107.4222,1.782
107.4232,1.791
107.4232,1.802
107.4232,1.813
107.4232,1.815
107.4232,1.84
107.4232,1.865
107.4232,1.862
107.4242,1.829
107.4242,1.816
107.4242,1.808
107.4242,1.783
107.4242,1.775
107.4242,1.761
107.4242,1.759
107.4252,1.756
107.4252,1.778
107.4252,1.806
107.4252,1.821
107.4252,1.825
107.4252,1.838
107.4252,1.866
107.4262,1.853
107.4262,1.838
107.4262,1.808
107.4262,1.794
107.4262,1.783
107.4262,1.78
107.4262,1.764
107.4272,1.763
107.4272,1.8
107.4272,1.8
107.4272,1.808
107.4272,1.819
107.4272,1.836
107.4272,1.848
107.4272,1.845
107.4282,1.85
107.4282,1.841
107.4282,1.806
107.4282,1.784
107.4282,1.779
107.4282,1.768
107.4282,1.747
107.4292,1.763
107.4292,1.789
107.4292,1.799
107.4292,1.812
107.4292,1.819
107.4292,1.827
107.4292,1.84
107.4302,1.862
107.4302,1.823
107.4302,1.802
107.4302,1.795
107.4302,1.785
107.4302,1.773
107.4302,1.758
107.4312,1.765
107.4312,1.771
107.4312,1.786
107.4312,1.798
107.4312,1.81
107.4312,1.826
107.4312,1.848
107.4322,1.859
107.4322,1.831
107.4322,1.814
107.4322,1.808
107.4322,1.78
107.4332,1.777
107.4332,1.764
107.4332,1.753
107.4332,1.75
107.4332,1.778
107.4332,1.801
107.4332,1.813
107.4342,1.822
107.4342,1.828
107.4342,1.848
107.4342,1.842
107.4342,1.834
107.4342,1.805
107.4342,1.788
107.4352,1.777
107.4352,1.771
107.4352,1.74
107.4352,1.739
107.4352,1.776
107.4352,1.787
107.4352,1.794
107.4352,1.803
107.4362,1.817
107.4362,1.834
107.4362,1.855
107.4362,1.855
107.4362,1.819
107.4362,1.8
107.4362,1.779
107.4372,1.77
107.4372,1.758
107.4372,1.748
107.4372,1.76
107.4382,1.765
107.4382,1.797
107.4382,1.808
107.4382,1.814
107.4392,1.813
107.4392,1.84
107.4392,1.854
107.4392,1.805
107.4392,1.801
107.4392,1.789
107.4392,1.781
107.4402,1.77
107.4402,1.751
107.4402,1.747
107.4402,1.757
107.4402,1.785
107.4402,1.801
107.4402,1.808
107.4412,1.821
107.4412,1.846
107.4412,1.839
107.4412,1.842
107.4412,1.848
107.4412,1.804
107.4412,1.786
107.4422,1.778
107.4422,1.77
107.4422,1.751
107.4422,1.742
107.4422,1.793
107.4422,1.794
107.4422,1.797
107.4432,1.803
107.4432,1.806
107.4432,1.813
107.4432,1.834
107.4432,1.82
107.4432,1.786
107.4432,1.773
107.4442,1.763
107.4442,1.754
107.4442,1.713
107.4442,1.722
107.4442,1.743
107.4442,1.748
107.4442,1.759
107.4452,1.769
107.4452,1.772
107.4452,1.793
107.4452,1.811
107.4452,1.809
107.4452,1.784
107.4452,1.767
107.4462,1.751
107.4462,1.746
107.4462,1.733
107.4462,1.721
107.4462,1.719
107.4462,1.743
107.4462,1.768
107.4462,1.781
107.4472,1.791
107.4472,1.797
107.4472,1.817
107.4472,1.815
107.4472,1.797
107.4472,1.785
107.4482,1.775
107.4482,1.758
107.4482,1.755
107.4482,1.739
107.4482,1.724
107.4482,1.742
107.4482,1.762
107.4482,1.778
107.4492,1.786
107.4492,1.803
107.4492,1.826
107.4492,1.821
107.4492,1.816
107.4492,1.821
107.4492,1.775
107.4502,1.758
107.4502,1.747
107.4502,1.751
107.4502,1.729
107.4502,1.737
107.4502,1.779
107.4502,1.778
107.4512,1.788
107.4512,1.802
107.4512,1.808
107.4512,1.814
107.4512,1.854
107.4512,1.831
107.4512,1.792
107.4522,1.777
107.4522,1.771
107.4522,1.758
107.4522,1.737
107.4522,1.734
107.4522,1.758
107.4522,1.768
107.4532,1.772
107.4532,1.785
107.4532,1.807
107.4532,1.813
107.4532,1.832
107.4532,1.847
107.4542,1.821
107.4542,1.776
107.4542,1.77
107.4542,1.76
107.4542,1.751
107.4542,1.729
107.4552,1.735
107.4552,1.748
107.4552,1.775
107.4552,1.781
107.4552,1.8
107.4552,1.802
107.4552,1.815
107.4552,1.834
107.4562,1.805
107.4562,1.781
107.4562,1.733
107.4562,1.72
108.0443,1.71
108.0448,1.704
108.0448,1.702
108.0459,1.733
108.0459,1.727
108.0469,1.706
108.0469,1.681
108.0478,1.641
108.0478,1.608
108.0488,1.554
108.0488,1.446
108.0498,1.392
108.0498,1.352
108.0498,1.319
108.0508,1.289
108.0508,1.283
108.0518,1.298
108.0518,1.393
108.0528,1.594
108.0528,1.81
108.0538,1.874
108.0538,1.857
108.0548,1.806
108.0548,1.898
108.0558,1.938
108.0558,1.985
108.0568,2.115
108.0568,2.236
108.0568,2.18
108.0578,2.115
108.0578,2.091
108.0588,2.102
108.0588,2.118
108.0588,2.11
108.0598,2.086
108.0598,2.065
108.0598,2.065
108.0598,2.051
108.0608,2.033
108.0608,1.991
108.0608,1.907
108.0608,1.883
108.0618,1.853
108.0648,1.83
108.0688,1.792
108.0738,1.772
108.0748,1.773
108.0748,1.763
108.0748,1.771
108.0748,1.784
108.0748,1.786
108.0748,1.81
108.0758,1.835
108.0758,1.811
108.0758,1.799
108.0758,1.768
108.0758,1.761
108.0758,1.741
108.0758,1.722
108.0768,1.715
108.0768,1.722
108.0768,1.738
108.0768,1.735
108.0768,1.742
108.0768,1.753
108.0768,1.76
108.0778,1.792
108.0778,1.781
108.0778,1.788
108.0778,1.735
108.0778,1.722
108.0778,1.706
108.0778,1.694
108.0788,1.682
108.0788,1.676
108.0788,1.712
108.0788,1.709
108.0788,1.713
108.0788,1.726
108.0788,1.741
108.0798,1.755
108.0798,1.757
108.0798,1.778
108.0798,1.741
108.0798,1.724
108.0798,1.709
108.0808,1.694
108.0808,1.677
108.0808,1.666
108.0808,1.673
108.0808,1.689
108.0808,1.703
108.0808,1.724
108.0808,1.733
108.0818,1.744
108.0818,1.768
108.0818,1.771
108.0818,1.745
108.0818,1.712
108.0818,1.702
108.0828,1.692
108.0828,1.687
108.0828,1.675
108.0828,1.662
108.0828,1.687
108.0828,1.697
108.0828,1.709
108.0838,1.715
108.0838,1.728
108.0838,1.739
108.0838,1.748
108.0838,1.743
108.0838,1.752
108.0838,1.707
108.0838,1.707
108.0848,1.689
108.0848,1.675
108.0848,1.654
108.0848,1.669
108.0848,1.71
108.0848,1.692
108.0848,1.694
108.0858,1.72
108.0858,1.727
108.0858,1.743
108.0858,1.763
108.0858,1.776
108.0858,1.741
108.0858,1.694
108.0868,1.684
108.0868,1.679
108.0868,1.659
108.0868,1.649
108.0868,1.644
108.0868,1.675
108.0877,1.694
108.0877,1.7
108.0877,1.707
108.0877,1.719
108.0877,1.742
108.0888,1.726
108.0888,1.718
108.0888,1.694
108.0888,1.676
108.0888,1.662
108.0888,1.661
108.0888,1.631
108.0898,1.625
108.0898,1.656
108.0898,1.655
108.0898,1.669
108.0898,1.671
108.0898,1.684
108.0898,1.696
108.0898,1.712
108.0908,1.72
108.0908,1.673
108.0908,1.658
108.0908,1.63
108.0908,1.609
108.0908,1.59
108.0908,1.585
108.0918,1.581
108.0918,1.585
108.0918,1.61
108.0918,1.609
108.0918,1.619
108.0918,1.622
108.0928,1.643
108.0928,1.633
108.0928,1.627
108.0928,1.588
108.0928,1.562
108.0928,1.547
108.0928,1.533
108.0938,1.523
108.0938,1.48
108.0938,1.508
108.0938,1.53
108.0938,1.524
108.0938,1.532
108.0938,1.544
108.0948,1.54
108.0948,1.553
108.0948,1.553
108.0948,1.55
108.0948,1.52
108.0948,1.502
108.0948,1.478
108.0958,1.467
108.0958,1.445
108.0958,1.45
108.0958,1.482
108.0958,1.495
108.0958,1.5
108.0958,1.512
108.0968,1.519
108.0968,1.535
108.0968,1.553
108.0968,1.529
108.0968,1.51
108.0968,1.497
108.0968,1.484
108.0978,1.478
108.0978,1.474
108.0978,1.458
108.0978,1.468
108.0978,1.5
108.0978,1.52
108.0978,1.546
108.0987,1.553
108.0987,1.584
108.0987,1.611
108.0987,1.598
108.0987,1.596
108.0987,1.591
108.0987,1.574
108.0997,1.57
108.0997,1.566
108.0997,1.558
108.0997,1.552
108.0997,1.561
108.0997,1.616
108.0997,1.623
108.1007,1.642
108.1007,1.644
108.1007,1.674
108.1007,1.697
108.1007,1.701
108.1007,1.679
108.1007,1.667
108.1017,1.653
108.1017,1.643
108.1017,1.652
108.1017,1.621
108.1017,1.642
108.1017,1.679
108.1017,1.677
108.1027,1.689
108.1027,1.718
108.1027,1.739
108.1027,1.743
108.1027,1.739
108.1027,1.746
108.1027,1.722
108.1027,1.689
108.1037,1.688
108.1037,1.685
108.1037,1.663
108.1037,1.66
108.1037,1.656
108.1037,1.702
108.1047,1.711
108.1047,1.727
108.1047,1.732
108.1047,1.735
108.1047,1.759
108.1057,1.761
108.1057,1.728
108.1057,1.707
108.1057,1.697
108.1057,1.681
108.1057,1.671
108.1057,1.66
108.1067,1.678
108.1067,1.681
108.1067,1.698
108.1067,1.707
108.1067,1.727
108.1067,1.733
108.1067,1.752
108.1077,1.761
108.1077,1.753
108.1077,1.712
108.1077,1.694
108.1077,1.683
108.1077,1.682
108.1077,1.661
108.1077,1.655
108.1087,1.657
108.1087,1.691
108.1087,1.705
108.1087,1.712
108.1087,1.72
108.1087,1.736
108.1087,1.738
108.1097,1.728
108.1097,1.719
108.1097,1.701
108.1097,1.676
108.1097,1.669
108.1097,1.654
108.1107,1.643
108.1107,1.63
108.1107,1.685
108.1107,1.68
108.1107,1.69
108.1107,1.714
108.1107,1.733
108.1117,1.74
108.1117,1.718
108.1117,1.756
108.1117,1.727
108.1117,1.673
108.1117,1.664
108.1117,1.659
108.1127,1.639
108.1127,1.627
108.1127,1.66
108.1127,1.67
108.1127,1.686
108.1127,1.698
108.1127,1.696
108.1137,1.702
108.1137,1.739
108.1137,1.716
108.1137,1.706
108.1137,1.678
108.1137,1.661
108.1137,1.651
108.1147,1.641
108.1147,1.629
108.1147,1.635
108.1147,1.647
108.1147,1.657
108.1147,1.674
108.1147,1.687
108.1157,1.7
108.1157,1.724
108.1157,1.718
108.1157,1.703
108.1157,1.68
108.1157,1.664
108.1157,1.652
108.1167,1.642
108.1167,1.631
108.1167,1.619
108.1167,1.662
108.1167,1.655
108.1167,1.67
108.1167,1.67
108.1177,1.675
108.1177,1.696
108.1177,1.711
108.1177,1.688
108.1177,1.695
108.1177,1.669
108.1177,1.656
108.1177,1.649
108.1187,1.635
108.1187,1.611
108.1187,1.597
108.1187,1.635
108.1187,1.646
108.1187,1.67
108.1187,1.679
108.1197,1.694
108.1197,1.718
108.1197,1.712
108.1197,1.683
108.1197,1.67
108.1197,1.657
108.1197,1.64
108.1207,1.643
108.1207,1.634
108.1207,1.606
108.1207,1.639
108.1207,1.651
108.1207,1.657
108.1217,1.664
108.1217,1.68
108.1217,1.681
108.1217,1.699
108.1217,1.714
108.1217,1.703
108.1227,1.657
108.1227,1.648
108.1227,1.643
108.1227,1.622
108.1227,1.611
108.1227,1.619
108.1227,1.635
108.1237,1.628
108.1237,1.664
108.1237,1.672
108.1237,1.673
108.1237,1.693
108.1237,1.712
108.1237,1.703
108.1247,1.666
108.1247,1.647
108.1247,1.639
108.1247,1.625
108.1247,1.619
108.1247,1.617
108.1247,1.599
108.1247,1.632
108.1257,1.648
108.1257,1.661
108.1257,1.665
108.1257,1.671
108.1257,1.7
108.1257,1.688
108.1257,1.679
108.1267,1.653
108.1267,1.639
108.1267,1.628
108.1267,1.622
108.1267,1.605
108.1267,1.597
108.1277,1.631
108.1277,1.643
108.1277,1.656
108.1277,1.658
108.1277,1.679
108.1277,1.691
108.1277,1.692
108.1287,1.676
108.1287,1.657
108.1287,1.644
108.1287,1.628
108.1287,1.623
108.1287,1.619
108.1287,1.591
108.1297,1.622
108.1297,1.629
108.1297,1.64
108.1297,1.652
108.1297,1.662
108.1297,1.667
108.1307,1.697
108.1307,1.702
108.1307,1.69
108.1307,1.652
108.1307,1.641
108.1307,1.628
108.1307,1.62
108.1317,1.608
108.1317,1.617
108.1317,1.625
108.1317,1.62
108.1317,1.653
108.1317,1.662
108.1317,1.664
108.1327,1.675
108.1327,1.706
108.1327,1.715
108.1327,1.663
108.1327,1.645
108.1327,1.631
108.1327,1.625
108.1337,1.621
108.1337,1.602
108.1337,1.588
108.1337,1.623
108.1337,1.631
108.1337,1.638
108.1337,1.655
108.1347,1.674
108.1347,1.683
108.1347,1.668
108.1347,1.653
108.1347,1.637
108.1347,1.612
108.1347,1.592
108.1356,1.586
108.1356,1.564
108.1356,1.551
108.1356,1.573
108.1356,1.591
108.1356,1.608
108.1356,1.619
108.1366,1.627
108.1366,1.646
108.1366,1.656
108.1366,1.646
108.1366,1.64
108.1366,1.614
108.1366,1.601
108.1376,1.588
108.1376,1.586
108.1376,1.565
108.1376,1.607
108.1376,1.627
108.1376,1.626
108.1386,1.634
108.1386,1.642
108.1386,1.657
108.1386,1.677
108.1386,1.69
108.1386,1.695
108.1386,1.653
108.1386,1.634
108.1396,1.6
108.1396,1.58
108.1396,1.574
108.7266,1.608
108.7276,1.616
108.7286,1.637
108.7286,1.646
108.7286,1.649
108.7296,1.652
108.7296,1.694
108.7306,1.679
108.7306,1.656
108.7316,1.628
108.7316,1.621
108.7326,1.618
108.7326,1.584
108.7336,1.587
108.7336,1.609
108.7336,1.62
108.7346,1.623
108.7346,1.636
108.7356,1.656
108.7356,1.665
108.7366,1.689
108.7366,1.692
108.7366,1.696
108.7376,1.678
108.7376,1.623
108.7386,1.621
108.7386,1.601
108.7396,1.58
108.7396,1.585
108.7396,1.619
108.7406,1.624
108.7406,1.636
108.7406,1.647
108.7416,1.655
108.7416,1.662
108.7416,1.694
108.7426,1.682
108.7426,1.667
108.7426,1.638
108.7426,1.619
108.7426,1.604
108.7436,1.599
108.7436,1.577
108.7436,1.604
108.7436,1.626
108.7436,1.624
108.7446,1.635
108.7446,1.661
108.7446,1.672
108.7446,1.687
108.7446,1.706
108.7456,1.711
108.7456,1.651
108.7456,1.608
108.7456,1.606
108.7456,1.595
108.7466,1.575
108.7466,1.575
108.7466,1.572
108.7466,1.557
108.7466,1.539
108.7476,1.498
108.7476,1.466
108.7476,1.434
108.7476,1.431
108.7476,1.402
108.7476,1.346
108.7476,1.299
108.7486,1.272
108.7486,1.261
108.7486,1.286
108.7486,1.442
108.7486,1.649
108.7486,1.753
108.7496,1.75
108.7496,1.694
108.7496,1.695
108.7496,1.759
108.7496,1.83
108.7496,1.968
108.7506,2.106
108.7506,2.144
108.7506,2.015
108.7506,1.946
108.7506,1.918
108.7506,1.899
108.7516,1.883
108.7516,1.891
108.7516,1.886
108.7516,1.864
108.7516,1.852
108.7516,1.837
108.7526,1.81
108.7526,1.772
108.7526,1.756
108.7526,1.754
108.7526,1.7
108.7526,1.671
108.7526,1.64
108.7536,1.577
108.7536,1.562
108.7536,1.588
108.7536,1.591
108.7536,1.587
108.7536,1.606
108.7536,1.635
108.7545,1.64
108.7545,1.672
108.7545,1.674
108.7545,1.662
108.7545,1.658
108.7556,1.611
108.7556,1.594
108.7556,1.582
108.7556,1.576
108.7556,1.545
108.7556,1.542
108.7556,1.583
108.7566,1.592
108.7566,1.602
108.7566,1.611
108.7566,1.613
108.7566,1.636
108.7566,1.616
108.7576,1.629
108.7576,1.601
108.7576,1.584
108.7576,1.573
108.7576,1.564
108.7576,1.541
108.7586,1.54
108.7586,1.562
108.7586,1.579
108.7586,1.587
108.7586,1.597
108.7586,1.613
108.7586,1.626
108.7586,1.647
108.7596,1.634
108.7596,1.621
108.7596,1.6
108.7596,1.572
108.7596,1.566
108.7596,1.559
108.7596,1.541
108.7606,1.535
108.7606,1.544
108.7606,1.577
108.7606,1.592
108.7606,1.606
108.7606,1.611
108.7606,1.617
108.7616,1.629
108.7616,1.628
108.7616,1.597
108.7616,1.585
108.7616,1.57
108.7616,1.564
108.7616,1.557
108.7626,1.549
108.7626,1.544
108.7626,1.555
108.7626,1.579
108.7626,1.59
108.7626,1.599
108.7626,1.63
108.7636,1.64
108.7636,1.615
108.7636,1.636
108.7636,1.595
108.7636,1.577
108.7636,1.559
108.7636,1.556
108.7636,1.539
108.7646,1.519
108.7646,1.555
108.7646,1.576
108.7646,1.586
108.7646,1.595
108.7646,1.602
108.7646,1.619
108.7655,1.637
108.7655,1.647
108.7655,1.59
108.7655,1.579
108.7655,1.567
108.7655,1.553
108.7655,1.546
108.7665,1.529
108.7665,1.528
108.7665,1.55
108.7665,1.569
108.7665,1.577
108.7665,1.586
108.7665,1.593
108.7675,1.614
108.7675,1.61
108.7675,1.599
108.7675,1.59
108.7675,1.564
108.7675,1.552
108.7675,1.529
108.7685,1.509
108.7685,1.511
108.7685,1.54
108.7685,1.541
108.7685,1.549
108.7685,1.568
108.7685,1.571
108.7685,1.577
108.7695,1.597
108.7695,1.605
108.7695,1.547
108.7695,1.534
108.7695,1.514
108.7695,1.502
108.7695,1.495
108.7705,1.472
108.7705,1.476
108.7705,1.489
108.7705,1.494
108.7705,1.501
108.7705,1.513
108.7715,1.508
108.7715,1.516
108.7715,1.521
108.7715,1.517
108.7715,1.468
108.7715,1.458
108.7715,1.445
108.7725,1.417
108.7725,1.397
108.7725,1.391
108.7725,1.382
108.7725,1.394
108.7735,1.418
108.7735,1.435
108.7735,1.439
108.7735,1.459
108.7735,1.463
108.7735,1.474
108.7735,1.478
108.7745,1.414
108.7745,1.401
108.7745,1.393
108.7745,1.385
108.7745,1.367
108.7745,1.362
108.7745,1.374
108.7755,1.404
108.7755,1.414
108.7755,1.426
108.7755,1.431
108.7755,1.447
108.7755,1.47
108.7755,1.453
108.7765,1.457
108.7765,1.429
108.7765,1.418
108.7765,1.411
108.7765,1.402
108.7765,1.405
108.7765,1.411
108.7775,1.429
108.7775,1.457
108.7775,1.49
108.7775,1.501
108.7775,1.526
108.7775,1.541
108.7775,1.547
108.7785,1.561
108.7785,1.527
108.7785,1.521
108.7785,1.518
108.7785,1.517
108.7785,1.506
108.7785,1.502
108.7795,1.551
108.7795,1.563
108.7795,1.582
108.7795,1.597
108.7795,1.607
108.7795,1.619
108.7795,1.643
108.7795,1.64
108.7805,1.651
108.7805,1.625
108.7805,1.61
108.7805,1.606
108.7805,1.594
108.7805,1.587
108.7805,1.586
108.7815,1.616
108.7815,1.631
108.7815,1.655
108.7815,1.67
108.7815,1.673
108.7815,1.696
108.7825,1.709
108.7825,1.701
108.7825,1.659
108.7825,1.65
108.7825,1.64
108.7825,1.637
108.7825,1.622
108.7835,1.619
108.7835,1.64
108.7835,1.653
108.7835,1.67
108.7835,1.682
108.7835,1.69
108.7835,1.695
108.7845,1.722
108.7845,1.733
108.7845,1.704
108.7845,1.685
108.7845,1.669
108.7845,1.649
108.7845,1.635
108.7855,1.629
108.7855,1.638
108.7855,1.635
108.7855,1.654
108.7855,1.689
108.7855,1.699
108.7855,1.703
108.7855,1.725
108.7865,1.713
108.7865,1.727
108.7865,1.684
108.7865,1.669
108.7865,1.655
108.7865,1.649
108.7875,1.643
108.7875,1.628
108.7875,1.67
108.7875,1.676
108.7875,1.677
108.7875,1.69
108.7884,1.699
108.7884,1.713
108.7884,1.728
108.7884,1.73
108.7884,1.698
108.7884,1.68
108.7894,1.665
108.7894,1.652
108.7894,1.64
108.7894,1.629
108.7894,1.616
108.7894,1.665
108.7894,1.665
108.7904,1.674
108.7904,1.688
108.7904,1.691
108.7904,1.708
108.7904,1.727
108.7904,1.735
108.7904,1.676
108.7914,1.664
108.7914,1.651
108.7914,1.641
108.7914,1.63
108.7914,1.621
108.7914,1.63
108.7914,1.66
108.7924,1.661
108.7924,1.669
108.7924,1.679
108.7924,1.693
108.7924,1.7
108.7924,1.713
108.7924,1.7
108.7934,1.664
108.7934,1.652
108.7934,1.633
108.7934,1.62
108.7934,1.606
108.7934,1.606
108.7934,1.613
108.7944,1.638
108.7944,1.667
108.7944,1.674
108.7944,1.678
108.7944,1.699
108.7944,1.702
108.7944,1.719
108.7954,1.663
108.7954,1.65
108.7954,1.642
108.7954,1.632
108.7954,1.619
108.7954,1.603
108.7954,1.635
108.7964,1.649
108.7964,1.656
108.7964,1.662
108.7964,1.673
108.7964,1.709
108.7964,1.707
108.7964,1.731
108.7964,1.732
108.7974,1.671
108.7974,1.655
108.7974,1.635
108.7974,1.628
108.7974,1.603
108.7974,1.609
108.7974,1.646
108.7984,1.657
108.7984,1.668
108.7984,1.677
108.7984,1.682
108.7984,1.693
108.7984,1.717
108.7984,1.721
108.7994,1.671
108.7994,1.662
108.7994,1.65
108.7994,1.641
108.7994,1.627
108.7994,1.617
108.7994,1.654
108.8004,1.655
108.8004,1.659
108.8004,1.673
108.8004,1.681
108.8004,1.701
108.8004,1.726
108.8004,1.725
108.8014,1.698
108.8014,1.674
108.8014,1.664
108.8014,1.645
108.8014,1.637
108.8014,1.625
108.8024,1.618
108.8024,1.633
108.8024,1.649
108.8024,1.676
108.8024,1.682
108.8024,1.685
108.8024,1.709
108.8034,1.725
108.8034,1.733
108.8034,1.685
108.8034,1.669
108.8034,1.654
108.8034,1.646
108.8044,1.643
108.8044,1.627
108.8044,1.637
108.8044,1.648
108.8044,1.664
108.8044,1.674
108.8054,1.682
108.8054,1.708
108.8054,1.725
108.8054,1.728
108.8054,1.702
108.8054,1.674
108.8054,1.67
108.8064,1.645
108.8064,1.641
108.8064,1.63
108.8064,1.619
108.8064,1.644
108.8064,1.667
108.8074,1.676
108.8074,1.68
108.8074,1.691
108.8074,1.71
108.8074,1.721
108.8074,1.706
108.8074,1.701
108.8084,1.678
108.8084,1.663
108.8084,1.658
108.8084,1.652
108.8084,1.622
108.8084,1.634
108.8084,1.666
108.8094,1.662
108.8094,1.67
108.8094,1.684
108.8094,1.693
108.8094,1.724
108.8094,1.738
108.8094,1.728
108.8104,1.701
108.8104,1.683
108.8104,1.655
108.8104,1.65
108.8104,1.619
108.8104,1.675
108.8104,1.667
109.6362,1.673
109.6362,1.688
109.6362,1.7
109.6372,1.706
109.6372,1.754
109.6372,1.746
109.6372,1.705
109.6372,1.685
109.6372,1.673
109.6382,1.669
109.6382,1.649
109.6382,1.635
109.6382,1.646
109.6382,1.681
109.6382,1.681
109.6382,1.685
109.6392,1.706
109.6392,1.712
109.6392,1.733
109.6392,1.759
109.6392,1.748
109.6392,1.706
109.6392,1.663
109.6392,1.648
109.6402,1.641
109.6402,1.629
109.6402,1.619
109.6402,1.632
109.6402,1.651
109.6402,1.662
109.6402,1.67
109.6412,1.677
109.6412,1.689
109.6412,1.726
109.6412,1.714
109.6412,1.692
109.6412,1.658
109.6412,1.639
109.6422,1.631
109.6422,1.62
109.6422,1.603
109.6422,1.622
109.6422,1.655
109.6422,1.653
109.6432,1.656
109.6432,1.682
109.6432,1.69
109.6432,1.703
109.6432,1.718
109.6432,1.741
109.6432,1.701
109.6442,1.673
109.6442,1.661
109.6442,1.653
109.6442,1.637
109.6442,1.633
109.6442,1.659
109.6442,1.672
109.6442,1.688
109.6452,1.693
109.6452,1.706
109.6452,1.714
109.6452,1.75
109.6452,1.745
109.6452,1.719
109.6452,1.693
109.6462,1.678
109.6462,1.674
109.6462,1.654
109.6462,1.634
109.6462,1.655
109.6462,1.688
109.6462,1.681
109.6472,1.683
109.6472,1.706
109.6472,1.712
109.6472,1.729
109.6472,1.752
109.6472,1.766
109.6472,1.697
109.6482,1.695
109.6482,1.676
109.6482,1.671
109.6482,1.658
109.6482,1.649
109.6482,1.688
109.6492,1.688
109.6492,1.692
109.6492,1.701
109.6492,1.708
109.6492,1.724
109.6492,1.75
109.6492,1.758
109.6502,1.76
109.6502,1.707
109.6502,1.693
109.6502,1.682
109.6502,1.665
109.6502,1.649
109.6502,1.677
109.6512,1.699
109.6512,1.683
109.6512,1.693
109.6512,1.719
109.6512,1.72
109.6512,1.756
109.6512,1.769
109.6522,1.766
109.6522,1.749
109.6522,1.699
109.6522,1.687
109.6522,1.681
109.6522,1.678
109.6522,1.658
109.6522,1.661
109.6532,1.697
109.6532,1.675
109.6532,1.673
109.6532,1.685
109.6532,1.698
109.6532,1.715
109.6541,1.734
109.6541,1.712
109.6541,1.628
109.6541,1.578
109.6541,1.524
109.6541,1.456
109.6541,1.329
109.6552,1.342
109.6552,1.323
109.6552,1.284
109.6552,1.282
109.6552,1.278
109.6552,1.283
109.6552,1.304
109.6562,1.381
109.6562,1.528
109.6562,1.746
109.6562,1.79
109.6562,1.705
109.6562,1.671
109.6562,1.706
109.6572,1.784
109.6572,1.837
109.6572,1.976
109.6572,2.15
109.6572,2.135
109.6572,2.111
109.6572,2.097
109.6582,2.118
109.6582,2.108
109.6582,2.103
109.6582,2.024
109.6582,1.991
109.6582,1.965
109.6582,1.932
109.6592,1.899
109.6592,1.824
109.6592,1.833
109.6592,1.825
109.6592,1.813
109.6592,1.805
109.6592,1.801
109.6602,1.788
109.6602,1.79
109.6602,1.776
109.6602,1.767
109.6602,1.738
109.6602,1.725
109.6602,1.696
109.6602,1.693
109.6612,1.67
109.6612,1.669
109.6612,1.695
109.6612,1.725
109.6612,1.724
109.6612,1.73
109.6612,1.739
109.6621,1.749
109.6621,1.752
109.6621,1.771
109.6621,1.715
109.6621,1.695
109.6621,1.682
109.6621,1.669
109.6631,1.665
109.6631,1.64
109.6631,1.649
109.6631,1.67
109.6631,1.682
109.6631,1.699
109.6631,1.71
109.6641,1.722
109.6641,1.726
109.6641,1.746
109.6641,1.742
109.6641,1.713
109.6641,1.696
109.6651,1.675
109.6651,1.661
109.6651,1.642
109.6651,1.637
109.6651,1.662
109.6651,1.688
109.6651,1.681
109.6661,1.7
109.6661,1.709
109.6661,1.726
109.6661,1.737
109.6661,1.751
109.6661,1.761
109.6661,1.694
109.6671,1.68
109.6671,1.675
109.6671,1.666
109.6671,1.646
109.6671,1.649
109.6671,1.674
109.6671,1.684
109.6681,1.698
109.6681,1.706
109.6681,1.713
109.6681,1.733
109.6681,1.753
109.6681,1.748
109.6681,1.725
109.6681,1.702
109.6691,1.688
109.6691,1.676
109.6691,1.65
109.6691,1.643
109.6691,1.666
109.6691,1.713
109.6691,1.694
109.6701,1.71
109.6701,1.724
109.6701,1.733
109.6701,1.749
109.6701,1.772
109.6711,1.775
109.6711,1.709
109.6711,1.697
109.6711,1.687
109.6711,1.682
109.6711,1.667
109.6711,1.66
109.6721,1.689
109.6721,1.696
109.6721,1.709
109.6721,1.717
109.6721,1.724
109.6721,1.737
109.6721,1.774
109.6731,1.755
109.6731,1.747
109.6731,1.713
109.6731,1.699
109.6731,1.687
109.6731,1.663
109.6731,1.658
109.6741,1.68
109.6741,1.717
109.6741,1.701
109.6741,1.723
109.6741,1.73
109.6741,1.733
109.6741,1.753
109.6751,1.78
109.6751,1.78
109.6751,1.711
109.6751,1.696
109.6751,1.683
109.6751,1.679
109.6751,1.658
109.6751,1.662
109.6761,1.683
109.6761,1.685
109.6761,1.692
109.6761,1.697
109.6761,1.703
109.6761,1.738
109.6761,1.731
109.6771,1.725
109.6771,1.707
109.6771,1.671
109.6771,1.653
109.6771,1.635
109.6771,1.61
109.6771,1.599
109.6781,1.598
109.6781,1.645
109.6781,1.625
109.6781,1.634
109.6781,1.642
109.6781,1.646
109.6781,1.653
109.6791,1.664
109.6791,1.677
109.6791,1.6
109.6791,1.584
109.6791,1.571
109.6791,1.555
109.6791,1.538
109.6801,1.547
109.6801,1.549
109.6801,1.563
109.6801,1.566
109.6801,1.574
109.6801,1.581
109.6811,1.627
109.6811,1.629
109.6811,1.624
109.6811,1.607
109.6811,1.571
109.6811,1.555
109.6811,1.536
109.6821,1.517
109.6821,1.503
109.6821,1.519
109.6821,1.567
109.6821,1.556
109.6821,1.571
109.6831,1.586
109.6831,1.595
109.6831,1.62
109.6831,1.64
109.6831,1.656
109.6831,1.594
109.6831,1.592
109.6841,1.58
109.6841,1.577
109.6841,1.573
109.6841,1.568
109.6841,1.608
109.6841,1.62
109.6841,1.632
109.6851,1.646
109.6851,1.661
109.6851,1.711
109.6851,1.706
109.6851,1.729
109.6851,1.73
109.6851,1.685
109.6851,1.674
109.6860,1.671
109.6860,1.662
109.6860,1.649
109.6860,1.675
109.6860,1.704
109.6860,1.703
109.6860,1.73
109.6870,1.739
109.6870,1.745
109.6870,1.778
109.6870,1.801
109.6870,1.776
109.6870,1.754
109.6880,1.749
109.6880,1.73
109.6880,1.721
109.6880,1.721
109.6880,1.711
109.6880,1.734
109.6880,1.753
109.6880,1.751
109.6890,1.764
109.6890,1.77
109.6890,1.81
109.6890,1.811
109.6890,1.819
109.6890,1.819
109.6890,1.767
109.6900,1.756
109.6900,1.743
109.6900,1.728
109.6900,1.713
109.6900,1.728
109.6900,1.77
109.6900,1.761
109.6910,1.774
109.6910,1.789
109.6910,1.793
109.6910,1.805
109.6910,1.829
109.6910,1.809
109.6910,1.785
109.6920,1.772
109.6920,1.758
109.6920,1.753
109.6920,1.741
109.6920,1.727
109.6920,1.747
109.6920,1.767
109.6930,1.77
109.6930,1.781
109.6930,1.792
109.6930,1.828
109.6930,1.83
109.6930,1.837
109.6930,1.844
109.6940,1.793
109.6940,1.758
109.6940,1.754
109.6940,1.739
109.6940,1.723
109.6940,1.73
109.6940,1.773
109.6950,1.766
109.6950,1.781
109.6950,1.791
109.6950,1.795
109.6950,1.82
109.6950,1.836
109.6950,1.822
109.6960,1.792
109.6980,1.773
109.7020,1.761
109.7040,1.753
109.7050,1.75
109.7050,1.727
109.7050,1.754
109.7060,1.776
109.7060,1.77
109.7060,1.779
109.7060,1.8
109.7060,1.813
109.7060,1.818
109.7060,1.839
109.7070,1.84
109.7070,1.794
109.7070,1.767
109.7070,1.758
109.7070,1.747
109.7070,1.729
109.7070,1.733
109.7080,1.765
109.7080,1.765
109.7080,1.779
109.7080,1.786
109.7080,1.792
109.7080,1.809
109.7080,1.848
109.7090,1.816
109.7090,1.794
109.7090,1.777
109.7090,1.762
109.7090,1.75
109.7090,1.745
109.7090,1.723
109.7100,1.749
109.7100,1.779
109.7100,1.769
109.7100,1.776
109.7100,1.797
109.7100,1.809
109.7100,1.823
109.7100,1.832
109.7110,1.85
109.7110,1.809
109.7110,1.766
109.7110,1.756
109.7110,1.748
109.7110,1.731
109.7110,1.719
109.7120,1.768
109.7120,1.765
109.7120,1.776
109.7130,1.79
109.7130,1.796
109.7130,1.807
109.7130,1.853
109.7130,1.831
109.7130,1.803
109.7130,1.782
109.7140,1.769
109.7140,1.757
109.7140,1.739
109.7140,1.727
109.7140,1.758
109.7140,1.782
109.7140,1.772
109.7150,1.779
109.7150,1.804
109.7150,1.813
109.7150,1.827
109.7150,1.833
109.7150,1.85
109.7150,1.819
109.7160,1.77
109.7160,1.76
109.7160,1.755
109.7160,1.732
109.7160,1.728
109.7160,1.774
109.7160,1.773
109.7170,1.787
109.7170,1.797
109.7170,1.838
109.7170,1.859
109.7170,1.833
109.7170,1.813
109.7170,1.795
109.7170,1.781
109.7180,1.756
109.7180,1.749
109.7180,1.735
109.7180,1.759
109.7180,1.78
109.7180,1.778
109.7180,1.788
109.7190,1.8
109.7190,1.818
109.7190,1.827
109.7190,1.832
109.7190,1.841
109.7190,1.784
109.7190,1.774
109.7200,1.765
109.7200,1.761
109.7200,1.745
109.7200,1.765
109.7200,1.767
109.7200,1.769
109.7210,1.778
109.7210,1.796
109.7210,1.803
109.7210,1.841
109.7220,1.852
109.7220,1.841
109.7220,1.819
109.7220,1.792
109.7220,1.778
109.7220,1.759
109.7220,1.745
109.7230,1.738
109.7230,1.763
109.7230,1.773
109.7230,1.779
109.7230,1.793
109.7230,1.804
109.7230,1.814
109.7240,1.83
109.7240,1.842
109.7240,1.852
109.7240,1.785
109.7240,1.774
109.7240,1.766
109.7240,1.759
109.7250,1.745
109.7250,1.735
109.7250,1.786
109.7250,1.777
109.7250,1.782
109.7250,1.795
109.7250,1.8
109.7260,1.809
109.7260,1.845
109.7260,1.839
109.7260,1.828
109.7260,1.796
109.7260,1.779
109.7260,1.77
109.7270,1.767
109.7270,1.735
109.7270,1.746
109.7270,1.769
109.7270,1.786
109.7270,1.785
109.7270,1.811
109.7280,1.812
109.7280,1.833
109.7280,1.834
109.7280,1.856
109.7280,1.843
109.7280,1.782
109.7290,1.775
109.7290,1.767
109.7290,1.755
109.7290,1.732
109.7290,1.76
109.7290,1.77
109.7290,1.784
109.7300,1.791
109.7300,1.802
109.7300,1.806
109.7300,1.833
109.7300,1.873
109.7300,1.839
109.7300,1.808
109.7310,1.795
109.7310,1.78
109.7310,1.767
109.7310,1.752
109.7310,1.744
109.7310,1.775
109.7310,1.784
109.7320,1.789
109.7320,1.801
109.7320,1.82
109.7320,1.849
109.7320,1.848
109.7320,1.867
109.7320,1.858
109.7320,1.806
109.7330,1.774
109.7330,1.766
109.7330,1.749
109.7330,1.736
109.7330,1.754
109.7330,1.766
109.7330,1.777
109.7340,1.791
109.7340,1.807
109.7340,1.793
109.7340,1.811
109.7340,1.835
109.7340,1.825
109.7340,1.789
109.7350,1.768
109.7350,1.75
109.7350,1.741
109.7350,1.709
109.7350,1.713
109.7350,1.749
109.7350,1.769
109.7360,1.76
109.7360,1.775
109.7360,1.793
109.7360,1.805
109.7360,1.832
109.7360,1.862
109.7360,1.838
109.7369,1.784
109.7369,1.776
109.7369,1.766
109.7369,1.757
109.7369,1.741
109.7369,1.746
109.7379,1.778
109.7379,1.78
109.7379,1.791
109.7379,1.801
109.7379,1.811
109.7389,1.839
109.7389,1.849
109.7389,1.839
109.7389,1.814
109.7389,1.789
109.7389,1.78
109.7389,1.772
109.7389,1.743
109.7399,1.736
109.7399,1.775
109.7399,1.803
109.7399,1.795
109.7399,1.791
109.7399,1.819
109.7399,1.836
109.7409,1.846
109.7409,1.86
109.7409,1.87
110.0903,1.822
110.0914,1.785
110.0914,1.777
110.0923,1.768
110.0923,1.752
110.0934,1.756
110.0934,1.794
110.0934,1.793
110.0943,1.802
110.0943,1.817
110.0953,1.821
110.0953,1.834
110.0963,1.88
110.0963,1.851
110.0973,1.825
110.0973,1.808
110.0973,1.795
110.0983,1.784
110.0983,1.76
110.0993,1.76
110.0993,1.772
110.1003,1.79
110.1003,1.796
110.1003,1.803
110.1013,1.819
110.1013,1.842
110.1013,1.856
110.1013,1.861
110.1023,1.847
110.1023,1.829
110.1033,1.791
110.1033,1.777
110.1033,1.774
110.1043,1.754
110.1043,1.754
110.1043,1.771
110.1053,1.795
110.1053,1.777
110.1053,1.778
110.1053,1.779
110.1063,1.788
110.1063,1.802
110.1063,1.825
110.1063,1.776
110.1063,1.734
110.1073,1.69
110.1073,1.643
110.1073,1.592
110.1073,1.466
110.1073,1.454
110.1083,1.44
110.1083,1.407
110.1083,1.393
110.1083,1.389
110.1083,1.406
110.1093,1.428
110.1093,1.428
110.1093,1.494
110.1093,1.615
110.1093,1.823
110.1103,1.895
110.1103,1.827
110.1103,1.798
110.1103,1.823
110.1103,1.932
110.1113,2.008
110.1113,2.245
110.1113,2.288
110.1113,2.28
110.1113,2.264
110.1113,2.253
110.1113,2.262
110.1123,2.22
110.1123,2.148
110.1123,2.109
110.1123,2.089
110.1123,2.054
110.1133,2.013
110.1133,1.975
110.1133,1.958
110.1133,1.947
110.1133,1.94
110.1133,1.934
110.1143,1.921
110.1143,1.904
110.1143,1.894
110.1143,1.863
110.1143,1.837
110.1143,1.821
110.1143,1.81
110.1153,1.784
110.1153,1.781
110.1153,1.762
110.1153,1.764
110.1153,1.794
110.1153,1.808
110.1163,1.821
110.1163,1.829
110.1163,1.833
110.1163,1.845
110.1163,1.864
110.1163,1.857
110.1163,1.79
110.1173,1.776
110.1173,1.763
110.1173,1.755
110.1173,1.739
110.1173,1.731
110.1173,1.753
110.1173,1.767
110.1183,1.786
110.1183,1.792
110.1183,1.798
110.1183,1.805
110.1183,1.826
110.1183,1.82
110.1193,1.795
110.1193,1.783
110.1193,1.767
110.1193,1.757
110.1193,1.736
110.1193,1.721
110.1193,1.722
110.1203,1.755
110.1203,1.756
110.1203,1.767
110.1203,1.793
110.1203,1.79
110.1203,1.812
110.1203,1.836
110.1213,1.85
110.1213,1.795
110.1213,1.771
110.1213,1.766
110.1213,1.746
110.1213,1.734
110.1213,1.727
110.1223,1.723
110.1223,1.768
110.1223,1.769
110.1223,1.78
110.1223,1.792
110.1223,1.8
110.1223,1.811
110.1233,1.822
110.1233,1.824
110.1233,1.781
110.1233,1.769
110.1233,1.759
110.1233,1.752
110.1233,1.721
110.1243,1.736
110.1243,1.746
110.1243,1.757
110.1243,1.772
110.1243,1.785
110.1243,1.802
110.1243,1.822
110.1253,1.833
110.1253,1.82
110.1253,1.808
110.1253,1.787
110.1253,1.752
110.1253,1.747
110.1253,1.748
110.1263,1.723
110.1263,1.721
110.1263,1.768
110.1263,1.772
110.1263,1.787
110.1263,1.796
110.1263,1.8
110.1272,1.816
110.1272,1.832
110.1272,1.794
110.1272,1.783
110.1272,1.768
110.1272,1.761
110.1272,1.75
110.1272,1.737
110.1282,1.717
110.1282,1.723
110.1282,1.749
110.1282,1.761
110.1282,1.773
110.1282,1.78
110.1292,1.808
110.1292,1.808
110.1292,1.813
110.1292,1.798
110.1292,1.773
110.1292,1.752
110.1292,1.732
110.1292,1.722
110.1302,1.7
110.1302,1.704
110.1302,1.728
110.1302,1.718
110.1302,1.741
110.1302,1.751
110.1302,1.753
110.1312,1.762
110.1312,1.776
110.1312,1.764
110.1312,1.725
110.1312,1.706
110.1312,1.689
110.1312,1.678
110.1322,1.676
110.1332,1.634
110.1342,1.667
110.1392,1.667
110.1402,1.663
110.1412,1.673
110.1412,1.677
110.1422,1.677
110.1422,1.701
110.1422,1.713
110.1422,1.681
110.1422,1.649
110.1422,1.633
110.1422,1.615
110.1432,1.591
110.1432,1.569
110.1432,1.554
110.1432,1.574
110.1432,1.583
110.1432,1.603
110.1432,1.618
110.1442,1.625
110.1442,1.636
110.1442,1.641
110.1442,1.637
110.1442,1.634
110.1442,1.589
110.1442,1.584
110.1442,1.572
110.1452,1.565
110.1452,1.544
110.1452,1.546
110.1452,1.577
110.1452,1.592
110.1452,1.606
110.1452,1.611
110.1462,1.622
110.1462,1.643
110.1462,1.655
110.1462,1.657
110.1462,1.638
110.1462,1.624
110.1462,1.618
110.1472,1.613
110.1472,1.6
110.1472,1.598
110.1472,1.63
110.1472,1.645
110.1472,1.663
110.1472,1.678
110.1482,1.71
110.1482,1.719
110.1482,1.746
110.1482,1.764
110.1482,1.774
110.1482,1.724
110.1482,1.717
110.1492,1.714
110.1492,1.707
110.1492,1.69
110.1492,1.702
110.1492,1.696
110.1492,1.747
110.1501,1.768
110.1501,1.779
110.1501,1.79
110.1501,1.815
110.1501,1.838
110.1501,1.834
110.1501,1.815
110.1511,1.8
110.1511,1.787
110.1511,1.78
110.1511,1.778
110.1511,1.75
110.1511,1.781
110.1511,1.786
110.1521,1.797
110.1521,1.81
110.1521,1.825
110.1521,1.84
110.1521,1.856
110.1521,1.877
110.1521,1.871
110.1531,1.848
110.1531,1.822
110.1531,1.802
110.1531,1.795
110.1531,1.776
110.1531,1.769
110.1541,1.8
110.1541,1.797
110.1541,1.823
110.1541,1.835
110.1541,1.842
110.1541,1.85
110.1552,1.879
110.1552,1.865
110.1552,1.836
110.1552,1.824
110.1552,1.81
110.1552,1.798
110.1552,1.794
110.1562,1.783
110.1562,1.773
110.1562,1.806
110.1562,1.809
110.1562,1.818
110.1562,1.835
110.1562,1.845
110.1572,1.86
110.1572,1.883
110.1572,1.881
110.1572,1.848
110.1572,1.826
110.1572,1.815
110.1582,1.8
110.1582,1.782
110.1582,1.775
110.1582,1.772
110.1582,1.817
110.1582,1.829
110.7704,1.842
110.7754,1.846
110.7764,1.874
110.7764,1.859
110.7774,1.836
110.7774,1.826
110.7784,1.814
110.7784,1.805
110.7784,1.796
110.7794,1.775
110.7794,1.788
110.7804,1.788
110.7804,1.798
110.7804,1.816
110.7814,1.83
110.7814,1.849
110.7824,1.873
110.7824,1.87
110.7834,1.886
110.7834,1.866
110.7844,1.819
110.7844,1.801
110.7844,1.79
110.7844,1.773
110.7854,1.766
110.7854,1.783
110.7854,1.795
110.7864,1.81
110.7864,1.82
110.7864,1.829
110.7864,1.844
110.7874,1.868
110.7874,1.867
110.7874,1.86
110.7884,1.823
110.7884,1.801
110.7884,1.789
110.7884,1.787
110.7894,1.775
110.7894,1.775
110.7894,1.813
110.7894,1.797
110.7904,1.8
110.7904,1.815
110.7904,1.832
110.7904,1.853
110.7904,1.871
110.7914,1.886
110.7934,1.844
110.7983,1.811
110.8003,1.799
110.8013,1.785
110.8013,1.766
110.8013,1.749
110.8013,1.766
110.8024,1.763
110.8024,1.791
110.8024,1.816
110.8024,1.823
110.8024,1.829
110.8024,1.85
110.8034,1.849
110.8034,1.868
110.8034,1.816
110.8034,1.8
110.8034,1.786
110.8043,1.787
110.8043,1.77
110.8043,1.758
110.8043,1.766
110.8054,1.787
110.8054,1.799
110.8054,1.813
110.8054,1.821
110.8054,1.829
110.8054,1.847
110.8054,1.864
110.8064,1.833
110.8064,1.814
110.8064,1.799
110.8064,1.786
110.8064,1.765
110.8064,1.754
110.8064,1.76
110.8064,1.764
110.8074,1.781
110.8074,1.805
110.8074,1.823
110.8074,1.825
110.8074,1.846
110.8083,1.846
110.8083,1.85
110.8083,1.818
110.8083,1.805
110.8083,1.784
110.8083,1.783
110.8083,1.776
110.8093,1.757
110.8093,1.778
110.8093,1.781
110.8093,1.799
110.8093,1.81
110.8093,1.818
110.8093,1.825
110.8103,1.85
110.8103,1.834
110.8103,1.82
110.8103,1.815
110.8103,1.799
110.8103,1.787
110.8103,1.773
110.8113,1.751
110.8113,1.75
110.8113,1.782
110.8113,1.796
110.8113,1.806
110.8113,1.821
110.8113,1.829
110.8113,1.84
110.8123,1.852
110.8123,1.871
110.8123,1.816
110.8123,1.796
110.8123,1.789
110.8123,1.781
110.8133,1.772
110.8133,1.752
110.8133,1.799
110.8133,1.788
110.8133,1.797
110.8133,1.806
110.8133,1.819
110.8133,1.825
110.8143,1.854
110.8143,1.854
110.8143,1.843
110.8143,1.819
110.8143,1.798
110.8143,1.79
110.8143,1.772
110.8153,1.754
110.8153,1.758
110.8153,1.775
110.8153,1.779
110.8153,1.805
110.8153,1.819
110.8153,1.822
110.8163,1.84
110.8163,1.86
110.8163,1.854
110.8163,1.817
110.8163,1.804
110.8163,1.789
110.8163,1.776
110.8173,1.775
110.8173,1.755
110.8173,1.766
110.8173,1.785
110.8173,1.789
110.8173,1.801
110.8183,1.817
110.8183,1.822
110.8183,1.847
110.8183,1.865
110.8183,1.832
110.8183,1.81
110.8183,1.802
110.8193,1.779
110.8193,1.774
110.8193,1.751
110.8193,1.749
110.8193,1.752
110.8193,1.772
110.8193,1.8
110.8203,1.807
110.8203,1.82
110.8203,1.836
110.8203,1.841
110.8213,1.85
110.8213,1.822
110.8213,1.805
110.8213,1.792
110.8213,1.781
110.8213,1.773
110.8223,1.756
110.8223,1.769
110.8223,1.767
110.8223,1.796
110.8223,1.809
110.8223,1.816
110.8223,1.838
110.8233,1.862
110.8233,1.84
110.8233,1.848
110.8233,1.823
110.8233,1.793
110.8233,1.762
110.8243,1.763
110.8243,1.745
110.8243,1.728
110.8243,1.744
110.8243,1.754
110.8243,1.773
110.8243,1.788
110.8253,1.798
110.8253,1.802
110.8253,1.815
110.8253,1.847
110.8253,1.781
110.8253,1.772
110.8253,1.758
110.8253,1.75
110.8263,1.741
110.8263,1.718
110.8263,1.71
110.8263,1.748
110.8263,1.765
110.8263,1.777
110.8263,1.785
110.8273,1.797
110.8273,1.813
110.8273,1.826
110.8273,1.844
110.8273,1.805
110.8273,1.788
110.8273,1.784
110.8283,1.767
110.8283,1.749
110.8283,1.746
110.8283,1.747
110.8283,1.752
110.8283,1.782
110.8283,1.806
110.8293,1.813
110.8293,1.825
110.8293,1.839
110.8293,1.831
110.8293,1.83
110.8293,1.793
110.8293,1.782
110.8293,1.778
110.8303,1.769
110.8303,1.756
110.8303,1.745
110.8303,1.76
110.8303,1.777
110.8303,1.791
110.8303,1.803
110.8313,1.818
110.8313,1.827
110.8313,1.851
110.8313,1.826
110.8313,1.812
110.8313,1.796
110.8313,1.784
110.8323,1.774
110.8323,1.766
110.8323,1.753
110.8323,1.753
110.8323,1.775
110.8323,1.789
110.8323,1.79
110.8333,1.805
110.8333,1.817
110.8333,1.836
110.8333,1.855
110.8333,1.845
110.8333,1.815
110.8333,1.796
110.8343,1.776
110.8343,1.766
110.8343,1.757
110.8343,1.749
110.8343,1.749
110.8343,1.778
110.8343,1.8
110.8353,1.808
110.8353,1.816
110.8353,1.826
110.8353,1.846
110.8353,1.855
110.8353,1.837
110.8353,1.799
110.8353,1.793
110.8363,1.783
110.8363,1.772
110.8363,1.761
110.8363,1.737
110.8363,1.741
110.8363,1.747
110.8373,1.757
110.8373,1.768
110.8373,1.777
110.8373,1.802
110.8373,1.788
110.8373,1.776
110.8383,1.711
110.8383,1.645
110.8383,1.586
110.8383,1.481
110.8383,1.453
110.8383,1.412
110.8383,1.392
110.8393,1.39
110.8393,1.366
110.8393,1.401
110.8393,1.44
110.8393,1.526
110.8393,1.802
110.8403,1.985
110.8403,1.995
110.8403,1.862
110.8403,1.822
110.8403,1.857
110.8403,1.916
110.8403,1.985
110.8413,2.124
110.8413,2.25
110.8413,2.228
110.8413,2.175
110.8413,2.147
110.8413,2.159
110.8413,2.163
110.8423,2.162
110.8423,2.153
110.8423,2.114
110.8423,2.044
110.8423,2.009
110.8423,1.971
110.8423,1.89
110.8433,1.864
110.8433,1.853
110.8433,1.85
110.8433,1.854
110.8433,1.841
110.8433,1.815
110.8433,1.814
110.8443,1.83
110.8443,1.826
110.8443,1.825
110.8443,1.811
110.8443,1.779
110.8443,1.773
110.8443,1.763
110.8452,1.751
110.8452,1.729
110.8452,1.737
110.8452,1.761
110.8452,1.768
110.8452,1.781
110.8452,1.787
110.8462,1.787
110.8462,1.79
110.8462,1.836
110.8462,1.783
110.8462,1.764
110.8462,1.749
110.8462,1.739
110.8472,1.725
110.8472,1.71
110.8472,1.715
110.8472,1.726
110.8472,1.729
110.8472,1.74
110.8472,1.758
110.8482,1.778
110.8482,1.791
110.8482,1.803
110.8482,1.789
110.8482,1.773
110.8482,1.756
110.8482,1.737
110.8482,1.73
110.8492,1.723
110.8492,1.701
110.8492,1.694
110.8492,1.737
110.8492,1.745
110.8492,1.756
110.8492,1.76
110.8502,1.77
110.8502,1.778
110.8502,1.8
110.8502,1.774
110.8502,1.76
110.8502,1.742
110.8502,1.728
110.8512,1.722
110.8512,1.721
110.8512,1.69
110.8512,1.724
110.8512,1.739
110.8512,1.735
110.8512,1.748
110.8522,1.756
110.8522,1.766
110.8522,1.787
110.8522,1.796
110.8522,1.775
110.8522,1.749
110.8532,1.74
110.8532,1.725
110.8532,1.712
110.8532,1.696
110.8532,1.702
110.8532,1.704
110.8542,1.706
110.8542,1.742
110.8542,1.754
110.8542,1.761
110.8542,1.774
110.8542,1.785
110.8542,1.796
110.8552,1.763
110.8552,1.737
110.8552,1.724
110.8552,1.718
110.8552,1.707
110.8552,1.687
110.8552,1.706
110.8562,1.69
110.8562,1.725
110.8562,1.741
110.8562,1.753
110.8562,1.751
110.8562,1.78
110.8562,1.776
110.8572,1.757
110.8572,1.734
110.8572,1.724
110.8572,1.711
110.8572,1.703
110.8572,1.683
110.8572,1.673
110.8582,1.695
110.8582,1.7
110.8582,1.704
110.8582,1.72
110.8582,1.728
110.8582,1.733
110.8582,1.762
110.8592,1.779
110.8592,1.766
110.8592,1.707
110.8592,1.698
110.8592,1.683
110.8592,1.672
110.8592,1.645
110.8592,1.648
110.8602,1.646
110.8602,1.666
110.8602,1.68
110.8602,1.687
110.8602,1.695
110.8602,1.703
110.8602,1.706
110.8612,1.708
110.8612,1.689
110.8612,1.651
110.8612,1.631
110.8612,1.615
110.8612,1.584
110.8612,1.571
110.8622,1.587
110.8622,1.587
110.8622,1.591
110.8622,1.595
110.8622,1.613
110.8622,1.609
110.8622,1.635
110.8632,1.629
110.8632,1.615
110.8632,1.604
110.8632,1.564
110.8632,1.551
110.8632,1.549
110.8632,1.533
110.8642,1.513
110.8642,1.52
110.8642,1.553
110.8642,1.556
110.8642,1.57
110.8642,1.584
110.8642,1.58
110.8652,1.594
110.8652,1.601
110.8652,1.57
110.8652,1.562
110.8652,1.546
110.8652,1.546
110.8652,1.532
110.8652,1.516
110.8662,1.497
110.8662,1.553
110.8662,1.585
111.4523,1.596
111.4583,1.607
111.4623,1.633
111.4633,1.647
111.4643,1.661
111.4643,1.609
111.4643,1.599
111.4653,1.6
111.4653,1.605
111.4663,1.598
111.4673,1.593
111.4673,1.634
111.4673,1.647
111.4683,1.665
111.4683,1.683
111.4693,1.701
111.4693,1.706
111.4703,1.766
111.4713,1.774
111.4713,1.733
111.4723,1.721
111.4723,1.712
111.4733,1.702
111.4733,1.692
111.4743,1.688
111.4743,1.702
111.4753,1.722
111.4753,1.735
111.4753,1.747
111.4753,1.781
111.4763,1.793
111.4763,1.817
111.4763,1.819
111.4773,1.829
111.4773,1.782
111.4773,1.775
111.4773,1.763
111.4782,1.758
111.4782,1.747
111.4782,1.73
111.4782,1.793
111.4792,1.777
111.4792,1.794
111.4792,1.805
111.4792,1.81
111.4802,1.824
111.4802,1.86
111.4802,1.853
111.4802,1.844
111.4802,1.811
111.4812,1.804
111.4812,1.789
111.4812,1.771
111.4812,1.757
111.4812,1.765
111.4822,1.788
111.4822,1.798
111.4822,1.796
111.4832,1.823
111.4832,1.831
111.4832,1.857
111.4832,1.855
111.4832,1.859
111.4842,1.813
111.4842,1.801
111.4842,1.794
111.4842,1.791
111.4842,1.778
111.4852,1.754
111.4852,1.798
111.4852,1.788
111.4852,1.798
111.4852,1.805
111.4852,1.815
111.4862,1.826
111.4862,1.868
111.4862,1.884
111.4862,1.832
111.4862,1.819
111.4862,1.799
111.4872,1.79
111.4872,1.764
111.4872,1.751
111.4872,1.745
111.4882,1.765
111.4882,1.787
111.4882,1.791
111.4882,1.805
111.4882,1.812
111.4882,1.824
111.4893,1.835
111.4893,1.854
111.4893,1.795
111.4893,1.786
111.4893,1.774
111.4893,1.765
111.4893,1.756
111.4903,1.737
111.4903,1.746
111.4903,1.784
111.4903,1.777
111.4903,1.792
111.4903,1.802
111.4903,1.813
111.4913,1.83
111.4913,1.822
111.4913,1.827
111.4913,1.8
111.4913,1.78
111.4913,1.765
111.4913,1.741
111.4922,1.727
111.4922,1.73
111.4922,1.731
111.4922,1.732
111.4922,1.768
111.4922,1.794
111.4932,1.795
111.4932,1.814
111.4932,1.826
111.4932,1.82
111.4932,1.816
111.4932,1.772
111.4932,1.76
111.4942,1.752
111.4942,1.748
111.4942,1.734
111.4942,1.724
111.4942,1.75
111.4942,1.766
111.4942,1.777
111.4952,1.794
111.4952,1.797
111.4952,1.813
111.4952,1.813
111.4952,1.801
111.4952,1.784
111.4952,1.775
111.4962,1.764
111.4962,1.755
111.4962,1.75
111.4962,1.723
111.4962,1.732
111.4962,1.767
111.4962,1.769
111.4972,1.778
111.4972,1.8
111.4972,1.805
111.4972,1.829
111.4972,1.841
111.4972,1.828
111.4972,1.79
111.4972,1.76
111.4982,1.755
111.4982,1.746
111.4982,1.728
111.4982,1.732
111.4982,1.752
111.4982,1.774
111.4992,1.785
111.4992,1.789
111.4992,1.799
111.4992,1.815
111.4992,1.834
111.4992,1.839
111.4992,1.813
111.5002,1.78
111.5002,1.77
111.5002,1.757
111.5002,1.755
111.5002,1.734
111.5002,1.757
111.5002,1.746
111.5002,1.774
111.5012,1.782
111.5012,1.794
111.5012,1.805
111.5012,1.836
111.5012,1.828
111.5012,1.836
111.5012,1.818
111.5022,1.783
111.5022,1.777
111.5022,1.755
111.5022,1.738
111.5022,1.732
111.5022,1.76
111.5032,1.749
111.5032,1.775
111.5032,1.79
111.5032,1.803
111.5032,1.814
111.5042,1.829
111.5042,1.828
111.5042,1.831
111.5042,1.786
111.5042,1.772
111.5042,1.761
111.5042,1.751
111.5052,1.732
111.5052,1.755
111.5052,1.752
111.5052,1.775
111.5052,1.786
111.5052,1.796
111.5052,1.8
111.5052,1.838
111.5062,1.827
111.5062,1.828
111.5062,1.811
111.5062,1.787
111.5062,1.772
111.5062,1.764
111.5062,1.747
111.5072,1.734
111.5072,1.758
111.5072,1.763
111.5072,1.771
111.5072,1.798
111.5072,1.814
111.5072,1.817
111.5082,1.84
111.5082,1.86
111.5082,1.811
111.5082,1.796
111.5082,1.78
111.5082,1.771
111.5082,1.763
111.5092,1.756
111.5092,1.731
111.5092,1.761
111.5092,1.771
111.5092,1.781
111.5092,1.788
111.5092,1.798
111.5102,1.827
111.5102,1.829
111.5102,1.816
111.5102,1.806
111.5102,1.777
111.5102,1.762
111.5102,1.739
111.5102,1.726
111.5112,1.706
111.5112,1.719
111.5112,1.733
111.5112,1.751
111.5112,1.764
111.5112,1.775
111.5112,1.78
111.5122,1.8
111.5122,1.815
111.5122,1.794
111.5122,1.774
111.5122,1.761
111.5122,1.754
111.5132,1.747
111.5132,1.73
111.5132,1.743
111.5132,1.733
111.5132,1.756
111.5132,1.774
111.5132,1.792
111.5142,1.802
111.5142,1.835
111.5142,1.842
111.5142,1.832
111.5142,1.799
111.5152,1.792
111.5152,1.768
111.5152,1.761
111.5152,1.755
111.5152,1.749
111.5152,1.735
111.5152,1.74
111.5152,1.784
111.5162,1.793
111.5162,1.802
111.5162,1.811
111.5162,1.835
111.5162,1.843
111.5162,1.808
111.5162,1.797
111.5172,1.786
111.5172,1.774
111.5172,1.767
111.5172,1.765
111.5172,1.737
111.5172,1.755
111.5172,1.779
111.5182,1.787
111.5182,1.802
111.5182,1.813
111.5182,1.839
111.5182,1.839
111.5182,1.829
111.5182,1.832
111.5192,1.806
111.5192,1.775
111.5192,1.768
111.5192,1.768
111.5192,1.748
111.5192,1.75
111.5192,1.784
111.5202,1.787
111.5202,1.797
111.5202,1.809
111.5202,1.821
111.5202,1.83
111.5202,1.835
111.5212,1.839
111.5212,1.807
111.5212,1.787
111.5212,1.77
111.5212,1.764
111.5212,1.759
111.5212,1.746
111.5222,1.769
111.5222,1.779
111.5222,1.787
111.5222,1.8
111.5222,1.814
111.5222,1.823
111.5232,1.847
111.5232,1.858
111.5232,1.831
111.5232,1.812
111.5232,1.768
111.5232,1.755
111.5232,1.744
111.5242,1.735
111.5242,1.719
111.5242,1.722
111.5242,1.757
111.5242,1.745
111.5242,1.736
111.5242,1.726
111.5252,1.694
111.5252,1.628
111.5252,1.577
111.5252,1.54
111.5252,1.498
111.5252,1.454
111.5252,1.421
111.5262,1.36
111.5262,1.372
111.5262,1.432
111.5262,1.549
111.5262,1.815
111.5262,1.959
111.5262,1.928
111.5272,1.899
111.5272,1.904
111.5272,1.955
111.5272,1.963
111.5272,2.056
111.5272,2.283
111.5272,2.26
111.5282,2.195
111.5282,2.124
111.5282,2.078
111.5282,2.103
111.5282,2.112
111.5282,2.118
111.5282,2.123
111.5282,2.093
111.5291,2.071
111.5291,2.053
111.5291,2.016
111.5291,1.951
111.5291,1.907
111.5291,1.884
111.5291,1.87
111.5301,1.792
111.5301,1.767
111.5301,1.755
111.5301,1.754
111.5301,1.776
111.5301,1.785
111.5311,1.796
111.5311,1.819
111.5311,1.844
111.5311,1.832
111.5311,1.824
111.5311,1.803
111.5311,1.773
111.5321,1.761
111.5321,1.756
111.5321,1.73
111.5321,1.722
111.5321,1.752
111.5321,1.761
111.5321,1.768
111.5331,1.772
111.5331,1.787
111.5331,1.791
111.5331,1.817
111.5331,1.814
111.5331,1.77
111.5331,1.762
111.5341,1.752
111.5341,1.74
111.5341,1.712
111.5341,1.711
111.5341,1.714
111.5341,1.715
111.5341,1.748
111.5351,1.762
111.5351,1.778
111.5351,1.787
111.5351,1.811
111.5351,1.817
111.5351,1.794
111.5351,1.761
111.5361,1.747
111.5361,1.734
111.5361,1.723
111.5361,1.705
111.5361,1.701
111.5361,1.734
111.5371,1.748
111.5371,1.759
111.5371,1.768
111.5371,1.781
111.5371,1.79
111.5371,1.808
111.5371,1.813
111.5381,1.777
111.5381,1.753
111.5381,1.741
111.5381,1.73
111.5381,1.708
111.5381,1.705
111.5381,1.729
111.5391,1.713
111.5391,1.742
111.5391,1.764
111.5391,1.77
111.5391,1.784
111.5391,1.807
111.5391,1.818
111.5401,1.789
111.5401,1.756
111.5401,1.742
111.5401,1.729
111.5401,1.728
111.5401,1.713
111.5401,1.702
111.5401,1.731
111.5411,1.736
111.5411,1.76
111.5411,1.765
111.5411,1.772
111.5411,1.771
111.5411,1.805
111.5411,1.781
111.5421,1.775
111.5421,1.755
111.5421,1.738
111.5421,1.722
111.5421,1.709
111.5421,1.694
111.5431,1.707
111.5431,1.742
111.5431,1.727
111.5431,1.757
111.5431,1.763
111.5431,1.768
111.5431,1.792
111.5441,1.802
111.5441,1.785
111.5441,1.749
111.5441,1.733
111.5441,1.72
111.5441,1.714
111.5441,1.705
111.5441,1.684
111.5451,1.704
111.5451,1.72
111.5451,1.726
111.5451,1.738
111.5451,1.745
111.5451,1.759
111.5451,1.773
111.5461,1.771
111.5461,1.744
111.5461,1.718
111.5461,1.706
111.5461,1.68
111.5461,1.661
111.5471,1.648
111.5471,1.653
111.5471,1.641
111.5471,1.669
111.5471,1.688
111.5471,1.691
112.1315,1.717
112.1315,1.697
112.1325,1.694
112.1325,1.654
112.1325,1.633
112.1325,1.621
112.1325,1.61
112.1325,1.569
112.1325,1.586
112.1335,1.603
112.1335,1.61
112.1335,1.603
112.1335,1.611
112.1335,1.623
112.1335,1.634
112.1335,1.651
112.1335,1.658
112.1345,1.624
112.1345,1.593
112.1345,1.564
112.1345,1.555
112.1345,1.534
112.1345,1.519
112.1355,1.549
112.1355,1.553
112.1355,1.567
112.1355,1.577
112.1355,1.587
112.1355,1.598
112.1365,1.623
112.1365,1.641
112.1365,1.643
112.1365,1.586
112.1365,1.572
112.1375,1.567
112.1375,1.567
112.1375,1.538
112.1375,1.563
112.1385,1.589
112.1385,1.586
112.1385,1.605
112.1385,1.621
112.1385,1.646
112.1385,1.678
112.1395,1.702
112.1395,1.71
112.1395,1.689
112.1395,1.668
112.1395,1.651
112.1395,1.647
112.1395,1.646
112.1395,1.636
112.1405,1.639
112.1405,1.671
112.1405,1.703
112.1405,1.719
112.1405,1.729
112.1405,1.742
112.1405,1.771
112.1415,1.78
112.1415,1.81
112.1415,1.762
112.1415,1.749
112.1415,1.744
112.1415,1.742
112.1425,1.734
112.1425,1.737
112.1425,1.757
112.1425,1.76
112.1425,1.773
112.1425,1.792
112.1425,1.801
112.1435,1.839
112.1435,1.854
112.1435,1.851
112.1435,1.843
112.1435,1.816
112.1435,1.798
112.1435,1.776
112.1445,1.778
112.1445,1.754
112.1445,1.754
112.1445,1.803
112.1445,1.814
112.1445,1.813
112.1445,1.831
112.1455,1.836
112.1455,1.847
112.1455,1.863
112.1455,1.896
112.1455,1.831
112.1455,1.814
112.1455,1.809
112.1455,1.797
112.1465,1.789
112.1465,1.776
112.1465,1.789
112.1465,1.807
112.1465,1.809
112.1465,1.819
112.1465,1.829
112.1475,1.865
112.1475,1.868
112.1475,1.875
112.1475,1.879
112.1475,1.844
112.1475,1.812
112.1485,1.794
112.1485,1.784
112.1485,1.767
112.1485,1.765
112.1485,1.804
112.1485,1.797
112.1485,1.817
112.1485,1.829
112.1495,1.835
112.1495,1.85
112.1495,1.872
112.1495,1.866
112.1495,1.833
112.1495,1.811
112.1495,1.793
112.1505,1.781
112.1505,1.781
112.1505,1.753
112.1505,1.785
112.1505,1.805
112.1505,1.791
112.1514,1.799
112.1514,1.812
112.1514,1.825
112.1514,1.841
112.1514,1.862
112.1514,1.862
112.1514,1.816
112.1524,1.798
112.1524,1.773
112.1524,1.763
112.1524,1.744
112.1524,1.749
112.1524,1.769
112.1524,1.778
112.1534,1.794
112.1534,1.797
112.1534,1.807
112.1534,1.824
112.1534,1.843
112.1534,1.844
112.1544,1.814
112.1544,1.784
112.1544,1.772
112.1544,1.763
112.1544,1.759
112.1544,1.733
112.1544,1.762
112.1554,1.787
112.1554,1.772
112.1554,1.781
112.1554,1.79
112.1554,1.804
112.1554,1.824
112.1554,1.85
112.1564,1.838
112.1564,1.811
112.1564,1.777
112.1564,1.757
112.1564,1.751
112.1564,1.736
112.1564,1.725
112.1574,1.747
112.1574,1.775
112.1574,1.779
112.1574,1.788
112.1574,1.798
112.1574,1.812
112.1574,1.828
112.1584,1.841
112.1584,1.823
112.1584,1.78
112.1584,1.769
112.1584,1.764
112.1584,1.756
112.1584,1.729
112.1584,1.763
112.1594,1.767
112.1594,1.768
112.1594,1.778
112.1594,1.795
112.1594,1.811
112.1594,1.837
112.1604,1.86
112.1604,1.841
112.1604,1.815
112.1604,1.79
112.1604,1.762
112.1604,1.757
112.1604,1.745
112.1604,1.733
112.1614,1.748
112.1614,1.77
112.1614,1.779
112.1614,1.79
112.1614,1.801
112.1614,1.811
112.1624,1.829
112.1624,1.835
112.1624,1.83
112.1624,1.793
112.1624,1.779
112.1624,1.77
112.1624,1.761
112.1634,1.746
112.1634,1.767
112.1634,1.773
112.1634,1.774
112.1634,1.782
112.1634,1.794
112.1634,1.797
112.1644,1.827
112.1644,1.85
112.1644,1.852
112.1644,1.817
112.1644,1.79
112.1644,1.777
112.1644,1.759
112.1644,1.742
112.1654,1.735
112.1654,1.763
112.1654,1.764
112.1654,1.771
112.1654,1.794
112.1654,1.802
112.1654,1.808
112.1664,1.837
112.1664,1.852
112.1664,1.851
112.1664,1.792
112.1664,1.779
112.1664,1.763
112.1674,1.754
112.1674,1.743
112.1674,1.736
112.1674,1.771
112.1674,1.78
112.1674,1.781
112.1674,1.788
112.1684,1.796
112.1684,1.805
112.1684,1.833
112.1684,1.844
112.1684,1.835
112.1684,1.791
112.1684,1.776
112.1694,1.769
112.1694,1.746
112.1694,1.73
112.1694,1.757
112.1694,1.791
112.1694,1.772
112.1694,1.773
112.1704,1.806
112.1704,1.816
112.1704,1.852
112.1704,1.852
112.1704,1.841
112.1704,1.833
112.1714,1.792
112.1714,1.778
112.1714,1.767
112.1714,1.761
112.1714,1.744
112.1714,1.75
112.1724,1.793
112.1724,1.788
112.1724,1.799
112.1724,1.807
112.1724,1.812
112.1724,1.831
112.1724,1.849
112.1734,1.84
112.1734,1.781
112.1734,1.763
112.1734,1.756
112.1734,1.747
112.1734,1.714
112.1734,1.737
112.1734,1.757
112.1744,1.748
112.1744,1.756
112.1744,1.769
112.1744,1.777
112.1744,1.805
112.1744,1.82
112.1744,1.81
112.1754,1.791
112.1754,1.763
112.1754,1.736
112.1754,1.728
112.1754,1.722
112.1754,1.709
112.1754,1.704
112.1764,1.737
112.1764,1.756
112.1764,1.758
112.1764,1.775
112.1764,1.782
112.1764,1.812
112.1764,1.809
112.1774,1.837
112.1774,1.785
112.1774,1.77
112.1774,1.763
112.1774,1.754
112.1774,1.743
112.1774,1.737
112.1784,1.765
112.1784,1.768
112.1784,1.769
112.1784,1.78
112.1784,1.791
112.1784,1.816
112.1784,1.843
112.1784,1.847
112.1794,1.829
112.1794,1.786
112.1794,1.774
112.1794,1.752
112.1794,1.751
112.1794,1.737
112.1794,1.732
112.1804,1.774
112.1804,1.787
112.1804,1.781
112.1804,1.793
112.1804,1.799
112.1804,1.814
112.1804,1.832
112.1814,1.857
112.1814,1.797
112.1814,1.786
112.1814,1.775
112.1814,1.76
112.1814,1.751
112.1814,1.74
112.1824,1.76
112.1824,1.776
112.1824,1.779
112.1824,1.791
112.1824,1.798
112.1824,1.799
112.1824,1.837
112.1834,1.839
112.1834,1.831
112.1834,1.816
112.1834,1.785
112.1834,1.771
112.1834,1.757
