78.4611,1.888
78.4623,1.827
78.4631,1.746
78.4891,1.671
78.4900,1.592
78.4910,1.542
78.4930,1.546
78.5013,1.575
78.5020,1.628
78.5035,1.703
78.5040,1.776
78.5362,1.86
78.5711,1.963
78.5844,1.938
78.5904,1.892
78.5945,1.833
78.6013,1.677
78.6143,1.597
78.6193,1.546
78.6387,1.532
78.6402,1.546
78.6456,1.574
78.6523,1.703
78.6532,1.777
78.6542,1.862
78.6552,1.935
78.6552,1.968
78.6562,1.972
78.6572,1.947
78.6572,1.846
78.6582,1.765
78.6592,1.692
78.6592,1.613
78.6602,1.559
78.6602,1.542
78.6612,1.583
78.6631,1.637
78.6641,1.709
78.6651,1.785
78.6651,1.868
78.6663,1.943
78.6671,1.982
78.6681,1.959
78.6691,1.92
78.6691,1.862
78.6701,1.781
78.6711,1.709
78.6711,1.629
78.6721,1.554
78.6721,1.564
78.6731,1.591
78.6731,1.643
78.6741,1.713
78.6751,1.79
78.6761,1.948
78.6761,1.987
78.6771,1.993
78.6781,1.97
78.6791,1.933
78.6802,1.875
78.6811,1.723
78.6811,1.641
78.6831,1.582
78.6901,1.562
78.7190,1.569
78.7260,1.595
78.7282,1.712
78.7290,1.79
78.7303,1.871
78.7310,1.95
78.7320,1.991
78.7320,1.997
78.7330,1.976
78.7330,1.883
78.7340,1.802
78.7350,1.73
78.7350,1.648
78.7360,1.586
78.7370,1.562
78.7370,1.593
78.7380,1.642
78.7390,1.707
78.7390,1.785
78.7400,1.865
78.7400,1.944
78.7410,1.997
78.7420,1.976
78.7420,1.941
78.7430,1.883
78.7430,1.805
78.7440,1.733
78.7450,1.587
78.7450,1.561
78.7469,1.565
78.7479,1.59
78.7479,1.638
78.7490,1.699
78.7500,1.781
78.7500,1.937
78.7510,1.983
78.7510,1.993
78.7520,1.976
78.7530,1.943
78.7530,1.885
78.7539,1.737
78.7549,1.654
78.7559,1.586
78.7559,1.559
78.7569,1.56
78.7569,1.585
78.7579,1.629
78.7589,1.773
78.7589,1.848
78.7599,1.93
78.7599,1.979
78.7609,1.992
78.7629,1.975
78.7629,1.888
78.7639,1.812
78.7649,1.739
78.7649,1.656
78.7659,1.587
78.7669,1.558
78.7669,1.557
78.7679,1.623
78.7679,1.684
78.7689,1.766
78.7699,1.841
78.7699,1.925
78.7709,1.976
78.7719,1.975
78.7719,1.946
78.7729,1.889
78.7739,1.817
78.7739,1.743
78.7749,1.662
78.7749,1.59
78.7759,1.555
78.7769,1.578
78.7779,1.618
78.7783,1.677
78.7788,1.761
78.7802,1.835
78.7809,1.973
78.7809,1.99
78.7819,1.979
78.7819,1.949
78.7829,1.893
78.7829,1.823
78.7829,1.749
78.7839,1.595
78.7839,1.559
78.7849,1.554
78.7849,1.577
78.7849,1.615
78.7859,1.673
78.7859,1.832
78.7868,1.916
78.7868,1.972
78.7878,1.99
78.7878,1.98
78.7878,1.953
78.7888,1.898
78.7888,1.754
78.7888,1.672
78.7898,1.599
78.7898,1.561
78.7908,1.554
78.7908,1.577
78.7908,1.67
78.7918,1.752
78.7918,1.825
78.7918,1.911
78.7928,1.972
78.7928,1.992
78.7938,1.982
78.7978,1.903
78.8078,1.837
78.8189,1.759
78.8237,1.679
78.8237,1.603
78.8247,1.562
78.8247,1.576
78.8259,1.609
78.8259,1.666
78.8267,1.749
78.8267,1.821
78.8267,1.907
78.8277,1.994
78.8277,1.985
78.8287,1.959
78.8297,1.907
78.8297,1.842
78.8307,1.763
78.8307,1.685
78.8318,1.565
78.8318,1.555
78.8327,1.574
78.8327,1.606
78.8327,1.662
78.8337,1.743
78.8337,1.901
78.8337,1.966
78.8347,1.991
78.8347,1.989
78.8357,1.962
78.8357,1.911
78.8357,1.768
78.8367,1.69
78.8367,1.612
78.8377,1.565
78.8377,1.553
78.8377,1.571
78.8387,1.602
78.8387,1.735
78.8387,1.81
78.8397,1.893
78.8397,1.961
78.8407,1.988
78.8407,1.985
78.8407,1.91
78.8417,1.847
78.8417,1.768
78.8427,1.69
78.8427,1.609
78.8437,1.561
78.8437,1.548
78.8447,1.593
78.8447,1.65
78.8458,1.726
78.8467,1.799
78.8467,1.883
78.8477,1.953
78.8477,1.983
78.8487,1.959
78.8487,1.915
78.8487,1.854
78.8497,1.773
78.8497,1.698
78.8497,1.616
78.8507,1.552
78.8507,1.566
78.8517,1.595
78.8517,1.65
78.8517,1.724
78.8527,1.798
78.8527,1.954
78.8537,1.988
78.8537,1.988
78.8537,1.964
78.8547,1.922
78.8547,1.862
78.8557,1.779
78.8557,1.624
78.8557,1.569
78.8567,1.552
78.8567,1.564
78.8577,1.591
78.8577,1.645
78.8577,1.794
78.8587,1.877
78.8587,1.951
78.8597,1.986
78.8597,1.991
78.8597,1.967
78.8607,1.926
78.8607,1.784
78.8617,1.71
78.8617,1.628
78.8617,1.571
78.8627,1.552
78.8637,1.562
78.8637,1.641
78.8637,1.712
78.8646,1.79
78.8646,1.871
78.8656,1.948
78.8656,1.985
78.8666,1.99
78.8666,1.929
78.8666,1.87
78.8676,1.788
78.8676,1.717
78.8676,1.633
78.8686,1.573
78.8686,1.553
78.8696,1.588
78.8696,1.638
78.8696,1.706
78.8706,1.784
78.8706,1.866
78.8716,1.944
78.8716,1.991
78.8716,1.969
78.8726,1.933
78.8726,1.874
78.8736,1.793
78.8738,1.722
78.8746,1.64
78.8747,1.553
78.8756,1.559
78.8756,1.585
78.8756,1.634
78.8766,1.7
78.8766,1.779
78.8776,1.939
78.8776,1.983
78.8786,1.992
78.8787,1.972
78.8796,1.938
78.8796,1.881
78.8796,1.803
78.8806,1.644
78.8806,1.578
78.8816,1.554
78.8816,1.557
78.8816,1.582
78.8826,1.631
78.8826,1.775
78.8836,1.851
78.8836,1.928
78.8836,1.967
78.8846,1.971
78.8846,1.947
78.8846,1.906
78.8856,1.76
78.8856,1.68
78.8866,1.591
78.8866,1.517
78.8866,1.486
78.8876,1.485
78.8876,1.553
78.8886,1.628
78.8886,1.738
78.8886,1.832
78.8898,1.915
78.8898,1.957
78.8906,1.969
78.8906,1.942
78.8916,1.896
78.8916,1.84
78.8916,1.788
78.8926,1.712
78.8926,1.642
78.8936,1.608
78.8936,1.632
78.8936,1.676
78.8946,1.737
78.8946,1.817
78.8956,1.89
78.8968,1.972
78.8985,2.034
78.8985,2.015
78.9013,1.982
78.9023,1.922
78.9033,1.846
78.9053,1.769
78.9063,1.682
78.9142,1.574
78.9192,1.569
78.9292,1.589
78.9332,1.627
78.9342,1.684
78.9342,1.766
78.9352,1.925
78.9352,1.978
78.9362,1.994
78.9362,1.979
78.9362,1.951
78.9372,1.894
78.9372,1.822
78.9382,1.666
78.9382,1.592
78.9392,1.557
78.9392,1.553
78.9402,1.575
78.9402,1.613
78.9402,1.754
78.9412,1.828
78.9412,1.912
78.9422,1.968
78.9422,1.986
78.9422,1.978
78.9432,1.948
78.9432,1.823
78.9442,1.747
78.9452,1.664
78.9472,1.591
78.9481,1.552
78.9491,1.546
78.9513,1.605
78.9522,1.664
78.9532,1.747
78.9553,1.822
78.9562,1.907
78.9584,1.965
78.9593,1.985
78.9602,1.949
78.9621,1.894
78.9631,1.826
78.9641,1.749
78.9668,1.669
78.9676,1.593
78.9676,1.545
78.9701,1.566
78.9709,1.6
78.9720,1.658
78.9742,1.741
78.9750,1.814
78.9760,1.9
78.9781,1.982
78.9789,1.974
78.9799,1.95
78.9832,1.898
78.9832,1.832
78.9854,1.753
78.9862,1.598
78.9872,1.554
78.9894,1.545
78.9902,1.565
78.9912,1.597
78.9942,1.655
78.9952,1.734
78.9952,1.894
78.9973,1.959
78.9984,1.984
78.9992,1.976
79.0014,1.952
79.0022,1.901
79.0032,1.758
79.0054,1.68
79.0062,1.601
79.0072,1.555
79.0101,1.544
79.0101,1.562
79.0121,1.592
79.0132,1.729
79.0141,1.802
79.0168,1.888
79.0174,1.955
79.0228,1.982
79.0334,1.981
79.0434,1.956
79.0483,1.843
79.0483,1.762
79.0493,1.685
79.0493,1.606
79.0493,1.556
79.0505,1.543
79.0505,1.589
79.0514,1.645
79.0514,1.722
79.0524,1.798
79.0524,1.882
79.0524,1.951
79.0534,1.98
79.0534,1.954
79.0534,1.907
79.0544,1.845
79.0544,1.764
79.0554,1.689
79.0554,1.607
79.0554,1.54
79.0564,1.555
79.0564,1.583
79.0564,1.638
79.0574,1.713
79.0574,1.787
79.0584,1.872
79.0584,1.974
79.0594,1.975
79.0604,1.95
79.0613,1.906
79.0633,1.846
79.0643,1.762
79.0668,1.607
79.0673,1.552
79.0683,1.535
79.0703,1.546
79.0713,1.574
79.0723,1.628
79.0744,1.7
79.0753,1.859
79.0763,1.932
79.0788,1.966
79.0788,1.967
79.0798,1.943
79.0822,1.902
79.0828,1.759
79.0850,1.686
79.0860,1.604
79.0868,1.544
79.0901,1.526
79.0901,1.537
79.0912,1.563
79.0941,1.687
79.0941,1.764
79.0951,1.847
79.0972,1.924
79.0981,1.961
79.0991,1.967
79.1015,1.943
79.1015,1.844
79.1026,1.761
79.1067,1.688
79.1067,1.606
79.1090,1.547
79.1090,1.526
79.1122,1.561
79.1131,1.682
79.1152,1.761
79.1160,1.843
79.1170,1.961
79.1202,1.967
79.1202,1.945
79.1213,1.909
79.1236,1.85
79.1236,1.769
79.1246,1.697
79.1306,1.553
79.1347,1.53
79.1509,1.537
79.1557,1.564
79.1567,1.615
79.1567,1.681
79.1577,1.843
79.1577,1.924
79.1587,1.965
79.1588,1.975
79.1588,1.954
79.1599,1.92
79.1599,1.861
79.1599,1.711
79.1609,1.628
79.1609,1.563
79.1618,1.54
79.1630,1.544
79.1630,1.569
79.1640,1.683
79.1640,1.765
79.1640,1.845
79.1651,1.927
79.1651,1.973
79.1661,1.985
79.1661,1.964
79.1661,1.873
79.1671,1.796
79.1671,1.724
79.1681,1.642
79.1681,1.574
79.1691,1.547
79.1712,1.574
79.1712,1.621
79.1741,1.686
79.1741,1.769
79.1754,1.847
79.1774,1.93
79.1784,1.977
79.1798,1.975
79.1814,1.94
79.1824,1.882
79.1846,1.806
79.1846,1.733
79.1854,1.651
79.1892,1.552
79.1892,1.552
79.1902,1.575
79.1924,1.62
79.1932,1.68
79.1942,1.765
79.1974,1.842
79.1976,1.975
79.1976,1.988
79.2004,1.973
79.2014,1.942
79.2014,1.885
79.2048,1.81
79.2056,1.654
79.2056,1.584
79.2087,1.553
79.2089,1.551
79.2113,1.574
79.2123,1.617
79.2133,1.676
79.2153,1.835
79.2163,1.92
79.2173,1.973
79.2195,1.988
79.2205,1.974
79.2215,1.945
79.2235,1.815
79.2235,1.741
79.2245,1.659
79.2273,1.588
79.2283,1.554
79.2293,1.55
79.2315,1.573
79.2324,1.669
79.2343,1.754
79.2353,1.829
79.2363,1.915
79.2375,1.971
79.2436,1.99
79.2609,1.948
79.2649,1.892
79.2661,1.821
79.2670,1.746
79.2670,1.664
79.2670,1.59
79.2681,1.553
79.2681,1.569
79.2691,1.606
79.2691,1.664
79.2691,1.749
79.2701,1.822
79.2701,1.909
79.2711,1.987
79.2711,1.979
79.2711,1.95
79.2722,1.894
79.2722,1.825
79.2722,1.75
79.2732,1.594
79.2732,1.554
79.2732,1.547
79.2742,1.568
79.2742,1.603
79.2752,1.66
79.2752,1.818
79.2752,1.904
79.2774,1.966
79.2785,1.987
79.2804,1.979
79.2812,1.953
79.2822,1.899
79.2845,1.756
79.2854,1.675
79.2873,1.599
79.2883,1.556
79.2895,1.547
79.2922,1.568
79.2922,1.658
79.2932,1.739
79.2954,1.813
79.2966,1.899
79.2966,1.964
79.2996,1.987
79.3006,1.955
79.3033,1.904
79.3033,1.838
79.3043,1.76
79.3066,1.682
79.3071,1.605
79.3077,1.549
79.3111,1.568
79.3123,1.598
79.3124,1.653
79.3145,1.736
79.3154,1.808
79.3163,1.895
79.3188,1.99
79.3188,1.983
79.3222,1.959
79.3222,1.91
79.3232,1.847
79.3256,1.766
79.3256,1.61
79.3274,1.562
79.3298,1.55
79.3304,1.567
79.3314,1.598
79.3335,1.653
79.3335,1.805
79.3345,1.891
79.3382,1.961
79.3382,1.989
79.3404,1.988
79.3412,1.964
79.3422,1.915
79.3449,1.77
79.3449,1.694
79.3509,1.614
79.3601,1.566
79.3724,1.552
79.3735,1.565
79.3735,1.65
79.3745,1.725
79.3745,1.8
79.3745,1.885
79.3756,1.957
79.3756,1.987
79.3756,1.963
79.3767,1.919
79.3767,1.858
79.3776,1.775
79.3776,1.7
79.3787,1.619
79.3796,1.551
79.3796,1.565
79.3796,1.592
79.3808,1.647
79.3808,1.721
79.3808,1.796
79.3819,1.88
79.3819,1.987
79.3819,1.99
79.3828,1.965
79.3828,1.922
79.3839,1.862
79.3839,1.777
79.3861,1.622
79.3872,1.567
79.3882,1.55
79.3902,1.561
79.3913,1.587
79.3924,1.639
79.3942,1.711
79.3951,1.87
79.3969,1.946
79.3983,1.984
79.3993,1.988
79.4012,1.963
79.4027,1.923
79.4029,1.78
79.4049,1.707
79.4062,1.625
79.4072,1.566
79.4093,1.547
79.4103,1.558
79.4113,1.584
79.4135,1.706
79.4137,1.784
79.4146,1.867
79.4173,1.945
79.4183,1.983
79.4203,1.991
79.4213,1.931
79.4223,1.873
79.4243,1.79
79.4253,1.718
79.4263,1.633
79.4273,1.575
79.4293,1.552
79.4304,1.586
79.4315,1.637
79.4334,1.704
79.4344,1.783
79.4354,1.864
79.4376,1.944
79.4376,1.993
79.4396,1.971
79.4417,1.934
79.4417,1.876
79.4437,1.796
79.4447,1.723
79.4467,1.64
79.4477,1.554
79.4556,1.56
79.4706,1.586
79.4837,1.634
79.4876,1.699
79.4881,1.779
79.4886,1.939
79.4886,1.983
79.4886,1.993
79.4896,1.975
79.4902,1.939
79.4905,1.881
79.4905,1.801
79.4905,1.646
79.4915,1.58
79.4915,1.555
79.4925,1.559
79.4925,1.583
79.4925,1.63
79.4935,1.695
79.4935,1.853
79.4935,1.936
79.4945,1.985
79.4945,1.998
79.4957,1.977
79.4966,1.944
79.4973,1.809
79.4975,1.736
79.4975,1.664
79.4985,1.584
79.4985,1.556
79.4985,1.557
79.4995,1.583
79.4995,1.692
79.5005,1.77
79.5005,1.848
79.5005,1.931
79.5015,1.982
79.5015,1.994
79.5025,1.95
79.5025,1.889
79.5025,1.814
79.5055,1.74
79.5065,1.656
79.5065,1.597
79.5093,1.559
79.5103,1.583
79.5113,1.626
79.5133,1.688
79.5143,1.775
79.5153,1.847
79.5174,1.928
79.5183,1.996
79.5193,1.983
79.5213,1.953
79.5223,1.897
79.5243,1.822
79.5253,1.747
79.5263,1.661
79.5285,1.546
79.5293,1.535
79.5303,1.552
79.5322,1.587
79.5333,1.643
79.5342,1.72
79.5362,1.861
79.5372,1.912
79.5382,1.928
79.5404,1.915
79.5412,1.879
79.5422,1.824
79.5442,1.761
79.5452,1.65
79.5473,1.583
79.5484,1.544
79.5494,1.536
79.5513,1.558
79.5523,1.613
79.5533,1.788
79.5553,1.884
79.5563,1.983
79.5575,2.042
79.5593,2.069
79.5603,2.046
79.5613,2.018
79.5633,1.893
79.5643,1.814
79.5695,1.725
79.5796,1.65
79.5930,1.612
79.5944,1.601
79.5970,1.62
79.5981,1.708
79.5981,1.787
79.5991,1.858
79.5993,1.94
79.6000,1.997
79.6000,2.015
79.6020,1.983
79.6020,1.917
79.6020,1.847
79.6030,1.767
79.6030,1.686
79.6042,1.614
79.6042,1.571
79.6042,1.579
79.6052,1.613
79.6052,1.67
79.6062,1.754
79.6062,1.829
79.6072,1.911
79.6072,1.995
79.6082,1.989
79.6104,1.962
79.6112,1.911
79.6112,1.843
79.6121,1.764
79.6121,1.685
79.6131,1.562
79.6138,1.552
79.6141,1.571
79.6152,1.605
79.6152,1.662
79.6167,1.742
79.6173,1.898
79.6173,1.963
79.6183,1.989
79.6203,1.985
79.6208,1.96
79.6221,1.909
79.6251,1.844
79.6251,1.686
79.6262,1.608
79.6285,1.561
79.6294,1.55
79.6315,1.568
79.6315,1.599
79.6335,1.735
79.6335,1.808
79.6364,1.893
79.6372,1.96
79.6437,1.995
79.6444,1.986
79.6456,1.961
79.6466,1.851
79.6466,1.769
79.6476,1.695
79.6476,1.619
79.6476,1.562
79.6486,1.549
79.6512,1.595
79.6525,1.651
79.6542,1.73
79.6552,1.803
79.6562,1.886
79.6574,1.957
79.6593,1.986
79.6604,1.97
79.6614,1.917
79.6633,1.856
79.6645,1.773
79.6656,1.698
79.6676,1.617
79.6676,1.549
79.6695,1.564
79.6708,1.593
79.6718,1.65
79.6767,1.724
79.6787,1.803
79.6837,1.882
79.6992,1.987
79.7042,1.988
79.7073,1.964
79.7073,1.922
79.7073,1.861
79.7085,1.779
79.7085,1.622
79.7094,1.566
79.7105,1.55
79.7113,1.562
79.7124,1.591
79.7133,1.646
79.7133,1.719
79.7143,1.875
79.7143,1.947
79.7143,1.984
79.7153,1.987
79.7153,1.964
79.7153,1.924
79.7163,1.781
79.7163,1.708
79.7173,1.625
79.7173,1.567
79.7173,1.548
79.7184,1.559
79.7185,1.584
79.7185,1.71
79.7195,1.787
79.7195,1.869
79.7195,1.944
79.7206,1.984
79.7206,1.989
79.7215,1.924
79.7215,1.865
79.7240,1.782
79.7265,1.71
79.7265,1.636
79.7284,1.565
79.7297,1.544
79.7297,1.578
79.7317,1.629
79.7326,1.699
79.7336,1.775
79.7360,1.858
79.7370,1.935
79.7390,1.974
79.7410,1.967
79.7410,1.92
79.7433,1.861
79.7443,1.779
79.7454,1.706
79.7474,1.622
79.7484,1.536
79.7494,1.542
79.7514,1.567
79.7523,1.617
79.7533,1.684
79.7556,1.766
79.7563,1.843
79.7573,1.963
79.7594,1.971
79.7604,1.949
79.7617,1.916
79.7634,1.858
79.7644,1.778
79.7656,1.623
79.7678,1.557
79.7687,1.532
79.7708,1.535
79.7708,1.562
79.7716,1.611
79.7740,1.676
79.7751,1.837
79.7793,1.914
79.7848,1.961
79.7933,1.971
79.8036,1.952
79.8086,1.919
79.8096,1.712
79.8105,1.631
79.8110,1.562
79.8128,1.536
79.8136,1.563
79.8145,1.61
79.8155,1.674
79.8167,1.756
79.8177,1.835
79.8187,1.917
79.8197,1.967
79.8197,1.959
79.8207,1.929
79.8207,1.871
79.8207,1.796
79.8217,1.724
79.8228,1.656
79.8230,1.545
79.8238,1.545
79.8238,1.569
79.8248,1.614
79.8254,1.678
79.8258,1.76
79.8268,1.923
79.8288,1.973
79.8288,1.987
79.8298,1.983
79.8298,1.946
79.8309,1.886
79.8309,1.739
79.8309,1.656
79.8321,1.595
79.8321,1.556
79.8328,1.553
79.8328,1.578
79.8338,1.621
79.8338,1.771
79.8350,1.842
79.8360,1.926
79.8383,1.979
79.8393,1.995
79.8405,1.981
79.8423,1.897
79.8433,1.824
79.8445,1.751
79.8466,1.669
79.8476,1.597
79.8485,1.562
79.8503,1.581
79.8513,1.622
79.8533,1.681
79.8543,1.766
79.8553,1.841
79.8577,1.921
79.8577,1.998
79.8585,1.986
79.8615,1.958
79.8625,1.902
79.8635,1.83
79.8655,1.757
79.8665,1.675
79.8675,1.565
79.8695,1.56
79.8705,1.581
79.8715,1.618
79.8735,1.676
79.8745,1.76
79.8757,1.921
79.8775,1.979
79.8800,2.006
79.8805,1.987
79.8815,1.96
79.8825,1.906
79.8845,1.762
79.8845,1.684
79.8867,1.61
79.8876,1.567
79.8886,1.559
79.8946,1.579
79.9107,1.673
79.9287,1.756
79.9340,1.83
79.9346,1.916
79.9357,1.976
79.9389,1.997
79.9398,1.996
79.9398,1.91
79.9398,1.843
79.9408,1.767
79.9408,1.686
79.9418,1.614
79.9418,1.575
79.9431,1.578
79.9431,1.61
79.9441,1.667
79.9441,1.75
79.9460,1.826
79.9470,1.909
79.9470,1.996
79.9480,1.99
79.9486,1.964
79.9490,1.915
79.9490,1.847
79.9500,1.769
79.9500,1.691
79.9510,1.568
79.9510,1.558
79.9520,1.575
79.9530,1.609
79.9540,1.665
79.9540,1.746
79.9555,1.9
79.9560,1.968
79.9570,1.994
79.9590,1.991
79.9610,1.965
79.9620,1.915
79.9630,1.85
79.9640,1.695
79.9650,1.617
79.9660,1.57
79.9670,1.558
79.9681,1.575
79.9681,1.605
79.9690,1.661
79.9690,1.814
79.9700,1.901
79.9700,1.968
79.9710,2.0
79.9710,1.996
79.9720,1.969
79.9720,1.859
79.9730,1.778
79.9730,1.705
79.9730,1.632
79.9740,1.573
79.9740,1.559
79.9750,1.603
79.9750,1.658
79.9760,1.735
79.9770,1.808
79.9780,1.895
79.9790,1.965
79.9800,1.995
79.9800,1.984
79.9810,1.925
79.9834,1.864
79.9839,1.782
79.9859,1.708
79.9879,1.627
79.9879,1.562
79.9900,1.574
79.9915,1.601
79.9922,1.655
79.9941,1.73
80.0012,1.81
80.0140,1.889
80.0280,1.996
80.0333,1.999
80.0340,1.974
80.0350,1.933
80.0352,1.871
80.0360,1.789
80.0380,1.633
80.0389,1.579
80.0389,1.562
80.0399,1.573
80.0399,1.602
80.0409,1.654
80.0409,1.725
80.0419,1.883
80.0419,1.956
80.0419,1.996
80.0430,2.0
80.0439,1.976
80.0439,1.934
80.0439,1.875
80.0456,1.72
80.0459,1.639
80.0503,1.582
80.0509,1.564
80.0509,1.574
80.0509,1.598
80.0519,1.723
80.0519,1.799
80.0529,1.881
80.0529,1.957
80.0529,1.999
80.0539,2.004
80.0539,1.978
80.0549,1.881
80.0549,1.799
80.0559,1.727
80.0559,1.657
80.0569,1.586
80.0576,1.565
80.0579,1.598
80.0589,1.649
80.0599,1.721
80.0599,1.793
80.0610,1.877
80.0619,1.954
80.0629,2.002
80.0639,1.995
80.0642,1.945
80.0649,1.886
80.0659,1.805
80.0669,1.731
80.0669,1.647
80.0680,1.562
80.0690,1.57
80.0710,1.594
80.0725,1.642
80.0740,1.706
80.0760,1.789
80.0770,1.945
80.0781,1.987
80.0790,1.998
80.0800,1.976
80.0820,1.946
80.0830,1.886
80.0842,1.735
80.0862,1.652
80.0872,1.589
80.0882,1.564
80.0904,1.569
80.0913,1.594
80.0922,1.708
80.0942,1.79
80.0952,1.866
80.0972,1.942
80.0982,1.993
80.0992,2.005
80.1013,1.985
80.1024,1.896
80.1034,1.817
80.1049,1.747
80.1059,1.663
80.1141,1.598
80.1439,1.571
80.1469,1.596
80.1510,1.641
80.1519,1.704
80.1519,1.785
80.1529,1.863
80.1529,1.945
80.1529,2.009
80.1539,1.989
80.1539,1.957
80.1539,1.901
80.1548,1.826
80.1548,1.751
80.1558,1.67
80.1558,1.574
80.1558,1.573
80.1568,1.598
80.1568,1.64
80.1568,1.7
80.1578,1.784
80.1578,1.942
80.1578,1.992
80.1588,2.009
80.1588,1.995
80.1588,1.964
80.1598,1.905
80.1598,1.761
80.1608,1.676
80.1608,1.607
80.1608,1.577
80.1622,1.574
80.1628,1.598
80.1628,1.697
80.1638,1.782
80.1638,1.857
80.1638,1.94
80.1648,1.993
80.1648,2.009
80.1648,1.968
80.1658,1.909
80.1658,1.84
80.1658,1.764
80.1668,1.682
80.1668,1.612
80.1689,1.578
80.1698,1.598
80.1708,1.637
80.1728,1.696
80.1738,1.78
80.1748,1.853
80.1768,1.936
80.1778,2.009
80.1798,1.998
80.1808,1.97
80.1825,1.915
80.1838,1.846
80.1848,1.773
80.1858,1.62
80.1878,1.584
80.1888,1.576
80.1898,1.598
80.1917,1.635
80.1927,1.694
80.1947,1.777
80.1964,1.936
80.1967,1.992
80.1987,2.014
80.1997,1.998
80.2008,1.967
80.2027,1.906
80.2037,1.753
80.2047,1.667
80.2067,1.592
80.2077,1.547
80.2097,1.535
80.2107,1.549
80.2117,1.631
80.2137,1.713
80.2147,1.787
80.2157,1.876
80.2197,1.964
80.2257,2.008
80.2360,1.976
80.2374,1.917
80.2396,1.849
80.2396,1.781
80.2396,1.711
80.2406,1.653
80.2406,1.634
80.2406,1.669
80.2406,1.697
80.2416,1.746
80.2416,1.824
80.2416,1.895
80.2416,1.977
80.2426,2.064
80.2426,2.057
80.2426,2.03
80.2426,1.976
80.2436,1.907
80.2446,1.825
80.2456,1.661
80.2476,1.614
80.2486,1.604
80.2496,1.617
80.2517,1.647
80.2526,1.701
80.2536,1.846
80.2556,1.921
80.2566,1.984
80.2576,2.017
80.2596,2.013
80.2606,1.988
80.2626,1.939
80.2636,1.792
80.2646,1.719
80.2665,1.642
80.2675,1.596
80.2685,1.583
80.2706,1.601
80.2715,1.686
80.2725,1.763
80.2745,1.836
80.2755,1.919
80.2765,1.987
80.2785,2.013
80.2805,1.986
80.2815,1.94
80.2825,1.878
80.2837,1.8
80.2857,1.724
80.2871,1.671
80.2881,1.585
80.2901,1.599
80.2911,1.628
80.2921,1.683
80.2941,1.76
80.2954,1.831
80.2961,1.914
80.2981,2.014
80.2991,2.015
80.3010,1.996
80.3021,1.956
80.3031,1.885
80.3051,1.805
80.3061,1.65
80.3072,1.599
80.3093,1.597
80.3102,1.598
80.3112,1.625
80.3135,1.68
80.3135,1.829
80.3166,1.907
80.3171,1.97
80.3175,2.013
80.3211,2.018
80.3211,1.993
80.3221,1.952
80.3245,1.809
80.3281,1.733
80.3385,1.658
80.3548,1.603
80.3576,1.587
80.3576,1.599
80.3576,1.68
80.3576,1.751
80.3576,1.825
80.3586,1.907
80.3586,1.981
80.3586,2.014
80.3586,2.001
80.3586,1.957
80.3597,1.898
80.3597,1.817
80.3597,1.745
80.3597,1.681
80.3597,1.589
80.3607,1.598
80.3607,1.625
80.3612,1.677
80.3617,1.746
80.3617,1.828
80.3627,1.901
80.3627,2.015
80.3627,2.022
80.3627,1.998
80.3627,1.969
80.3637,1.905
80.3637,1.823
80.3661,1.67
80.3671,1.612
80.3681,1.593
80.3701,1.599
80.3711,1.623
80.3732,1.675
80.3738,1.818
80.3747,1.897
80.3771,1.966
80.3777,2.009
80.3791,2.021
80.3812,1.999
80.3819,1.965
80.3829,1.825
80.3855,1.751
80.3889,1.672
80.3928,1.612
80.3938,1.589
80.3938,1.595
80.3949,1.671
80.3951,1.733
80.3951,1.811
80.3959,1.89
80.3970,1.969
80.3978,2.01
80.3999,2.022
80.4008,1.965
80.4018,1.907
80.4038,1.829
80.4048,1.757
80.4058,1.675
80.4083,1.643
80.4108,1.591
80.4158,1.615
80.4158,1.661
80.4178,1.724
80.4178,1.802
80.4178,1.873
80.4178,1.958
80.4188,2.013
80.4202,1.995
80.4212,1.961
80.4233,1.911
80.4242,1.826
80.4248,1.757
80.4269,1.609
80.4278,1.583
80.4290,1.585
80.4318,1.609
80.4377,1.655
80.4389,1.715
80.4447,1.797
80.4527,1.95
80.4547,1.992
80.4558,2.01
80.4570,1.994
80.4628,1.963
80.4637,1.907
80.4647,1.833
80.4647,1.679
80.4647,1.613
80.4647,1.585
80.4657,1.586
80.4657,1.61
80.4657,1.655
80.4657,1.795
80.4667,1.871
80.4667,1.951
80.4667,2.015
80.4673,1.97
80.4677,1.917
80.4677,1.846
80.4677,1.774
80.4677,1.692
80.4687,1.643
80.4687,1.602
80.4697,1.616
80.4723,1.656
80.4734,1.716
80.4734,1.805
80.4763,1.87
80.4773,1.957
80.4784,2.025
80.4803,2.015
80.4814,1.985
80.4814,1.935
80.4853,1.858
80.4913,1.79
80.4923,1.708
80.4933,1.606
80.4933,1.602
80.4933,1.628
80.4933,1.667
80.4943,1.726
80.4943,1.809
80.4963,1.966
80.4973,2.013
80.4984,2.04
80.5003,2.028
80.5013,2.001
80.5033,1.947
80.5043,1.88
80.5053,1.722
80.5073,1.654
80.5083,1.621
80.5092,1.616
80.5116,1.64
80.5122,1.675
80.5132,1.812
80.5153,1.888
80.5162,1.97
80.5183,2.027
80.5193,2.049
80.5204,2.05
80.5215,2.03
80.5322,1.893
80.5322,1.818
80.5352,1.74
80.5382,1.669
80.5502,1.648
80.5543,1.622
80.5582,1.677
80.5791,1.734
80.5831,1.815
80.5891,1.881
80.5991,1.965
80.5991,2.031
80.6011,2.052
80.6011,2.02
80.6023,1.967
80.6023,1.891
80.6031,1.825
80.6034,1.748
80.6041,1.672
80.6041,1.625
80.6041,1.644
80.6051,1.675
80.6051,1.732
80.6051,1.812
80.6060,1.884
80.6060,1.967
80.6060,2.053
80.6070,2.046
80.6070,2.021
80.6070,1.971
80.6082,1.908
80.6082,1.83
80.6082,1.742
80.6092,1.634
80.6092,1.623
80.6092,1.641
80.6103,1.673
80.6103,1.733
80.6103,1.806
80.6111,1.962
80.6111,2.025
80.6121,2.052
80.6132,2.047
80.6132,2.049
80.6132,1.973
80.6143,1.913
80.6143,1.758
80.6143,1.68
80.6153,1.645
80.6153,1.628
80.6153,1.64
80.6163,1.67
80.6163,1.801
80.6163,1.869
80.6173,1.945
80.6173,2.021
80.6183,2.049
80.6183,2.048
80.6193,1.976
80.6193,1.906
80.6193,1.834
80.6207,1.763
80.6214,1.684
80.6214,1.636
80.6224,1.623
80.6224,1.667
80.6224,1.721
80.6234,1.795
80.6234,1.868
80.6234,1.95
80.6244,2.018
80.6247,2.049
80.6254,2.023
80.6254,1.98
80.6254,1.921
80.6265,1.841
80.6270,1.766
80.6270,1.637
80.6290,1.625
80.6295,1.638
80.6310,1.666
80.6330,1.72
80.6340,1.794
80.6350,1.947
80.6374,2.017
80.6384,2.05
80.6384,2.052
80.6412,2.041
80.6419,1.994
80.6431,1.926
80.6455,1.777
80.6460,1.695
80.6479,1.642
80.6491,1.632
80.6501,1.636
80.6539,1.665
80.6623,1.787
80.6736,1.861
80.6774,1.94
80.6777,2.009
80.6784,2.051
80.6785,2.055
80.6797,1.992
80.6804,1.936
80.6804,1.85
80.6814,1.782
80.6814,1.701
80.6814,1.647
80.6824,1.629
80.6824,1.665
80.6834,1.716
80.6837,1.784
80.6837,1.859
80.6844,1.94
80.6844,2.015
80.6844,2.064
80.6855,2.032
80.6855,1.996
80.6864,1.938
80.6864,1.858
80.6864,1.788
80.6864,1.649
80.6874,1.629
80.6894,1.637
80.6910,1.663
80.6926,1.713
80.6944,1.78
80.6954,1.854
80.6964,2.009
80.6984,2.047
80.6984,2.055
80.7013,2.036
80.7023,1.997
80.7034,1.94
80.7053,1.79
80.7063,1.707
80.7073,1.648
80.7095,1.625
80.7103,1.631
80.7113,1.656
80.7133,1.769
80.7142,1.848
80.7154,1.925
80.7164,2.003
80.7174,2.044
80.7204,2.053
80.7214,2.0
80.7224,1.944
80.7244,1.867
80.7254,1.797
80.7254,1.715
80.7277,1.653
80.7286,1.631
80.7295,1.659
80.7323,1.707
80.7333,1.769
80.7343,1.849
80.7362,1.925
80.7371,2.003
80.7393,2.058
80.7403,2.039
80.7413,2.006
80.7424,1.95
80.7446,1.874
80.7454,1.803
80.7476,1.721
80.7485,1.633
80.7485,1.635
80.7515,1.661
80.7515,1.704
80.7525,1.765
80.7551,1.845
80.7561,2.002
80.7571,2.047
80.7595,2.063
80.7595,2.042
80.7646,2.012
80.7797,1.956
80.7838,1.881
80.7838,1.729
80.7847,1.661
80.7847,1.634
80.7847,1.635
80.7857,1.659
80.7857,1.701
80.7857,1.761
80.7867,1.916
80.7867,1.997
80.7867,2.045
80.7877,2.059
80.7879,2.046
80.7879,2.016
80.7879,1.887
80.7889,1.816
80.7889,1.734
80.7889,1.666
80.7899,1.636
80.7899,1.634
80.7909,1.658
80.7930,1.757
80.7947,1.839
80.7947,1.913
80.7971,1.993
80.7988,2.044
80.7988,2.058
80.8015,2.017
80.8015,1.963
80.8025,1.892
80.8050,1.82
80.8060,1.739
80.8070,1.668
80.8097,1.637
80.8098,1.656
80.8116,1.695
80.8126,1.752
80.8136,1.834
80.8164,1.906
80.8174,1.989
80.8174,2.06
80.8203,2.047
80.8210,2.021
80.8218,1.967
80.8244,1.899
80.8250,1.826
80.8258,1.747
80.8283,1.641
80.8293,1.635
80.8303,1.655
80.8325,1.694
80.8325,1.749
80.8335,1.831
80.8355,1.985
80.8375,2.042
80.8386,2.062
80.8407,2.047
80.8407,2.014
80.8433,1.955
80.8438,1.883
80.8448,1.715
80.8475,1.642
80.8485,1.596
80.8485,1.581
80.8514,1.596
80.8523,1.625
80.8533,1.757
80.8555,1.818
80.8555,1.904
80.8566,1.973
80.8595,2.018
80.8595,2.03
80.8625,2.017
80.8635,1.883
80.8635,1.808
80.8658,1.746
80.8669,1.681
80.8679,1.658
80.8687,1.668
80.8715,1.7
80.8715,1.788
80.8745,1.864
80.8750,1.935
80.8755,2.015
80.8786,2.081
80.8786,2.102
80.8796,2.069
80.8826,2.02
80.8826,1.953
80.8866,1.875
80.8886,1.794
80.8988,1.712
80.9080,1.669
80.9090,1.67
80.9090,1.699
80.9100,1.752
80.9100,1.828
80.9100,1.895
80.9100,1.973
80.9110,2.059
80.9117,2.056
80.9120,2.028
80.9130,1.979
80.9130,1.916
80.9130,1.837
80.9141,1.763
80.9141,1.641
80.9141,1.63
80.9150,1.645
80.9150,1.675
80.9150,1.73
80.9160,1.805
80.9163,1.959
80.9174,2.025
80.9174,2.056
80.9204,2.057
80.9214,2.021
80.9214,1.975
80.9239,1.915
80.9246,1.761
80.9256,1.688
80.9276,1.636
80.9299,1.623
80.9299,1.639
80.9326,1.667
80.9326,1.801
80.9336,1.865
80.9360,1.949
80.9370,2.018
80.9391,2.047
80.9405,2.045
80.9405,2.039
80.9425,1.919
80.9439,1.838
80.9455,1.765
80.9469,1.684
80.9485,1.64
80.9485,1.622
80.9514,1.663
80.9521,1.715
80.9531,1.787
80.9551,1.862
80.9561,1.939
80.9571,2.013
80.9594,2.043
80.9607,2.022
80.9612,1.981
80.9634,1.92
80.9634,1.84
80.9665,1.768
80.9675,1.688
80.9688,1.636
80.9695,1.63
80.9715,1.657
80.9715,1.711
80.9746,1.78
80.9755,1.856
80.9766,1.936
80.9782,2.042
80.9788,2.045
80.9799,2.021
80.9821,1.982
80.9831,1.925
80.9881,1.843
81.0042,1.77
81.0072,1.637
81.0114,1.619
81.0135,1.629
81.0144,1.654
81.0144,1.705
81.0144,1.773
81.0156,1.928
81.0156,2.001
81.0156,2.039
81.0166,2.058
81.0166,2.021
81.0166,1.984
81.0176,1.927
81.0176,1.777
81.0185,1.699
81.0188,1.639
81.0195,1.618
81.0205,1.627
81.0217,1.651
81.0217,1.769
81.0226,1.846
81.0226,1.922
81.0226,1.996
81.0236,2.037
81.0236,2.043
81.0236,2.031
81.0246,1.926
81.0246,1.848
81.0246,1.778
81.0256,1.697
81.0283,1.64
81.0296,1.616
81.0302,1.646
81.0324,1.694
81.0330,1.758
81.0338,1.835
81.0361,1.913
81.0368,1.992
81.0392,2.033
81.0403,2.02
81.0412,1.984
81.0434,1.928
81.0445,1.85
81.0455,1.779
81.0475,1.696
81.0484,1.634
81.0504,1.614
81.0513,1.637
81.0523,1.683
81.0533,1.745
81.0550,1.824
81.0563,1.9
81.0573,2.022
81.0593,2.032
81.0602,2.012
81.0612,1.979
81.0633,1.922
81.0642,1.845
81.0665,1.774
81.0672,1.628
81.0682,1.601
81.0703,1.603
81.0711,1.627
81.0723,1.671
81.0744,1.732
81.0753,1.888
81.0763,1.968
81.0783,2.015
81.0793,2.029
81.0803,2.009
81.0814,1.976
81.0834,1.92
81.0836,1.774
81.0865,1.692
81.0865,1.626
81.0875,1.597
81.0904,1.598
81.0904,1.622
81.0934,1.725
81.0944,1.807
81.0944,1.88
81.0974,1.961
81.0984,2.009
81.0984,2.022
81.1031,2.009
81.1044,1.92
81.1128,1.85
81.1235,1.778
81.1263,1.698
81.1265,1.631
81.1265,1.598
81.1275,1.596
81.1275,1.662
81.1285,1.72
81.1285,1.803
81.1298,1.877
81.1298,1.957
81.1298,2.01
81.1309,2.012
81.1309,1.984
81.1318,1.928
81.1318,1.859
81.1318,1.787
81.1328,1.706
81.1328,1.636
81.1328,1.601
81.1328,1.664
81.1338,1.723
81.1351,1.806
81.1361,1.959
81.1371,2.013
81.1393,2.032
81.1402,2.021
81.1412,1.993
81.1435,1.939
81.1435,1.794
81.1456,1.717
81.1466,1.647
81.1476,1.612
81.1498,1.606
81.1509,1.631
81.1517,1.667
81.1545,1.804
81.1549,1.876
81.1556,1.959
81.1577,2.016
81.1587,2.041
81.1597,2.036
81.1623,1.945
81.1627,1.878
81.1639,1.803
81.1662,1.725
81.1672,1.663
81.1695,1.614
81.1705,1.608
81.1705,1.663
81.1725,1.721
81.1736,1.808
81.1746,1.871
81.1768,1.955
81.1786,2.014
81.1786,2.029
81.1814,2.017
81.1814,1.948
81.1824,1.885
81.1857,1.807
81.1864,1.73
81.1864,1.655
81.1895,1.606
81.1895,1.625
81.1916,1.658
81.1930,1.713
81.1936,1.792
81.1957,1.865
81.1969,2.009
81.1976,2.032
81.2005,2.027
81.2013,2.001
81.2025,1.95
81.2038,1.886
81.2057,1.808
81.2057,1.655
81.2078,1.613
81.2147,1.603
81.2239,1.621
81.2319,1.654
81.2350,1.71
81.2430,1.786
81.2439,1.941
81.2439,2.006
81.2439,2.03
81.2450,2.026
81.2450,2.0
81.2459,1.951
81.2459,1.81
81.2470,1.734
81.2470,1.657
81.2470,1.61
81.2480,1.6
81.2481,1.617
81.2481,1.646
81.2481,1.778
81.2491,1.849
81.2491,1.933
81.2491,1.999
81.2501,2.027
81.2501,2.028
81.2501,1.953
81.2511,1.894
81.2511,1.812
81.2511,1.737
81.2521,1.659
81.2521,1.61
81.2521,1.599
81.2535,1.642
81.2535,1.696
81.2541,1.772
81.2551,1.843
81.2561,1.925
81.2585,1.995
81.2587,2.024
81.2597,2.001
81.2623,1.954
81.2625,1.895
81.2651,1.813
81.2663,1.74
81.2673,1.61
81.2692,1.594
81.2697,1.608
81.2709,1.636
81.2733,1.691
81.2743,1.763
81.2753,1.836
81.2773,1.99
81.2783,2.021
81.2793,2.023
81.2816,1.998
81.2816,1.956
81.2836,1.898
81.2853,1.745
81.2863,1.664
81.2883,1.611
81.2893,1.594
81.2903,1.605
81.2925,1.633
81.2927,1.756
81.2935,1.83
81.2962,1.911
81.2972,1.981
81.2984,2.018
81.3004,2.022
81.3013,1.999
81.3035,1.902
81.3045,1.819
81.3045,1.745
81.3075,1.667
81.3085,1.612
81.3085,1.593
81.3116,1.631
81.3116,1.683
81.3126,1.749
81.3156,1.826
81.3196,1.907
81.3279,1.981
81.3359,2.034
81.3399,2.003
81.3409,1.963
81.3409,1.904
81.3409,1.824
81.3420,1.753
81.3420,1.622
81.3420,1.594
81.3430,1.6
81.3430,1.626
81.3430,1.677
81.3440,1.744
81.3440,1.825
81.3440,1.975
81.3450,2.014
81.3460,2.023
81.3460,2.008
81.3470,1.974
81.3470,1.907
81.3470,1.756
81.3480,1.675
81.3482,1.612
81.3495,1.597
81.3495,1.596
81.3505,1.624
81.3536,1.737
81.3545,1.815
81.3564,1.887
81.3574,1.966
81.3574,2.012
81.3606,2.021
81.3616,2.002
81.3616,1.911
81.3645,1.825
81.3645,1.76
81.3657,1.678
81.3680,1.614
81.3690,1.59
81.3700,1.619
81.3725,1.667
81.3725,1.73
81.3745,1.809
81.3755,1.885
81.3767,1.962
81.3789,2.017
81.3797,1.998
81.3807,1.964
81.3831,1.907
81.3841,1.831
81.3850,1.756
81.3871,1.611
81.3881,1.584
81.3897,1.586
81.3906,1.611
81.3917,1.658
81.3946,1.717
81.3949,1.798
81.3956,1.954
81.3983,2.0
81.3993,2.02
81.4004,2.006
81.4025,1.966
81.4025,1.909
81.4035,1.764
81.4058,1.689
81.4066,1.629
81.4075,1.586
81.4108,1.584
81.4110,1.609
81.4128,1.652
81.4224,1.806
81.4271,1.871
81.4473,1.953
81.4515,2.0
81.4547,2.018
81.4636,2.0
81.4665,1.913
81.4747,1.842
81.4798,1.769
81.4906,1.687
81.4988,1.618
81.4998,1.591
81.5058,1.585
81.5140,1.649
81.5149,1.708
81.5171,1.79
81.5178,1.862
81.5284,1.942
81.5295,1.997
81.5330,2.0
81.5364,1.97
81.5445,1.916
81.5546,1.841
81.5603,1.77
81.5696,1.689
81.5723,1.618
81.5743,1.581
81.5850,1.604
81.5924,1.643
81.5973,1.702
81.6073,1.785
81.6189,1.858
81.6193,1.941
81.6263,2.01
81.6302,1.998
81.6357,1.971
81.6374,1.916
81.6384,1.848
81.6496,1.772
81.6506,1.621
81.6545,1.584
81.6595,1.58
81.6600,1.602
81.6620,1.639
81.6630,1.697
81.6630,1.779
81.6630,1.935
81.6630,1.991
81.6640,2.014
81.6640,2.016
81.6640,1.974
81.6640,1.92
81.6640,1.779
81.6652,1.699
81.6652,1.648
81.6652,1.585
81.6652,1.578
81.6662,1.599
81.6662,1.635
81.6662,1.777
81.6662,1.844
81.6662,1.929
81.6672,1.988
81.6672,2.01
81.6672,2.0
81.6672,1.923
81.6672,1.858
81.6682,1.782
81.6682,1.704
81.6682,1.63
81.6682,1.591
81.6682,1.58
81.6692,1.628
81.6692,1.686
81.6692,1.766
81.6692,1.836
81.6692,1.915
81.6702,1.983
81.6702,1.996
81.6702,1.964
81.6702,1.908
81.6702,1.835
81.6712,1.75
81.6712,1.668
81.6712,1.586
81.6712,1.517
81.6712,1.528
81.6722,1.555
81.6722,1.61
81.6722,1.683
81.6722,1.752
81.6722,1.841
81.6732,1.965
81.6732,1.977
81.6732,1.955
81.6732,1.901
81.6740,1.838
81.6742,1.766
81.6742,1.642
81.6742,1.609
81.6742,1.616
81.6752,1.644
81.6752,1.679
81.6752,1.736
81.6752,1.807
81.6762,1.964
81.6762,2.03
81.6762,2.051
81.6762,2.067
81.6762,2.024
81.6773,1.973
81.6774,1.826
81.6774,1.748
81.6774,1.674
81.6781,1.618
81.6784,1.598
81.6784,1.611
81.6794,1.636
81.6794,1.763
81.6794,1.834
81.6794,1.911
81.6794,1.979
81.6804,2.008
81.6804,2.006
81.6808,1.937
81.6808,1.872
81.6814,1.791
81.6814,1.717
81.6844,1.636
81.6884,1.585
81.6903,1.574
81.6903,1.611
81.6903,1.664
81.6903,1.736
81.6903,1.81
81.6914,1.887
81.6914,1.961
81.6914,1.995
81.6914,1.971
81.6914,1.928
81.6924,1.867
81.6924,1.783
81.6924,1.713
81.6924,1.632
81.6924,1.561
81.6934,1.572
81.6934,1.599
81.6934,1.653
81.6934,1.724
81.6934,1.798
81.6944,1.954
81.6944,1.989
81.6948,1.992
81.6954,1.967
81.6954,1.927
81.6961,1.867
81.6963,1.787
81.6963,1.634
81.6963,1.578
81.6963,1.559
81.6963,1.57
81.6974,1.595
81.6974,1.647
81.6974,1.715
81.6974,1.874
81.6974,1.949
81.6984,1.985
81.6984,2.001
81.6984,1.975
81.6984,1.928
81.6984,1.79
81.6994,1.718
81.6994,1.654
81.6994,1.595
81.6994,1.558
81.6994,1.566
81.7004,1.591
81.7004,1.707
81.7004,1.79
81.7004,1.866
81.7004,1.945
81.7014,1.985
81.7014,1.989
81.7014,1.941
81.7014,1.872
81.7014,1.793
81.7025,1.722
81.7025,1.641
81.7025,1.578
81.7025,1.561
81.7031,1.587
81.7034,1.636
81.7034,1.702
81.7034,1.78
81.7034,1.855
81.7034,1.934
81.7045,1.989
81.7045,1.97
81.7045,1.934
81.7045,1.877
81.7055,1.793
81.7055,1.725
81.7055,1.643
81.7055,1.554
81.7055,1.557
81.7065,1.581
81.7065,1.629
81.7065,1.693
81.7065,1.774
81.7065,1.852
81.7065,1.976
81.7076,1.984
81.7076,1.966
81.7076,1.932
81.7076,1.874
81.7076,1.796
81.7086,1.647
81.7086,1.577
81.7086,1.551
81.7100,1.553
81.7110,1.577
81.7132,1.622
81.7142,1.683
81.7151,1.839
81.7172,1.922
81.7180,1.969
81.7190,1.985
81.7214,1.976
81.7225,1.929
81.7225,1.796
81.7255,1.724
81.7258,1.644
81.7265,1.594
81.7285,1.543
81.7295,1.542
81.7305,1.566
81.7336,1.666
81.7336,1.755
81.7365,1.825
81.7373,1.908
81.7383,1.957
81.7399,1.97
81.7415,1.925
81.7415,1.864
81.7447,1.792
81.7447,1.718
81.7463,1.636
81.7508,1.565
81.7682,1.534
81.7703,1.555
81.7734,1.595
81.7734,1.654
81.7744,1.737
81.7744,1.811
81.7744,1.895
81.7754,1.965
81.7764,1.949
81.7764,1.919
81.7794,1.862
81.7804,1.791
81.7804,1.717
81.7804,1.635
81.7815,1.529
81.7815,1.527
81.7815,1.551
81.7823,1.59
81.7823,1.649
81.7823,1.731
81.7835,1.891
81.7835,1.946
81.7835,1.963
81.7845,1.95
81.7845,1.921
81.7845,1.865
81.7855,1.796
81.7855,1.641
81.7875,1.569
81.7875,1.531
81.7904,1.527
81.7914,1.551
81.7914,1.588
81.7948,1.73
81.7954,1.803
81.7956,1.889
81.7985,1.947
81.7985,1.967
81.7994,1.959
81.8035,1.929
81.8055,1.733
81.8065,1.653
81.8066,1.581
81.8092,1.541
81.8102,1.558
81.8112,1.592
81.8134,1.65
81.8142,1.733
81.8164,1.807
81.8174,1.894
81.8174,1.975
81.8205,1.967
81.8215,1.94
81.8215,1.888
81.8247,1.822
81.8247,1.745
81.8255,1.665
81.8275,1.547
81.8285,1.541
81.8295,1.562
81.8325,1.596
81.8325,1.652
81.8354,1.734
81.8361,1.892
81.8375,1.956
81.8395,1.979
81.8401,1.973
81.8411,1.947
81.8434,1.895
81.8443,1.751
81.8452,1.673
81.8476,1.596
81.8476,1.553
81.8505,1.543
81.8515,1.562
81.8515,1.652
81.8537,1.731
81.8549,1.803
81.8557,1.889
81.8583,1.954
81.8617,1.98
81.8703,1.975
81.8812,1.898
81.8842,1.834
81.8842,1.754
81.8852,1.677
81.8852,1.6
81.8852,1.553
81.8852,1.558
81.8863,1.59
81.8863,1.646
81.8863,1.724
81.8873,1.796
81.8873,1.88
81.8873,1.976
81.8883,1.977
81.8883,1.949
81.8883,1.9
81.8893,1.838
81.8893,1.759
81.8903,1.604
81.8903,1.554
81.8903,1.54
81.8903,1.556
81.8925,1.585
81.8925,1.64
81.8935,1.718
81.8955,1.876
81.8965,1.946
81.8975,1.975
81.9005,1.975
81.9015,1.951
81.9015,1.904
81.9035,1.76
81.9055,1.684
81.9075,1.605
81.9085,1.553
81.9085,1.538
81.9116,1.552
81.9126,1.636
81.9126,1.71
81.9147,1.783
81.9156,1.868
81.9167,1.94
81.9197,1.972
81.9197,1.949
81.9222,1.906
81.9233,1.847
81.9242,1.764
81.9263,1.689
81.9273,1.608
81.9284,1.553
81.9305,1.55
81.9305,1.577
81.9315,1.631
81.9336,1.703
81.9346,1.777
81.9356,1.859
81.9382,1.971
81.9392,1.972
81.9415,1.947
81.9425,1.907
81.9425,1.848
81.9448,1.767
81.9467,1.693
81.9467,1.554
81.9490,1.536
81.9501,1.546
81.9510,1.573
81.9534,1.626
81.9542,1.696
81.9552,1.855
81.9575,1.931
81.9575,1.967
81.9585,1.975
81.9615,1.952
81.9615,1.911
81.9635,1.853
81.9645,1.698
81.9656,1.616
81.9770,1.556
81.9872,1.535
81.9903,1.543
81.9909,1.569
81.9909,1.621
81.9909,1.768
81.9919,1.848
81.9919,1.926
81.9919,1.966
81.9929,1.971
81.9929,1.951
81.9929,1.855
81.9941,1.775
81.9941,1.703
81.9941,1.62
81.9952,1.557
81.9962,1.536
81.9962,1.542
81.9962,1.618
81.9972,1.684
81.9981,1.762
81.9981,1.844
81.9981,1.922
81.9991,1.964
82.0004,1.951
82.0004,1.915
82.0034,1.858
82.0042,1.778
82.0053,1.706
82.0075,1.624
82.0075,1.558
82.0085,1.54
82.0116,1.565
82.0125,1.614
82.0130,1.679
82.0154,1.759
82.0164,1.838
82.0185,1.964
82.0195,1.973
82.0195,1.953
82.0226,1.919
82.0228,1.862
82.0236,1.784
82.0263,1.713
82.0273,1.562
82.0285,1.536
82.0305,1.538
82.0305,1.563
82.0315,1.61
82.0337,1.673
82.0347,1.832
82.0357,1.914
82.0383,1.96
82.0390,1.972
82.0414,1.957
82.0424,1.922
82.0424,1.864
82.0455,1.715
82.0465,1.633
82.0465,1.564
82.0497,1.534
82.0497,1.535
82.0506,1.56
82.0534,1.667
82.0543,1.751
82.0555,1.826
82.0575,1.908
82.0575,1.958
82.0585,1.972
82.0614,1.956
82.0614,1.869
82.0645,1.793
82.0655,1.72
82.0655,1.638
82.0684,1.567
82.0694,1.535
82.0694,1.559
82.0726,1.6
82.0726,1.659
82.0737,1.743
82.0764,1.819
82.0764,1.902
82.0775,1.969
82.0804,1.955
82.0814,1.925
82.0830,1.867
82.0836,1.795
82.0848,1.72
82.0888,1.637
82.0977,1.53
82.1074,1.527
82.1104,1.55
82.1115,1.59
82.1115,1.65
82.1125,1.734
82.1135,1.893
82.1136,1.948
82.1136,1.966
82.1146,1.952
82.1146,1.924
82.1146,1.867
82.1156,1.725
82.1156,1.643
82.1156,1.569
82.1156,1.533
82.1167,1.528
82.1167,1.552
82.1176,1.649
82.1176,1.734
82.1176,1.807
82.1187,1.892
82.1187,1.95
82.1187,1.967
82.1215,1.959
82.1222,1.875
82.1232,1.806
82.1255,1.731
82.1255,1.649
82.1264,1.575
82.1295,1.536
82.1296,1.552
82.1326,1.587
82.1326,1.647
82.1334,1.73
82.1364,1.804
82.1374,1.889
82.1374,1.968
82.1407,1.96
82.1407,1.934
82.1416,1.879
82.1446,1.812
82.1451,1.735
82.1456,1.655
82.1479,1.537
82.1487,1.528
82.1514,1.548
82.1519,1.584
82.1527,1.643
82.1550,1.723
82.1561,1.881
82.1572,1.945
82.1595,1.969
82.1595,1.962
82.1605,1.936
82.1635,1.883
82.1635,1.739
82.1645,1.66
82.1674,1.584
82.1680,1.54
82.1704,1.529
82.1714,1.548
82.1714,1.639
82.1736,1.719
82.1750,1.792
82.1756,1.877
82.1780,1.943
82.1786,1.97
82.1798,1.962
82.1825,1.885
82.1825,1.822
82.1855,1.744
82.1857,1.666
82.1865,1.588
82.1894,1.541
82.1904,1.546
82.1904,1.578
82.1928,1.635
82.1976,1.715
82.2140,1.788
82.2160,1.874
82.2190,1.967
82.2191,1.965
82.2191,1.941
82.2199,1.891
82.2199,1.83
82.2199,1.749
82.2209,1.673
82.2209,1.545
82.2209,1.529
82.2219,1.544
82.2219,1.575
82.2219,1.632
82.2229,1.709
82.2229,1.871
82.2229,1.939
82.2239,1.966
82.2239,1.961
82.2239,1.931
82.2251,1.878
82.2251,1.721
82.2251,1.643
82.2275,1.555
82.2279,1.496
82.2289,1.473
82.2313,1.483
82.2323,1.561
82.2333,1.631
82.2352,1.703
82.2362,1.792
82.2380,1.884
82.2393,1.943
82.2400,1.955
82.2422,1.879
82.2430,1.816
82.2440,1.746
82.2460,1.689
82.2470,1.624
82.2482,1.594
82.2505,1.613
82.2505,1.639
82.2515,1.689
82.2547,1.762
82.2549,1.834
82.2574,1.917
82.2584,2.022
82.2584,2.021
82.2615,1.994
82.2625,1.948
82.2625,1.885
82.2656,1.799
82.2656,1.636
82.2666,1.577
82.2690,1.556
82.2702,1.564
82.2712,1.588
82.2734,1.639
82.2734,1.708
82.2764,1.86
82.2766,1.934
82.2780,1.969
82.2803,1.973
82.2808,1.949
82.2820,1.907
82.2845,1.766
82.2845,1.693
82.2855,1.609
82.2884,1.551
82.2884,1.531
82.2914,1.54
82.2924,1.616
82.2924,1.684
82.2952,1.763
82.2964,1.844
82.2972,1.921
82.2992,1.96
82.3002,1.966
82.3013,1.905
82.3124,1.846
82.3213,1.764
82.3251,1.691
82.3254,1.609
82.3254,1.546
82.3264,1.531
82.3264,1.557
82.3264,1.608
82.3274,1.675
82.3274,1.754
82.3281,1.836
82.3284,1.955
82.3295,1.964
82.3295,1.942
82.3304,1.907
82.3304,1.847
82.3304,1.767
82.3314,1.612
82.3314,1.547
82.3314,1.524
82.3314,1.531
82.3324,1.555
82.3331,1.604
82.3345,1.669
82.3345,1.829
82.3375,1.91
82.3375,1.955
82.3385,1.964
82.3417,1.943
82.3417,1.908
82.3446,1.772
82.3446,1.699
82.3456,1.62
82.3484,1.549
82.3494,1.524
82.3494,1.527
82.3527,1.599
82.3529,1.663
82.3537,1.744
82.3565,1.824
82.3565,1.904
82.3585,1.95
82.3599,1.946
82.3607,1.911
82.3628,1.853
82.3640,1.776
82.3646,1.703
82.3674,1.621
82.3674,1.552
82.3684,1.526
82.3715,1.55
82.3715,1.595
82.3725,1.657
82.3748,1.741
82.3758,1.818
82.3780,1.949
82.3791,1.962
82.3802,1.945
82.3825,1.914
82.3829,1.858
82.3835,1.781
82.3863,1.625
82.3873,1.554
82.3883,1.523
82.3899,1.522
82.3908,1.546
82.3918,1.589
82.3945,1.65
82.3945,1.811
82.3975,1.894
82.3985,1.945
82.3985,1.96
82.4016,1.946
82.4018,1.915
82.4026,1.784
82.4052,1.709
82.4062,1.626
82.4094,1.553
82.4187,1.519
82.4270,1.519
82.4311,1.584
82.4311,1.645
82.4320,1.728
82.4320,1.802
82.4320,1.887
82.4330,1.94
82.4330,1.941
82.4330,1.912
82.4340,1.854
82.4340,1.782
82.4340,1.706
82.4350,1.626
82.4350,1.553
82.4350,1.511
82.4362,1.534
82.4362,1.573
82.4362,1.631
82.4372,1.715
82.4372,1.789
82.4372,1.929
82.4395,1.946
82.4395,1.935
82.4405,1.906
82.4433,1.849
82.4440,1.778
82.4453,1.621
82.4474,1.548
82.4474,1.506
82.4505,1.501
82.4512,1.525
82.4522,1.56
82.4536,1.702
82.4555,1.777
82.4555,1.862
82.4586,1.92
82.4586,1.941
82.4595,1.93
82.4614,1.902
82.4624,1.78
82.4634,1.703
82.4662,1.623
82.4672,1.548
82.4694,1.506
82.4703,1.499
82.4712,1.556
82.4734,1.613
82.4744,1.697
82.4744,1.77
82.4785,1.856
82.4800,1.933
82.4811,1.907
82.4821,1.854
82.4847,1.787
82.4847,1.71
82.4857,1.631
82.4885,1.512
82.4885,1.504
82.4913,1.523
82.4921,1.559
82.4929,1.617
82.4949,1.7
82.4960,1.86
82.4969,1.924
82.4994,1.95
82.5001,1.943
82.5011,1.916
82.5034,1.865
82.5034,1.724
82.5045,1.646
82.5074,1.573
82.5074,1.523
82.5096,1.513
82.5114,1.532
82.5114,1.621
82.5145,1.703
82.5151,1.777
82.5206,1.863
82.5277,1.93
82.5364,1.956
82.5385,1.954
82.5415,1.88
82.5420,1.816
82.5420,1.737
82.5420,1.658
82.5430,1.582
82.5430,1.535
82.5430,1.54
82.5442,1.571
82.5442,1.627
82.5453,1.706
82.5453,1.781
82.5462,1.866
82.5462,1.964
82.5472,1.962
82.5472,1.937
82.5472,1.89
82.5482,1.828
82.5482,1.747
82.5482,1.67
82.5493,1.538
82.5493,1.524
82.5493,1.54
82.5525,1.571
82.5533,1.628
82.5543,1.704
82.5565,1.864
82.5565,1.934
82.5575,1.964
82.5607,1.965
82.5616,1.939
82.5625,1.893
82.5645,1.751
82.5645,1.674
82.5675,1.594
82.5685,1.541
82.5685,1.527
82.5717,1.541
82.5718,1.624
82.5727,1.699
82.5752,1.773
82.5762,1.858
82.5775,1.931
82.5794,1.965
82.5802,1.967
82.5825,1.897
82.5830,1.837
82.5837,1.756
82.5862,1.682
82.5872,1.601
82.5883,1.543
82.5905,1.538
82.5905,1.566
82.5915,1.62
82.5943,1.693
82.5949,1.767
82.5959,1.851
82.5987,1.961
82.5989,1.964
82.6015,1.943
82.6025,1.899
82.6025,1.841
82.6055,1.758
82.6065,1.684
82.6065,1.545
82.6085,1.525
82.6105,1.535
82.6106,1.562
82.6133,1.614
82.6143,1.684
82.6153,1.846
82.6175,1.923
82.6175,1.961
82.6205,1.964
82.6209,1.941
82.6221,1.903
82.6243,1.843
82.6281,1.691
82.6362,1.607
82.6472,1.547
82.6491,1.525
82.6505,1.533
82.6505,1.56
82.6505,1.68
82.6514,1.759
82.6514,1.842
82.6514,1.918
82.6524,1.958
82.6524,1.965
82.6524,1.943
82.6533,1.848
82.6533,1.765
82.6533,1.692
82.6543,1.611
82.6543,1.548
82.6543,1.526
82.6556,1.559
82.6556,1.609
82.6556,1.674
82.6566,1.754
82.6566,1.834
82.6566,1.914
82.6603,1.958
82.6608,1.945
82.6618,1.91
82.6628,1.851
82.6638,1.771
82.6648,1.7
82.6682,1.622
82.6682,1.528
82.6704,1.532
82.6709,1.558
82.6721,1.607
82.6750,1.671
82.6760,1.752
82.6760,1.832
82.6782,1.956
82.6790,1.966
82.6800,1.949
82.6834,1.914
82.6834,1.855
82.6834,1.778
82.6865,1.623
82.6865,1.556
82.6874,1.529
82.6909,1.532
82.6917,1.556
82.6943,1.602
82.6945,1.665
82.6955,1.826
82.6984,1.909
82.6984,1.956
82.6984,1.968
82.7019,1.95
82.7019,1.919
82.7029,1.784
82.7051,1.711
82.7059,1.628
82.7071,1.56
82.7103,1.531
82.7103,1.53
82.7113,1.553
82.7136,1.661
82.7144,1.744
82.7174,1.821
82.7174,1.905
82.7174,1.955
82.7208,1.969
82.7208,1.923
82.7216,1.865
82.7239,1.789
82.7250,1.715
82.7259,1.631
82.7279,1.562
82.7291,1.53
82.7299,1.553
82.7321,1.595
82.7369,1.655
82.7439,1.74
82.7542,1.815
82.7574,1.9
82.7574,1.972
82.7584,1.954
82.7584,1.923
82.7584,1.867
82.7594,1.795
82.7594,1.721
82.7594,1.638
82.7604,1.533
82.7604,1.53
82.7614,1.554
82.7624,1.594
82.7624,1.653
82.7624,1.736
82.7635,1.898
82.7635,1.954
82.7635,1.968
82.7646,1.957
82.7646,1.928
82.7655,1.871
82.7655,1.725
82.7655,1.642
82.7665,1.571
82.7675,1.534
82.7702,1.53
82.7712,1.554
82.7722,1.591
82.7751,1.733
82.7751,1.809
82.7780,1.893
82.7790,1.951
82.7792,1.97
82.7812,1.959
82.7820,1.876
82.7829,1.805
82.7851,1.73
82.7860,1.648
82.7871,1.574
82.7903,1.536
82.7903,1.551
82.7913,1.586
82.7943,1.643
82.7954,1.725
82.7954,1.799
82.7977,1.886
82.7977,1.965
82.8013,1.957
82.8013,1.929
82.8023,1.874
82.8046,1.808
82.8054,1.731
82.8054,1.647
82.8088,1.531
82.8088,1.524
82.8111,1.544
82.8118,1.578
82.8128,1.635
82.8151,1.717
82.8159,1.879
82.8170,1.941
82.8193,1.965
82.8204,1.959
82.8214,1.931
82.8241,1.878
82.8241,1.736
82.8252,1.656
82.8279,1.583
82.8279,1.537
82.8301,1.528
82.8309,1.547
82.8320,1.637
82.8341,1.718
82.8349,1.79
82.8361,1.877
82.8393,1.943
82.8393,1.967
82.8393,1.961
82.8437,1.886
82.8455,1.821
82.8617,1.741
82.8639,1.662
82.8660,1.584
82.8669,1.54
82.8669,1.547
82.8669,1.578
82.8679,1.633
82.8679,1.714
82.8679,1.787
82.8689,1.872
82.8689,1.967
82.8689,1.964
82.8701,1.939
82.8701,1.889
82.8701,1.826
82.8711,1.745
82.8711,1.59
82.8711,1.541
82.8722,1.529
82.8722,1.545
82.8722,1.575
82.8731,1.631
82.8741,1.708
82.8765,1.87
82.8765,1.939
82.8785,1.969
82.8817,1.966
82.8817,1.942
82.8832,1.895
82.8849,1.752
82.8857,1.675
82.8870,1.594
82.8880,1.544
82.8890,1.531
82.8924,1.545
82.8924,1.629
82.8924,1.705
82.8954,1.78
82.8964,1.865
82.8987,1.937
82.8988,1.971
82.8998,1.972
82.9030,1.899
82.9030,1.838
82.9043,1.755
82.9074,1.681
82.9074,1.602
82.9074,1.546
82.9113,1.545
82.9113,1.572
82.9123,1.627
82.9145,1.702
82.9154,1.776
82.9165,1.859
82.9186,1.967
82.9194,1.971
82.9218,1.951
82.9218,1.905
82.9225,1.845
82.9256,1.762
82.9256,1.604
82.9265,1.55
82.9303,1.533
82.9303,1.545
82.9330,1.572
82.9330,1.627
82.9340,1.698
82.9365,1.849
82.9375,1.919
82.9375,1.948
82.9412,1.945
82.9412,1.915
82.9422,1.871
82.9447,1.717
82.9447,1.637
82.9457,1.55
82.9489,1.487
82.9535,1.467
82.9616,1.47
82.9727,1.556
82.9758,1.653
82.9766,1.754
82.9766,1.84
82.9766,1.912
82.9776,1.949
82.9781,1.947
82.9786,1.925
82.9796,1.885
82.9796,1.829
82.9796,1.767
82.9806,1.683
82.9806,1.622
82.9806,1.604
82.9815,1.627
82.9815,1.677
82.9815,1.745
82.9825,1.821
82.9825,1.9
82.9825,2.012
82.9837,2.02
82.9837,1.99
82.9837,1.949
82.9837,1.886
82.9851,1.803
82.9863,1.645
82.9871,1.575
82.9895,1.55
82.9902,1.553
82.9912,1.574
82.9945,1.623
82.9946,1.764
82.9955,1.845
82.9977,1.923
82.9977,1.965
83.0008,1.973
83.0008,1.956
83.0018,1.919
83.0040,1.781
83.0060,1.707
83.0060,1.624
83.0094,1.557
83.0094,1.532
83.0104,1.536
83.0126,1.609
83.0126,1.673
83.0134,1.752
83.0171,1.831
83.0171,1.911
83.0198,1.957
83.0198,1.949
83.0208,1.917
83.0230,1.859
83.0242,1.778
83.0251,1.707
83.0272,1.624
83.0280,1.555
83.0292,1.53
83.0322,1.554
83.0322,1.6
83.0332,1.663
83.0364,1.745
83.0364,1.824
83.0395,1.954
83.0395,1.966
83.0395,1.949
83.0405,1.917
83.0425,1.86
83.0435,1.783
83.0457,1.626
83.0467,1.557
83.0477,1.528
83.0497,1.529
83.0505,1.552
83.0516,1.595
83.0538,1.658
83.0546,1.819
83.0569,1.901
83.0619,1.951
83.0785,1.969
83.0805,1.952
83.0825,1.921
83.0834,1.788
83.0834,1.714
83.0844,1.634
83.0846,1.56
83.0846,1.528
83.0856,1.526
83.0856,1.592
83.0856,1.652
83.0856,1.737
83.0866,1.813
83.0866,1.897
83.0876,1.949
83.0876,1.952
83.0876,1.923
83.0885,1.864
83.0895,1.793
83.0895,1.719
83.0907,1.636
83.0907,1.564
83.0917,1.526
83.0927,1.55
83.0927,1.59
83.0927,1.648
83.0952,1.732
83.0957,1.806
83.0968,1.946
83.0993,1.963
83.1003,1.951
83.1013,1.922
83.1029,1.868
83.1039,1.797
83.1073,1.64
83.1076,1.565
83.1076,1.527
83.1113,1.523
83.1123,1.546
83.1125,1.583
83.1144,1.726
83.1152,1.799
83.1162,1.885
83.1188,1.944
83.1188,1.961
83.1198,1.951
83.1232,1.924
83.1239,1.801
83.1251,1.725
83.1274,1.642
83.1274,1.568
83.1284,1.527
83.1307,1.519
83.1316,1.576
83.1342,1.634
83.1354,1.718
83.1354,1.79
83.1384,1.876
83.1384,1.936
83.1384,1.949
83.1418,1.92
83.1418,1.867
83.1439,1.799
83.1448,1.723
83.1458,1.643
83.1483,1.521
83.1495,1.513
83.1503,1.533
83.1536,1.565
83.1558,1.706
83.1558,1.863
83.1566,1.925
83.1603,1.948
83.1603,1.939
83.1613,1.916
83.1637,1.859
83.1637,1.716
83.1647,1.637
83.1695,1.56
83.1786,1.514
83.1886,1.504
83.1927,1.523
83.1929,1.614
83.1929,1.694
83.1938,1.767
83.1938,1.851
83.1947,1.918
83.1947,1.942
83.1957,1.937
83.1957,1.862
83.1968,1.799
83.1968,1.719
83.1968,1.642
83.1978,1.564
83.1979,1.517
83.1979,1.521
83.1979,1.553
83.1989,1.61
83.1989,1.69
83.1989,1.763
83.1999,1.849
83.1999,1.945
83.1999,1.94
83.2009,1.916
83.2019,1.87
83.2040,1.807
83.2050,1.726
83.2060,1.572
83.2080,1.522
83.2090,1.508
83.2101,1.525
83.2121,1.555
83.2132,1.612
83.2141,1.691
83.2162,1.852
83.2172,1.921
83.2182,1.951
83.2202,1.953
83.2212,1.925
83.2223,1.881
83.2243,1.74
83.2253,1.664
83.2263,1.588
83.2283,1.533
83.2293,1.519
83.2313,1.535
83.2323,1.621
83.2334,1.698
83.2353,1.773
83.2363,1.859
83.2382,1.93
83.2395,1.961
83.2395,1.94
83.2423,1.894
83.2433,1.834
83.2445,1.753
83.2463,1.68
83.2473,1.599
83.2483,1.545
83.2504,1.542
83.2515,1.57
83.2515,1.625
83.2534,1.699
83.2554,1.775
83.2573,1.858
83.2583,1.967
83.2593,1.969
83.2613,1.947
83.2625,1.905
83.2625,1.845
83.2653,1.762
83.2663,1.608
83.2673,1.551
83.2694,1.533
83.2704,1.544
83.2704,1.571
83.2736,1.624
83.2744,1.695
83.2754,1.856
83.2795,1.933
83.2885,1.969
83.2977,1.972
83.3014,1.948
83.3015,1.909
83.3015,1.767
83.3015,1.693
83.3025,1.611
83.3025,1.553
83.3025,1.533
83.3036,1.542
83.3036,1.568
83.3036,1.69
83.3046,1.767
83.3046,1.852
83.3046,1.929
83.3056,1.966
83.3056,1.974
83.3056,1.912
83.3066,1.851
83.3066,1.77
83.3076,1.698
83.3076,1.619
83.3076,1.553
83.3086,1.531
83.3109,1.564
83.3118,1.616
83.3128,1.684
83.3153,1.763
83.3163,1.844
83.3173,1.922
83.3192,1.969
83.3202,1.949
83.3214,1.913
83.3234,1.853
83.3244,1.774
83.3264,1.701
83.3274,1.619
83.3284,1.531
83.3295,1.537
83.3312,1.561
83.3322,1.61
83.3344,1.675
83.3354,1.757
83.3354,1.918
83.3382,1.961
83.3393,1.969
83.3402,1.949
83.3425,1.916
83.3427,1.857
83.3435,1.778
83.3463,1.622
83.3473,1.555
83.3488,1.531
83.3497,1.534
83.3506,1.559
83.3528,1.607
83.3546,1.753
83.3546,1.832
83.3573,1.913
83.3583,1.959
83.3593,1.969
83.3612,1.951
83.3622,1.918
83.3632,1.782
83.3654,1.711
83.3664,1.628
83.3664,1.56
83.3694,1.533
83.3694,1.536
83.3723,1.604
83.3733,1.665
83.3743,1.749
83.3764,1.826
83.3773,1.911
83.3783,1.958
83.3803,1.972
83.3813,1.922
83.3823,1.863
83.3845,1.789
83.3886,1.715
83.3966,1.634
83.4057,1.565
83.4090,1.534
83.4090,1.559
83.4097,1.602
83.4097,1.661
83.4097,1.746
83.4107,1.821
83.4113,1.907
83.4117,1.97
83.4117,1.955
83.4128,1.925
83.4128,1.868
83.4128,1.795
83.4138,1.72
83.4138,1.639
83.4138,1.536
83.4148,1.534
83.4148,1.559
83.4158,1.597
83.4158,1.658
83.4158,1.742
83.4168,1.902
83.4169,1.956
83.4193,1.972
83.4203,1.959
83.4223,1.929
83.4233,1.873
83.4243,1.8
83.4263,1.643
83.4273,1.571
83.4283,1.537
83.4304,1.534
83.4313,1.557
83.4313,1.596
83.4345,1.739
83.4345,1.814
83.4373,1.898
83.4381,1.955
83.4391,1.973
83.4413,1.961
83.4423,1.876
83.4433,1.807
83.4453,1.732
83.4465,1.651
83.4473,1.577
83.4493,1.539
83.4503,1.556
83.4513,1.593
83.4533,1.651
83.4543,1.735
83.4563,1.808
83.4573,1.895
83.4583,1.954
83.4603,1.965
83.4613,1.935
83.4624,1.88
83.4645,1.811
83.4645,1.735
83.4655,1.653
83.4683,1.541
83.4693,1.533
83.4713,1.554
83.4723,1.59
83.4733,1.648
83.4753,1.731
83.4765,1.89
83.4765,1.951
83.4793,1.971
83.4803,1.964
83.4813,1.939
83.4833,1.883
83.4843,1.74
83.4843,1.66
83.4876,1.584
83.4876,1.544
83.4903,1.535
83.4913,1.555
83.4923,1.588
83.4935,1.726
83.4955,1.8
83.4955,1.885
83.4985,1.95
83.4987,1.974
83.4995,1.968
83.5023,1.888
83.5033,1.824
83.5044,1.745
83.5064,1.665
83.5074,1.588
83.5108,1.543
83.5126,1.553
83.5277,1.584
83.5327,1.642
83.5332,1.723
83.5332,1.794
83.5342,1.881
83.5342,1.974
83.5342,1.967
83.5352,1.942
83.5352,1.891
83.5352,1.826
83.5362,1.745
83.5362,1.667
83.5362,1.54
83.5372,1.53
83.5372,1.548
83.5372,1.579
83.5383,1.635
83.5383,1.712
83.5383,1.87
83.5383,1.938
83.5393,1.967
83.5401,1.967
83.5412,1.939
83.5432,1.89
83.5442,1.747
83.5452,1.67
83.5472,1.595
83.5482,1.543
83.5490,1.529
83.5512,1.546
83.5517,1.633
83.5527,1.71
83.5549,1.784
83.5557,1.869
83.5583,1.939
83.5593,1.968
83.5604,1.968
83.5621,1.898
83.5634,1.837
83.5634,1.754
83.5666,1.678
83.5666,1.599
83.5676,1.548
83.5698,1.547
83.5706,1.577
83.5716,1.632
83.5744,1.707
83.5744,1.781
83.5772,1.866
83.5777,1.97
83.5789,1.972
83.5813,1.947
83.5823,1.902
83.5833,1.843
83.5855,1.759
83.5855,1.685
83.5865,1.551
83.5897,1.535
83.5897,1.547
83.5923,1.573
83.5933,1.628
83.5943,1.703
83.5957,1.862
83.5973,1.935
83.5983,1.971
83.6006,1.973
83.6006,1.949
83.6015,1.909
83.6044,1.766
83.6044,1.692
83.6054,1.61
83.6083,1.553
83.6093,1.536
83.6111,1.547
83.6118,1.628
83.6126,1.697
83.6152,1.774
83.6162,1.856
83.6173,1.933
83.6203,1.97
83.6223,1.978
83.6305,1.912
83.6397,1.853
83.6424,1.77
83.6430,1.698
83.6430,1.619
83.6440,1.557
83.6440,1.546
83.6446,1.571
83.6450,1.625
83.6450,1.695
83.6462,1.773
83.6462,1.852
83.6462,1.969
83.6472,1.975
83.6472,1.953
83.6472,1.916
83.6482,1.857
83.6482,1.776
83.6482,1.621
83.6492,1.56
83.6492,1.54
83.6502,1.547
83.6513,1.573
83.6533,1.622
83.6543,1.688
83.6553,1.848
83.6575,1.926
83.6583,1.968
83.6593,1.976
83.6612,1.955
83.6624,1.916
83.6642,1.768
83.6653,1.688
83.6661,1.599
83.6682,1.53
83.6691,1.503
83.6701,1.502
83.6723,1.562
83.6733,1.622
83.6745,1.697
83.6763,1.777
83.6773,1.851
83.6792,1.894
83.6805,1.913
83.6805,1.906
83.6833,1.855
83.6843,1.772
83.6854,1.697
83.6873,1.612
83.6883,1.562
83.6893,1.574
83.6916,1.624
83.6923,1.686
83.6933,1.751
83.6953,1.831
83.6963,1.903
83.6974,2.027
83.6993,2.039
83.7003,2.018
83.7024,1.98
83.7034,1.919
83.7034,1.84
83.7063,1.678
83.7073,1.606
83.7083,1.573
83.7102,1.572
83.7113,1.594
83.7134,1.637
83.7143,1.776
83.7143,1.848
83.7183,1.928
83.7183,1.973
83.7183,1.984
83.7223,1.967
83.7223,1.936
83.7233,1.8
83.7255,1.725
83.7263,1.642
83.7274,1.572
83.7314,1.543
83.7395,1.542
83.7493,1.61
83.7519,1.669
83.7519,1.751
83.7526,1.829
83.7526,1.91
83.7526,1.96
83.7536,1.959
83.7536,1.928
83.7547,1.872
83.7547,1.797
83.7547,1.723
83.7557,1.64
83.7557,1.536
83.7557,1.534
83.7557,1.557
83.7567,1.599
83.7567,1.66
83.7567,1.742
83.7578,1.818
83.7578,1.956
83.7600,1.971
83.7600,1.957
83.7610,1.928
83.7630,1.872
83.7640,1.8
83.7674,1.643
83.7674,1.57
83.7674,1.536
83.7708,1.532
83.7708,1.555
83.7718,1.595
83.7740,1.738
83.7748,1.812
83.7759,1.897
83.7778,1.951
83.7788,1.97
83.7811,1.961
83.7823,1.874
83.7832,1.804
83.7851,1.729
83.7863,1.646
83.7873,1.577
83.7896,1.535
83.7903,1.53
83.7913,1.592
83.7937,1.649
83.7945,1.734
83.7945,1.807
83.7979,1.892
83.7979,1.949
83.8014,1.959
83.8014,1.932
83.8014,1.877
83.8049,1.811
83.8055,1.734
83.8055,1.653
83.8089,1.538
83.8089,1.53
83.8098,1.552
83.8119,1.588
83.8127,1.643
83.8137,1.727
83.8161,1.802
83.8169,1.946
83.8179,1.968
83.8204,1.959
83.8204,1.934
83.8243,1.881
83.8243,1.815
83.8253,1.657
83.8293,1.582
83.8301,1.529
83.8317,1.549
83.8317,1.641
83.8349,1.722
83.8349,1.795
83.8389,1.88
83.8539,1.944
83.8579,1.968
83.8591,1.935
83.8591,1.882
83.8599,1.817
83.8599,1.738
83.8599,1.66
83.8609,1.582
83.8612,1.536
83.8619,1.545
83.8619,1.576
83.8629,1.633
83.8629,1.713
83.8629,1.787
83.8639,1.873
83.8639,1.959
83.8639,1.96
83.8650,1.931
83.8651,1.88
83.8651,1.817
83.8661,1.737
83.8661,1.583
83.8692,1.533
83.8692,1.521
83.8702,1.537
83.8732,1.568
83.8732,1.624
83.8741,1.776
83.8765,1.86
83.8765,1.927
83.8785,1.953
83.8816,1.951
83.8816,1.925
83.8831,1.876
83.8841,1.733
83.8851,1.655
83.8875,1.577
83.8875,1.526
83.8885,1.511
83.8926,1.526
83.8926,1.611
83.8926,1.689
83.8959,1.763
83.8959,1.847
83.8985,1.916
83.8990,1.946
83.8999,1.921
83.9029,1.874
83.9037,1.814
83.9037,1.731
83.9067,1.656
83.9067,1.577
83.9075,1.508
83.9112,1.523
83.9112,1.552
83.9133,1.607
83.9141,1.682
83.9153,1.756
83.9183,1.841
83.9183,1.948
83.9183,1.948
83.9217,1.922
83.9217,1.878
83.9227,1.819
83.9249,1.737
83.9259,1.583
83.9267,1.528
83.9289,1.512
83.9298,1.525
83.9321,1.553
83.9341,1.607
83.9341,1.758
83.9363,1.842
83.9373,1.916
83.9383,1.95
83.9412,1.955
83.9412,1.93
83.9422,1.889
83.9453,1.748
83.9493,1.674
83.9636,1.595
83.9656,1.539
83.9686,1.52
83.9692,1.532
83.9696,1.613
83.9696,1.684
83.9706,1.763
83.9706,1.846
83.9706,1.922
83.9716,1.958
83.9716,1.941
83.9716,1.903
83.9728,1.844
83.9728,1.762
83.9728,1.69
83.9738,1.609
83.9738,1.551
83.9738,1.539
83.9748,1.568
83.9748,1.618
83.9748,1.688
83.9758,1.767
83.9758,1.849
83.9781,1.967
83.9788,1.973
83.9798,1.951
83.9832,1.914
83.9832,1.856
83.9842,1.775
83.9863,1.702
83.9872,1.558
83.9882,1.536
83.9907,1.544
83.9913,1.569
83.9943,1.621
83.9943,1.689
83.9955,1.85
83.9975,1.928
83.9982,1.97
83.9992,1.976
84.0014,1.955
84.0024,1.919
84.0032,1.86
84.0052,1.709
84.0064,1.626
84.0073,1.562
84.0103,1.538
84.0103,1.544
84.0114,1.569
84.0143,1.683
84.0143,1.763
84.0153,1.843
84.0180,1.924
84.0180,1.967
84.0203,1.977
84.0215,1.958
84.0223,1.864
84.0247,1.786
84.0247,1.713
84.0255,1.63
84.0288,1.565
84.0288,1.539
84.0299,1.566
84.0331,1.614
84.0340,1.675
84.0340,1.76
84.0364,1.838
84.0364,1.918
84.0397,1.963
84.0398,1.956
84.0409,1.924
84.0444,1.866
84.0444,1.788
84.0454,1.716
84.0483,1.633
84.0483,1.537
84.0494,1.538
84.0517,1.563
84.0517,1.609
84.0557,1.671
84.0665,1.752
84.0730,1.831
84.0760,1.961
84.0769,1.973
84.0769,1.957
84.0779,1.925
84.0779,1.868
84.0779,1.791
84.0791,1.637
84.0791,1.568
84.0791,1.537
84.0801,1.536
84.0801,1.56
84.0801,1.603
84.0811,1.665
84.0811,1.825
84.0811,1.908
84.0821,1.96
84.0821,1.974
84.0821,1.957
84.0831,1.927
84.0831,1.795
84.0841,1.725
84.0864,1.642
84.0864,1.57
84.0905,1.538
84.0905,1.536
84.0913,1.56
84.0941,1.66
84.0951,1.743
84.0954,1.819
84.0973,1.904
84.1003,1.956
84.1003,1.973
84.1003,1.932
84.1014,1.875
84.1025,1.803
84.1044,1.73
84.1054,1.646
84.1074,1.575
84.1084,1.539
84.1098,1.559
84.1120,1.598
84.1144,1.656
84.1144,1.742
84.1174,1.816
84.1174,1.901
84.1174,1.975
84.1212,1.963
84.1212,1.935
84.1222,1.881
84.1247,1.811
84.1247,1.735
84.1272,1.579
84.1284,1.542
84.1292,1.535
84.1323,1.557
84.1323,1.595
84.1333,1.653
84.1355,1.738
84.1363,1.896
84.1373,1.955
84.1403,1.976
84.1403,1.965
84.1425,1.939
84.1433,1.885
84.1444,1.739
84.1474,1.658
84.1474,1.583
84.1474,1.543
84.1508,1.535
84.1508,1.555
84.1518,1.65
84.1546,1.734
84.1546,1.808
84.1557,1.894
84.1676,1.956
84.1766,1.978
84.1799,1.941
84.1799,1.887
84.1810,1.821
84.1810,1.743
84.1810,1.664
84.1820,1.587
84.1820,1.544
84.1820,1.557
84.1830,1.59
84.1830,1.647
84.1830,1.73
84.1839,1.802
84.1839,1.888
84.1839,1.975
84.1851,1.97
84.1851,1.944
84.1851,1.89
84.1861,1.826
84.1861,1.748
84.1861,1.593
84.1884,1.548
84.1891,1.537
84.1901,1.555
84.1932,1.587
84.1932,1.643
84.1951,1.798
84.1961,1.883
84.1972,1.948
84.2004,1.974
84.2004,1.97
84.2004,1.944
84.2035,1.895
84.2035,1.751
84.2045,1.674
84.2078,1.595
84.2078,1.546
84.2100,1.536
84.2111,1.552
84.2122,1.639
84.2144,1.718
84.2153,1.793
84.2162,1.877
84.2185,1.947
84.2197,1.974
84.2197,1.948
84.2228,1.899
84.2228,1.836
84.2236,1.754
84.2273,1.679
84.2273,1.599
84.2300,1.536
84.2300,1.552
84.2310,1.581
84.2343,1.637
84.2348,1.714
84.2348,1.788
84.2383,1.875
84.2383,1.976
84.2393,1.973
84.2417,1.948
84.2417,1.901
84.2427,1.839
84.2451,1.757
84.2461,1.601
84.2474,1.547
84.2502,1.532
84.2502,1.546
84.2523,1.574
84.2535,1.629
84.2543,1.778
84.2563,1.863
84.2573,1.935
84.2584,1.966
84.2603,1.97
84.2613,1.945
84.2623,1.899
84.2645,1.757
84.2654,1.682
84.2764,1.601
84.2856,1.547
84.2886,1.531
84.2886,1.544
84.2896,1.626
84.2896,1.699
84.2896,1.777
84.2906,1.859
84.2906,1.934
84.2906,1.968
84.2906,1.947
84.2916,1.907
84.2916,1.847
84.2916,1.764
84.2927,1.691
84.2927,1.609
84.2927,1.532
84.2937,1.544
84.2937,1.572
84.2950,1.625
84.2950,1.696
84.2957,1.772
84.2957,1.857
84.2981,1.967
84.2991,1.975
84.3013,1.95
84.3023,1.91
84.3035,1.851
84.3052,1.768
84.3064,1.614
84.3072,1.554
84.3094,1.534
84.3102,1.544
84.3113,1.569
84.3132,1.622
84.3142,1.769
84.3154,1.851
84.3183,1.929
84.3183,1.97
84.3206,1.977
84.3211,1.953
84.3221,1.915
84.3243,1.774
84.3253,1.702
84.3263,1.622
84.3283,1.558
84.3293,1.536
84.3303,1.543
84.3326,1.62
84.3326,1.688
84.3336,1.766
84.3363,1.848
84.3373,1.928
84.3404,1.967
84.3412,1.955
84.3412,1.917
84.3434,1.86
84.3444,1.78
84.3452,1.708
84.3482,1.625
84.3482,1.536
84.3492,1.542
84.3516,1.568
84.3516,1.616
84.3548,1.682
84.3548,1.764
84.3557,1.842
84.3577,1.967
84.3598,1.976
84.3606,1.957
84.3633,1.922
84.3638,1.865
84.3638,1.784
84.3672,1.629
84.3672,1.564
84.3683,1.539
84.3712,1.543
84.3712,1.567
84.3722,1.615
84.3773,1.76
84.3861,1.838
84.3949,1.919
84.3979,1.966
84.3985,1.977
84.3989,1.959
84.3989,1.927
84.3989,1.785
84.3999,1.708
84.3999,1.618
84.3999,1.544
84.4009,1.51
84.4009,1.504
84.4009,1.565
84.4020,1.621
84.4020,1.697
84.4030,1.768
84.4030,1.849
84.4030,1.898
84.4030,1.886
84.4040,1.868
84.4040,1.839
84.4040,1.782
84.4051,1.71
84.4073,1.625
84.4093,1.523
84.4093,1.544
84.4110,1.583
84.4120,1.648
84.4132,1.732
84.4164,1.824
84.4164,1.901
84.4164,2.028
84.4195,2.041
84.4195,2.026
84.4205,1.994
84.4239,1.932
84.4239,1.853
84.4274,1.689
84.4274,1.615
84.4287,1.579
84.4306,1.573
84.4306,1.592
84.4314,1.632
84.4347,1.769
84.4347,1.844
84.4359,1.925
84.4382,1.975
84.4392,1.987
84.4424,1.97
84.4424,1.939
84.4424,1.808
84.4457,1.733
84.4457,1.649
84.4468,1.574
84.4502,1.54
84.4511,1.536
84.4511,1.6
84.4533,1.658
84.4543,1.742
84.4553,1.816
84.4584,1.9
84.4584,1.956
84.4606,1.961
84.4614,1.932
84.4614,1.875
84.4648,1.804
84.4648,1.729
84.4656,1.646
84.4689,1.536
84.4689,1.529
84.4700,1.551
84.4732,1.588
84.4732,1.646
84.4741,1.73
84.4773,1.805
84.4773,1.949
84.4796,1.972
84.4803,1.958
84.4813,1.931
84.4844,1.876
84.4885,1.807
84.5017,1.649
84.5037,1.577
84.5067,1.534
84.5067,1.526
84.5067,1.549
84.5078,1.582
84.5079,1.724
84.5079,1.797
84.5079,1.884
84.5089,1.944
84.5089,1.965
84.5089,1.958
84.5099,1.877
84.5099,1.733
84.5099,1.652
84.5109,1.576
84.5115,1.533
84.5120,1.546
84.5120,1.581
84.5132,1.637
84.5139,1.719
84.5149,1.794
84.5185,1.879
84.5185,1.965
84.5214,1.959
84.5214,1.933
84.5224,1.88
84.5234,1.814
84.5258,1.736
84.5258,1.579
84.5278,1.534
84.5300,1.524
84.5300,1.543
84.5332,1.576
84.5332,1.632
84.5342,1.712
84.5366,1.873
84.5366,1.939
84.5402,1.963
84.5406,1.958
84.5406,1.933
84.5444,1.882
84.5444,1.737
84.5454,1.658
84.5477,1.581
84.5477,1.535
84.5485,1.523
84.5519,1.541
84.5519,1.626
84.5529,1.706
84.5551,1.78
84.5561,1.866
84.5584,1.933
84.5592,1.963
84.5602,1.96
84.5626,1.883
84.5632,1.82
84.5642,1.739
84.5672,1.662
84.5678,1.586
84.5678,1.532
84.5713,1.535
84.5713,1.566
84.5736,1.622
84.5741,1.7
84.5747,1.772
84.5776,1.857
84.5776,1.957
84.5788,1.955
84.5823,1.932
84.5823,1.882
84.5834,1.821
84.5857,1.739
84.5865,1.58
84.5865,1.529
84.5897,1.513
84.5905,1.527
84.5916,1.555
84.5965,1.611
84.6098,1.685
84.6128,1.844
84.6148,1.915
84.6158,1.946
84.6158,1.946
84.6158,1.921
84.6167,1.876
84.6167,1.731
84.6177,1.656
84.6177,1.575
84.6177,1.52
84.6187,1.505
84.6187,1.516
84.6187,1.599
84.6199,1.671
84.6199,1.745
84.6199,1.83
84.6210,1.904
84.6210,1.938
84.6210,1.916
84.6220,1.873
84.6243,1.814
84.6249,1.731
84.6261,1.656
84.6277,1.576
84.6282,1.518
84.6304,1.51
84.6316,1.539
84.6316,1.591
84.6348,1.664
84.6348,1.741
84.6356,1.824
84.6380,1.939
84.6388,1.944
84.6398,1.917
84.6421,1.879
84.6431,1.82
84.6441,1.736
84.6461,1.664
84.6470,1.521
84.6504,1.502
84.6504,1.511
84.6504,1.539
84.6534,1.592
84.6540,1.663
84.6547,1.824
84.6583,1.902
84.6588,1.941
84.6588,1.948
84.6609,1.929
84.6620,1.889
84.6630,1.831
84.6653,1.677
84.6661,1.594
84.6671,1.534
84.6695,1.512
84.6695,1.52
84.6706,1.547
84.6743,1.667
84.6743,1.747
84.6774,1.828
84.6774,1.909
84.6774,1.949
84.6808,1.957
84.6808,1.936
84.6818,1.844
84.6839,1.763
84.6849,1.691
84.6860,1.608
84.6893,1.546
84.6893,1.523
84.6903,1.555
84.6933,1.606
84.6940,1.672
84.6940,1.753
84.6969,1.834
84.6969,1.915
84.7002,1.958
84.7032,1.948
84.7113,1.915
84.7212,1.856
84.7245,1.776
84.7245,1.704
84.7253,1.621
84.7253,1.529
84.7253,1.533
84.7262,1.559
84.7262,1.606
84.7262,1.673
84.7272,1.754
84.7277,1.833
84.7286,1.96
84.7286,1.975
84.7292,1.953
84.7292,1.92
84.7292,1.859
84.7302,1.784
84.7302,1.63
84.7302,1.559
84.7314,1.532
84.7314,1.534
84.7314,1.559
84.7325,1.605
84.7347,1.669
84.7347,1.827
84.7358,1.908
84.7393,1.957
84.7393,1.973
84.7403,1.956
84.7427,1.924
84.7427,1.786
84.7447,1.714
84.7457,1.628
84.7467,1.56
84.7490,1.531
84.7501,1.53
84.7510,1.555
84.7533,1.661
84.7539,1.744
84.7551,1.821
84.7584,1.904
84.7584,1.955
84.7584,1.968
84.7606,1.922
84.7616,1.865
84.7626,1.791
84.7659,1.718
84.7659,1.633
84.7693,1.561
84.7693,1.53
84.7693,1.553
84.7728,1.595
84.7728,1.654
84.7738,1.738
84.7767,1.816
84.7767,1.9
84.7777,1.968
84.7812,1.955
84.7812,1.924
84.7824,1.865
84.7846,1.796
84.7854,1.721
84.7877,1.563
84.7881,1.53
84.7888,1.526
84.7922,1.55
84.7931,1.588
84.7931,1.65
84.7953,1.735
84.7961,1.896
84.7971,1.95
84.7995,1.972
84.7995,1.957
84.8029,1.927
84.8029,1.869
84.8039,1.725
84.8072,1.643
84.8072,1.57
84.8181,1.53
84.8283,1.526
84.8313,1.548
84.8313,1.646
84.8325,1.73
84.8325,1.804
84.8325,1.89
84.8335,1.948
84.8335,1.967
84.8335,1.93
84.8345,1.872
84.8345,1.805
84.8345,1.729
84.8355,1.646
84.8355,1.571
84.8355,1.532
84.8365,1.547
84.8365,1.584
84.8365,1.641
84.8376,1.726
84.8376,1.801
84.8376,1.887
84.8386,1.967
84.8408,1.959
84.8408,1.93
84.8416,1.878
84.8439,1.812
84.8449,1.733
84.8459,1.577
84.8493,1.535
84.8493,1.525
84.8503,1.546
84.8527,1.585
84.8527,1.637
84.8539,1.722
84.8562,1.883
84.8572,1.947
84.8602,1.968
84.8603,1.96
84.8613,1.935
84.8634,1.884
84.8642,1.737
84.8652,1.657
84.8683,1.581
84.8683,1.536
84.8693,1.526
84.8714,1.545
84.8723,1.636
84.8744,1.717
84.8752,1.792
84.8762,1.879
84.8784,1.944
84.8794,1.971
84.8794,1.964
84.8828,1.887
84.8828,1.823
84.8838,1.743
84.8865,1.664
84.8865,1.589
84.8875,1.537
84.8912,1.545
84.8912,1.576
84.8939,1.633
84.8942,1.716
84.8952,1.787
84.8983,1.874
84.8983,1.967
84.8993,1.962
84.9023,1.941
84.9033,1.889
84.9033,1.826
84.9064,1.745
84.9064,1.589
84.9093,1.541
84.9097,1.528
84.9097,1.544
84.9134,1.576
84.9134,1.631
84.9134,1.708
84.9174,1.87
84.9174,1.939
84.9174,1.969
84.9211,1.966
84.9211,1.942
84.9221,1.894
84.9249,1.75
84.9249,1.675
84.9272,1.594
84.9284,1.542
84.9292,1.527
84.9314,1.541
84.9383,1.625
84.9513,1.702
84.9554,1.778
84.9555,1.863
84.9555,1.934
84.9566,1.963
84.9566,1.963
84.9566,1.894
84.9566,1.832
84.9575,1.749
84.9575,1.673
84.9575,1.593
84.9585,1.537
84.9585,1.535
84.9585,1.563
84.9595,1.618
84.9595,1.692
84.9595,1.768
84.9606,1.853
84.9616,1.962
84.9616,1.968
84.9626,1.94
84.9626,1.898
84.9636,1.839
84.9648,1.755
84.9658,1.68
84.9667,1.542
84.9695,1.526
84.9705,1.538
84.9705,1.566
84.9742,1.619
84.9748,1.694
84.9748,1.854
84.9770,1.93
84.9779,1.964
84.9788,1.968
84.9824,1.946
84.9824,1.904
84.9844,1.762
84.9852,1.689
84.9862,1.605
84.9885,1.547
84.9892,1.528
84.9903,1.538
84.9934,1.617
84.9945,1.686
84.9946,1.766
84.9972,1.851
84.9972,1.926
84.9982,1.964
85.0006,1.97
85.0006,1.91
85.0034,1.851
85.0044,1.768
85.0054,1.695
85.0083,1.613
85.0086,1.551
85.0086,1.537
85.0109,1.563
85.0118,1.615
85.0128,1.684
85.0149,1.763
85.0158,1.846
85.0194,1.965
85.0194,1.971
85.0204,1.949
85.0214,1.914
85.0243,1.854
85.0252,1.771
85.0276,1.7
85.0276,1.553
85.0276,1.531
85.0313,1.538
85.0313,1.562
85.0313,1.613
85.0346,1.679
85.0355,1.841
85.0384,1.921
85.0386,1.965
85.0386,1.975
85.0423,1.952
85.0423,1.916
85.0434,1.776
85.0456,1.704
85.0456,1.626
85.0465,1.557
85.0499,1.532
85.0499,1.537
85.0521,1.61
85.0533,1.673
85.0541,1.755
85.0573,1.836
85.0658,1.919
85.0760,1.963
85.0790,1.973
85.0790,1.924
85.0800,1.866
85.0800,1.786
85.0800,1.711
85.0810,1.628
85.0810,1.561
85.0810,1.538
85.0820,1.562
85.0820,1.607
85.0820,1.672
85.0831,1.752
85.0832,1.828
85.0832,1.948
85.0842,1.955
85.0842,1.931
85.0842,1.893
85.0842,1.832
85.0852,1.755
85.0852,1.587
85.0874,1.512
85.0882,1.479
85.0914,1.478
85.0914,1.507
85.0914,1.56
85.0946,1.651
85.0949,1.836
85.0956,1.913
85.0992,1.961
85.0992,1.968
85.1004,1.964
85.1027,1.941
85.1027,1.849
85.1048,1.789
85.1069,1.71
85.1077,1.64
85.1088,1.601
85.1111,1.596
85.1117,1.655
85.1139,1.712
85.1139,1.797
85.1147,1.873
85.1171,1.958
85.1177,2.006
85.1196,2.016
85.1206,1.961
85.1226,1.902
85.1286,1.826
85.1296,1.745
85.1296,1.663
85.1306,1.589
85.1306,1.545
85.1316,1.562
85.1326,1.6
85.1326,1.66
85.1336,1.744
85.1356,1.817
85.1370,1.957
85.1386,1.973
85.1396,1.959
85.1406,1.931
85.1426,1.876
85.1436,1.803
85.1446,1.646
85.1466,1.573
85.1476,1.536
85.1486,1.529
85.1506,1.553
85.1516,1.59
85.1526,1.735
85.1546,1.807
85.1555,1.893
85.1575,1.952
85.1585,1.97
85.1600,1.958
85.1616,1.93
85.1625,1.804
85.1635,1.727
85.1695,1.645
85.1776,1.572
85.1905,1.53
85.1944,1.528
85.1944,1.584
85.1955,1.642
85.1955,1.728
85.1955,1.801
85.1965,1.888
85.1965,1.958
85.1975,1.933
85.1975,1.875
85.1975,1.808
85.1985,1.732
85.1985,1.648
85.1985,1.532
85.1995,1.525
85.1995,1.545
85.1995,1.581
85.2005,1.638
85.2005,1.722
85.2005,1.881
85.2015,1.943
85.2015,1.967
85.2025,1.961
85.2025,1.934
85.2025,1.88
85.2045,1.811
85.2045,1.652
85.2075,1.585
85.2082,1.533
85.2092,1.524
85.2108,1.544
85.2124,1.578
85.2134,1.717
85.2156,1.79
85.2156,1.878
85.2164,1.941
85.2194,1.964
85.2194,1.961
85.2204,1.938
85.2244,1.814
85.2244,1.736
85.2244,1.657
85.2275,1.58
85.2286,1.533
85.2307,1.521
85.2307,1.572
85.2315,1.629
85.2346,1.71
85.2346,1.782
85.2357,1.869
85.2392,1.938
85.2397,1.963
85.2397,1.934
85.2422,1.885
85.2432,1.82
85.2443,1.739
85.2471,1.659
85.2471,1.58
85.2481,1.519
85.2503,1.537
85.2512,1.567
85.2522,1.624
85.2543,1.702
85.2551,1.776
85.2573,1.86
85.2582,1.959
85.2591,1.956
85.2631,1.931
85.2681,1.882
85.2811,1.821
85.2851,1.738
85.2860,1.661
85.2860,1.532
85.2860,1.516
85.2870,1.531
85.2870,1.559
85.2870,1.615
85.2880,1.692
85.2880,1.852
85.2880,1.922
85.2890,1.952
85.2890,1.957
85.2890,1.926
85.2900,1.878
85.2900,1.818
85.2900,1.657
85.2910,1.584
85.2910,1.525
85.2910,1.507
85.2920,1.523
85.2920,1.55
85.2930,1.678
85.2942,1.752
85.2961,1.838
85.2971,1.91
85.2980,1.94
85.3002,1.942
85.3010,1.919
85.3043,1.814
85.3043,1.729
85.3053,1.655
85.3076,1.572
85.3083,1.517
85.3093,1.501
85.3113,1.539
85.3123,1.594
85.3133,1.665
85.3163,1.741
85.3163,1.825
85.3174,1.902
85.3194,1.94
85.3204,1.916
85.3227,1.875
85.3227,1.817
85.3234,1.733
85.3267,1.658
85.3267,1.519
85.3277,1.5
85.3297,1.512
85.3307,1.538
85.3317,1.59
85.3336,1.664
85.3346,1.741
85.3357,1.901
85.3376,1.941
85.3387,1.943
85.3406,1.922
85.3416,1.883
85.3426,1.826
85.3446,1.672
85.3456,1.588
85.3466,1.53
85.3498,1.51
85.3498,1.519
85.3507,1.546
85.3533,1.669
85.3536,1.746
85.3561,1.831
85.3567,1.909
85.3583,1.949
85.3601,1.965
85.3616,1.94
85.3616,1.839
85.3636,1.758
85.3646,1.687
85.3656,1.605
85.3679,1.557
85.3719,1.523
85.3812,1.556
85.3904,1.607
85.3934,1.676
85.3944,1.76
85.3954,1.837
85.3954,1.917
85.3964,1.968
85.3964,1.949
85.3964,1.919
85.3974,1.856
85.3976,1.777
85.3976,1.704
85.3976,1.556
85.3986,1.535
85.3986,1.538
85.3986,1.564
85.3996,1.612
85.3996,1.679
85.4006,1.761
85.4006,1.919
85.4006,1.968
85.4006,1.978
85.4016,1.959
85.4016,1.925
85.4026,1.867
85.4037,1.716
85.4062,1.63
85.4067,1.561
85.4088,1.538
85.4103,1.542
85.4113,1.566
85.4133,1.678
85.4144,1.76
85.4153,1.839
85.4175,1.922
85.4182,1.969
85.4192,1.98
85.4217,1.93
85.4217,1.87
85.4239,1.793
85.4247,1.72
85.4259,1.638
85.4267,1.567
85.4292,1.54
85.4303,1.566
85.4322,1.611
85.4333,1.673
85.4343,1.755
85.4367,1.834
85.4377,1.917
85.4377,1.984
85.4398,1.97
85.4407,1.929
85.4443,1.872
85.4444,1.797
85.4453,1.723
85.4475,1.586
85.4483,1.539
85.4493,1.539
85.4524,1.563
85.4524,1.606
85.4536,1.667
85.4544,1.757
85.4554,1.913
85.4564,1.964
85.4598,1.977
85.4609,1.963
85.4618,1.936
85.4628,1.876
85.4638,1.725
85.4672,1.642
85.4672,1.571
85.4681,1.54
85.4701,1.535
85.4713,1.559
85.4721,1.601
85.4744,1.744
85.4751,1.818
85.4771,1.902
85.4782,1.96
85.4790,1.975
85.4800,1.962
85.4822,1.876
85.4831,1.804
85.4841,1.728
85.4863,1.646
85.4874,1.573
85.4885,1.538
85.4925,1.534
85.4944,1.597
85.5036,1.656
85.5123,1.739
85.5163,1.817
85.5183,1.899
85.5183,1.956
85.5183,1.976
85.5193,1.936
85.5193,1.88
85.5193,1.81
85.5203,1.733
85.5203,1.654
85.5213,1.577
85.5214,1.535
85.5214,1.557
85.5214,1.594
85.5224,1.654
85.5224,1.737
85.5224,1.813
85.5234,1.897
85.5234,1.976
85.5234,1.982
85.5244,1.939
85.5249,1.885
85.5249,1.816
85.5254,1.74
85.5254,1.604
85.5276,1.545
85.5285,1.537
85.5296,1.558
85.5329,1.594
85.5332,1.652
85.5339,1.739
85.5373,1.896
85.5373,1.956
85.5383,1.977
85.5403,1.969
85.5414,1.947
85.5437,1.89
85.5441,1.745
85.5453,1.665
85.5467,1.589
85.5478,1.545
85.5489,1.537
85.5520,1.558
85.5520,1.592
85.5530,1.732
85.5550,1.806
85.5560,1.886
85.5570,1.953
85.5594,1.977
85.5594,1.971
85.5614,1.897
85.5643,1.829
85.5643,1.751
85.5654,1.673
85.5679,1.595
85.5689,1.55
85.5694,1.539
85.5716,1.59
85.5716,1.647
85.5747,1.728
85.5754,1.802
85.5754,1.888
85.5794,1.953
85.5794,1.983
85.5794,1.949
85.5828,1.897
85.5838,1.835
85.5848,1.753
85.5860,1.68
85.5868,1.597
85.5878,1.537
85.5903,1.555
85.5910,1.585
85.5932,1.643
85.5944,1.721
85.5950,1.793
85.5984,1.88
85.5984,1.974
85.5992,1.983
85.6032,1.952
85.6122,1.898
85.6225,1.835
85.6265,1.755
85.6276,1.611
85.6287,1.557
85.6295,1.536
85.6295,1.553
85.6295,1.584
85.6305,1.641
85.6305,1.72
85.6305,1.878
85.6316,1.947
85.6316,1.979
85.6325,1.979
85.6325,1.955
85.6335,1.907
85.6335,1.764
85.6345,1.687
85.6365,1.607
85.6365,1.556
85.6375,1.544
85.6385,1.555
85.6385,1.585
85.6396,1.717
85.6408,1.792
85.6415,1.875
85.6415,1.946
85.6425,1.979
85.6435,1.981
85.6445,1.913
85.6445,1.85
85.6455,1.769
85.6455,1.694
85.6465,1.613
85.6475,1.56
85.6495,1.544
85.6506,1.584
85.6516,1.639
85.6526,1.712
85.6546,1.788
85.6565,1.872
85.6585,1.944
85.6589,1.985
85.6595,1.959
85.6605,1.917
85.6632,1.859
85.6640,1.776
85.6650,1.703
85.6674,1.622
85.6674,1.545
85.6710,1.558
85.6710,1.584
85.6728,1.637
85.6738,1.711
85.6749,1.786
85.6758,1.87
85.6778,1.98
85.6793,1.995
85.6798,1.971
85.6832,1.923
85.6832,1.863
85.6840,1.781
85.6860,1.632
85.6870,1.577
85.6880,1.546
85.6903,1.556
85.6914,1.583
85.6923,1.636
85.6953,1.706
85.6953,1.865
85.6984,1.943
85.6984,1.98
85.6984,1.986
85.7014,1.963
85.7073,1.93
85.7214,1.786
85.7258,1.712
85.7288,1.63
85.7298,1.569
85.7298,1.549
85.7308,1.556
85.7308,1.583
85.7308,1.702
85.7320,1.782
85.7320,1.863
85.7320,1.94
85.7330,1.983
85.7330,1.991
85.7330,1.934
85.7330,1.877
85.7340,1.792
85.7340,1.722
85.7350,1.638
85.7350,1.572
85.7350,1.547
85.7360,1.566
85.7360,1.612
85.7379,1.671
85.7379,1.745
85.7390,1.824
85.7390,1.902
85.7390,1.938
85.7399,1.914
85.7409,1.875
85.7419,1.815
85.7440,1.738
85.7453,1.675
85.7471,1.626
85.7483,1.553
85.7493,1.55
85.7513,1.573
85.7533,1.617
85.7533,1.692
85.7557,1.779
85.7557,1.874
85.7566,2.04
85.7585,2.061
85.7596,2.053
85.7609,1.996
85.7645,1.932
85.7652,1.849
85.7655,1.693
85.7675,1.635
85.7675,1.599
85.7685,1.602
85.7720,1.624
85.7728,1.665
85.7738,1.726
85.7748,1.881
85.7759,1.96
85.7782,2.004
85.7803,2.015
85.7803,1.994
85.7826,1.961
85.7832,1.817
85.7842,1.741
85.7866,1.656
85.7873,1.586
85.7884,1.557
85.7912,1.555
85.7918,1.577
85.7918,1.684
85.7943,1.767
85.7953,1.843
85.7973,1.924
85.7983,1.977
85.7993,1.991
85.8019,1.944
85.8033,1.885
85.8043,1.809
85.8053,1.736
85.8077,1.652
85.8077,1.58
85.8090,1.549
85.8129,1.572
85.8224,1.614
85.8321,1.675
85.8361,1.759
85.8373,1.835
85.8392,1.919
85.8402,1.989
85.8402,1.971
85.8402,1.941
85.8412,1.885
85.8412,1.813
85.8412,1.738
85.8422,1.663
85.8422,1.55
85.8422,1.547
85.8434,1.57
85.8434,1.611
85.8434,1.671
85.8446,1.753
85.8455,1.916
85.8464,1.968
85.8474,1.985
85.8484,1.985
85.8484,1.947
85.8494,1.889
85.8495,1.743
85.8495,1.659
85.8505,1.599
85.8505,1.554
85.8505,1.568
85.8515,1.663
85.8535,1.753
85.8545,1.824
85.8557,1.909
85.8592,1.966
85.8600,1.985
85.8603,1.947
85.8622,1.894
85.8632,1.822
85.8642,1.745
85.8666,1.663
85.8676,1.589
85.8686,1.55
85.8708,1.566
85.8708,1.602
85.8732,1.659
85.8753,1.744
85.8762,1.818
85.8772,1.9
85.8783,1.985
85.8793,1.974
85.8814,1.948
85.8822,1.894
85.8832,1.824
85.8856,1.748
85.8864,1.667
85.8894,1.55
85.8895,1.544
85.8904,1.564
85.8924,1.598
85.8924,1.656
85.8944,1.738
85.8956,1.898
85.8976,1.96
85.8976,1.989
85.9009,1.974
85.9009,1.948
85.9020,1.895
85.9039,1.829
85.9059,1.678
85.9059,1.599
85.9093,1.551
85.9093,1.542
85.9104,1.561
85.9123,1.594
85.9134,1.732
85.9163,1.805
85.9163,1.892
85.9173,1.956
85.9193,1.979
85.9223,1.981
85.9324,1.954
85.9424,1.831
85.9476,1.753
85.9483,1.674
85.9493,1.602
85.9493,1.558
85.9493,1.539
85.9504,1.588
85.9504,1.643
85.9504,1.724
85.9513,1.799
85.9513,1.882
85.9513,1.948
85.9523,1.973
85.9523,1.942
85.9523,1.895
85.9523,1.829
85.9534,1.749
85.9534,1.67
85.9534,1.592
85.9544,1.532
85.9554,1.545
85.9554,1.575
85.9564,1.631
85.9564,1.71
85.9575,1.782
85.9575,1.865
85.9575,1.964
85.9584,1.963
85.9595,1.939
85.9616,1.889
85.9625,1.827
85.9659,1.745
85.9659,1.59
85.9670,1.54
85.9693,1.526
85.9699,1.541
85.9721,1.57
85.9730,1.626
85.9741,1.703
85.9750,1.864
85.9769,1.934
85.9783,1.968
85.9789,1.965
85.9821,1.939
85.9829,1.892
85.9841,1.75
85.9864,1.681
85.9864,1.606
85.9889,1.542
85.9890,1.527
85.9902,1.541
85.9919,1.626
85.9929,1.701
85.9944,1.775
85.9973,1.86
85.9973,1.934
85.9984,1.966
86.0006,1.973
86.0006,1.901
86.0044,1.842
86.0044,1.761
86.0053,1.687
86.0064,1.607
86.0083,1.567
86.0092,1.549
86.0112,1.576
86.0122,1.631
86.0132,1.703
86.0152,1.785
86.0162,1.864
86.0187,1.976
86.0193,1.981
86.0204,1.956
86.0227,1.917
86.0230,1.858
86.0237,1.775
86.0274,1.702
86.0287,1.563
86.0294,1.546
86.0328,1.556
86.0506,1.584
86.0531,1.636
86.0566,1.708
86.0578,1.868
86.0586,1.943
86.0586,1.984
86.0586,1.99
86.0596,1.967
86.0596,1.927
86.0596,1.785
86.0606,1.713
86.0616,1.632
86.0616,1.572
86.0626,1.552
86.0631,1.562
86.0636,1.639
86.0646,1.71
86.0657,1.787
86.0666,1.87
86.0666,1.949
86.0666,1.991
86.0676,1.999
86.0676,1.935
86.0676,1.876
86.0686,1.794
86.0687,1.723
86.0687,1.652
86.0687,1.577
86.0697,1.562
86.0711,1.588
86.0717,1.64
86.0728,1.708
86.0751,1.785
86.0759,1.868
86.0770,1.988
86.0789,1.995
86.0810,1.99
86.0810,1.939
86.0842,1.878
86.0842,1.799
86.0854,1.643
86.0874,1.592
86.0874,1.559
86.0904,1.562
86.0908,1.587
86.0916,1.636
86.0941,1.7
86.0955,1.859
86.0955,1.941
86.0993,1.985
86.1003,1.995
86.1003,1.973
86.1024,1.94
86.1024,1.801
86.1056,1.73
86.1056,1.646
86.1074,1.58
86.1094,1.554
86.1104,1.558
86.1114,1.63
86.1135,1.694
86.1145,1.775
86.1154,1.854
86.1175,1.931
86.1175,1.982
86.1184,1.975
86.1216,1.943
86.1224,1.884
86.1246,1.805
86.1246,1.733
86.1254,1.65
86.1276,1.583
86.1304,1.556
86.1328,1.58
86.1328,1.625
86.1334,1.688
86.1334,1.77
86.1375,1.847
86.1394,1.93
86.1434,1.999
86.1597,1.974
86.1627,1.942
86.1658,1.884
86.1680,1.81
86.1680,1.736
86.1687,1.584
86.1687,1.555
86.1696,1.555
86.1696,1.578
86.1696,1.622
86.1706,1.685
86.1706,1.766
86.1706,1.926
86.1716,1.976
86.1716,1.991
86.1716,1.987
86.1728,1.953
86.1729,1.889
86.1729,1.742
86.1738,1.659
86.1738,1.596
86.1738,1.56
86.1748,1.554
86.1748,1.577
86.1748,1.618
86.1758,1.765
86.1758,1.838
86.1758,1.922
86.1779,1.976
86.1789,1.993
86.1798,1.979
86.1835,1.895
86.1837,1.821
86.1837,1.747
86.1859,1.665
86.1873,1.593
86.1879,1.557
86.1900,1.554
86.1909,1.617
86.1919,1.676
86.1942,1.76
86.1949,1.835
86.1959,1.919
86.1992,1.975
86.2000,1.981
86.2000,1.953
86.2022,1.898
86.2028,1.827
86.2048,1.752
86.2061,1.669
86.2071,1.596
86.2093,1.555
86.2108,1.578
86.2108,1.615
86.2138,1.673
86.2138,1.757
86.2149,1.83
86.2170,1.974
86.2180,1.996
86.2190,1.985
86.2212,1.957
86.2222,1.901
86.2251,1.833
86.2251,1.757
86.2261,1.602
86.2283,1.562
86.2291,1.556
86.2301,1.577
86.2332,1.613
86.2332,1.669
86.2343,1.826
86.2364,1.913
86.2370,1.973
86.2380,1.994
86.2403,1.987
86.2403,1.961
86.2414,1.906
86.2443,1.762
86.2453,1.68
86.2483,1.604
86.2483,1.566
86.2483,1.557
86.2517,1.578
86.2544,1.611
86.2635,1.75
86.2716,1.825
86.2748,1.91
86.2758,1.973
86.2758,1.995
86.2768,1.989
86.2768,1.911
86.2775,1.845
86.2778,1.766
86.2778,1.687
86.2788,1.61
86.2788,1.565
86.2788,1.556
86.2798,1.608
86.2798,1.665
86.2798,1.744
86.2810,1.817
86.2810,1.901
86.2810,1.967
86.2820,1.986
86.2820,1.96
86.2820,1.909
86.2831,1.844
86.2840,1.764
86.2864,1.686
86.2864,1.609
86.2874,1.55
86.2915,1.567
86.2915,1.599
86.2915,1.656
86.2935,1.736
86.2956,1.808
86.2985,1.961
86.2985,1.99
86.2985,1.987
86.3019,1.963
86.3020,1.914
86.3031,1.851
86.3052,1.771
86.3074,1.617
86.3074,1.566
86.3102,1.554
86.3108,1.571
86.3108,1.601
86.3131,1.658
86.3142,1.808
86.3152,1.896
86.3182,1.963
86.3182,1.993
86.3192,1.992
86.3221,1.971
86.3221,1.921
86.3245,1.777
86.3253,1.702
86.3263,1.619
86.3291,1.57
86.3291,1.556
86.3303,1.572
86.3333,1.657
86.3333,1.731
86.3333,1.807
86.3374,1.891
86.3374,1.962
86.3384,1.993
86.3409,1.994
86.3409,1.926
86.3419,1.865
86.3440,1.783
86.3450,1.708
86.3471,1.626
86.3494,1.573
86.3494,1.57
86.3518,1.599
86.3524,1.655
86.3532,1.727
86.3564,1.803
86.3564,1.887
86.3574,1.959
86.3586,1.996
86.3596,1.971
86.3646,1.929
86.3736,1.871
86.3839,1.788
86.3872,1.713
86.3878,1.63
86.3878,1.559
86.3878,1.57
86.3889,1.598
86.3889,1.651
86.3889,1.722
86.3900,1.798
86.3900,1.957
86.3900,1.993
86.3908,1.997
86.3914,1.974
86.3918,1.933
86.3918,1.874
86.3918,1.792
86.3928,1.639
86.3931,1.578
86.3938,1.56
86.3948,1.569
86.3949,1.596
86.3960,1.648
86.3960,1.793
86.3960,1.876
86.3968,1.955
86.3980,1.992
86.3988,1.998
86.4013,1.978
86.4022,1.937
86.4033,1.799
86.4051,1.727
86.4061,1.64
86.4071,1.579
86.4091,1.558
86.4101,1.569
86.4111,1.647
86.4131,1.714
86.4141,1.791
86.4151,1.867
86.4171,1.939
86.4182,1.972
86.4201,1.972
86.4211,1.899
86.4221,1.836
86.4241,1.746
86.4251,1.667
86.4261,1.58
86.4281,1.512
86.4292,1.488
86.4301,1.507
86.4323,1.561
86.4331,1.637
86.4341,1.742
86.4362,1.845
86.4372,1.93
86.4381,1.977
86.4401,1.96
86.4411,1.943
86.4431,1.897
86.4445,1.832
86.4453,1.78
86.4464,1.648
86.4483,1.623
86.4493,1.625
86.4503,1.647
86.4523,1.697
86.4534,1.761
86.4554,1.838
86.4559,1.993
86.4564,2.035
86.4587,2.046
86.4597,2.019
86.4607,1.982
86.4627,1.92
86.4637,1.838
86.4648,1.681
86.4668,1.61
86.4718,1.58
86.4828,1.58
86.4936,1.602
86.4969,1.646
86.4976,1.787
86.4976,1.866
86.4976,1.946
86.4987,1.991
86.4987,2.001
86.4987,1.986
86.4997,1.955
86.4997,1.82
86.4997,1.746
86.5007,1.662
86.5007,1.594
86.5015,1.565
86.5017,1.564
86.5017,1.633
86.5024,1.694
86.5027,1.777
86.5030,1.851
86.5030,1.934
86.5037,1.983
86.5041,1.996
86.5041,1.95
86.5048,1.893
86.5048,1.817
86.5057,1.744
86.5059,1.661
86.5067,1.591
86.5092,1.559
86.5101,1.583
86.5111,1.626
86.5131,1.686
86.5141,1.77
86.5151,1.844
86.5172,1.927
86.5182,1.997
86.5202,1.981
86.5223,1.949
86.5244,1.82
86.5253,1.664
86.5263,1.593
86.5283,1.56
86.5293,1.557
86.5303,1.581
86.5327,1.622
86.5333,1.681
86.5353,1.84
86.5363,1.924
86.5373,1.978
86.5393,1.996
86.5403,1.983
86.5413,1.952
86.5432,1.826
86.5443,1.751
86.5453,1.67
86.5472,1.598
86.5480,1.56
86.5501,1.557
86.5513,1.618
86.5520,1.677
86.5541,1.762
86.5553,1.835
86.5563,1.92
86.5583,1.975
86.5593,1.982
86.5601,1.956
86.5615,1.9
86.5633,1.831
86.5643,1.755
86.5663,1.673
86.5673,1.601
86.5693,1.557
86.5701,1.578
86.5711,1.614
86.5731,1.672
86.5743,1.755
86.5751,1.829
86.5775,1.972
86.5821,1.994
86.5922,1.985
86.6022,1.957
86.6052,1.905
86.6062,1.836
86.6062,1.678
86.6062,1.601
86.6071,1.561
86.6071,1.555
86.6081,1.576
86.6081,1.611
86.6081,1.668
86.6092,1.824
86.6092,1.91
86.6092,1.972
86.6101,1.994
86.6101,1.985
86.6112,1.959
86.6118,1.841
86.6121,1.764
86.6121,1.684
86.6131,1.607
86.6132,1.563
86.6132,1.555
86.6141,1.608
86.6141,1.662
86.6141,1.745
86.6151,1.819
86.6161,1.904
86.6181,1.967
86.6193,1.983
86.6201,1.955
86.6222,1.904
86.6231,1.839
86.6242,1.761
86.6262,1.683
86.6273,1.559
86.6282,1.547
86.6304,1.564
86.6312,1.596
86.6331,1.651
86.6341,1.732
86.6351,1.805
86.6369,1.954
86.6379,1.979
86.6389,1.974
86.6409,1.95
86.6421,1.898
86.6429,1.836
86.6449,1.677
86.6459,1.6
86.6470,1.55
86.6491,1.537
86.6499,1.553
86.6519,1.583
86.6529,1.716
86.6541,1.79
86.6559,1.876
86.6568,1.946
86.6582,1.973
86.6599,1.971
86.6608,1.945
86.6619,1.836
86.6642,1.754
86.6648,1.679
86.6658,1.599
86.6678,1.549
86.6689,1.535
86.6699,1.55
86.6718,1.636
86.6729,1.712
86.6738,1.786
86.6764,1.872
86.6767,1.943
86.6791,1.971
86.6801,1.945
86.6812,1.9
86.6829,1.84
86.6839,1.757
86.6900,1.683
86.7071,1.602
86.7130,1.552
86.7143,1.553
86.7143,1.582
86.7150,1.636
86.7150,1.71
86.7150,1.787
86.7161,1.871
86.7170,1.977
86.7170,1.981
86.7170,1.956
86.7180,1.913
86.7180,1.854
86.7186,1.771
86.7190,1.698
86.7190,1.562
86.7190,1.547
86.7201,1.559
86.7201,1.586
86.7201,1.642
86.7211,1.714
86.7211,1.876
86.7211,1.95
86.7221,1.984
86.7221,1.986
86.7226,1.964
86.7230,1.923
86.7231,1.864
86.7250,1.709
86.7263,1.626
86.7274,1.57
86.7292,1.553
86.7303,1.563
86.7312,1.592
86.7331,1.715
86.7339,1.791
86.7349,1.875
86.7373,1.952
86.7384,1.989
86.7391,1.992
86.7412,1.97
86.7420,1.874
86.7430,1.79
86.7450,1.718
86.7461,1.637
86.7481,1.577
86.7493,1.559
86.7500,1.592
86.7520,1.644
86.7530,1.712
86.7540,1.79
86.7560,1.871
86.7570,1.949
86.7583,1.994
86.7603,1.972
86.7614,1.935
86.7621,1.877
86.7642,1.795
86.7652,1.723
86.7662,1.639
86.7682,1.558
86.7692,1.565
86.7703,1.59
86.7723,1.64
86.7732,1.707
86.7742,1.785
86.7763,1.867
86.7773,1.987
86.7790,1.997
86.7800,1.974
86.7812,1.937
86.7830,1.879
86.7840,1.799
86.7853,1.645
86.7870,1.58
86.7880,1.554
86.7893,1.561
86.7941,1.587
86.7990,1.636
86.8129,1.781
86.8152,1.861
86.8180,1.942
86.8189,1.986
86.8189,1.995
86.8199,1.976
86.8199,1.941
86.8210,1.804
86.8210,1.731
86.8219,1.648
86.8219,1.582
86.8229,1.559
86.8229,1.562
86.8239,1.635
86.8249,1.698
86.8249,1.778
86.8259,1.858
86.8259,1.939
86.8259,1.984
86.8269,1.976
86.8269,1.944
86.8279,1.886
86.8289,1.808
86.8289,1.735
86.8299,1.654
86.8299,1.557
86.8299,1.561
86.8309,1.585
86.8319,1.63
86.8329,1.692
86.8339,1.774
86.8363,1.853
86.8376,1.983
86.8383,1.995
86.8402,1.978
86.8410,1.946
86.8430,1.888
86.8440,1.814
86.8450,1.659
86.8470,1.589
86.8480,1.558
86.8490,1.556
86.8510,1.58
86.8521,1.625
86.8530,1.77
86.8551,1.846
86.8561,1.93
86.8571,1.98
86.8591,1.995
86.8601,1.981
86.8619,1.949
86.8630,1.818
86.8641,1.744
86.8660,1.663
86.8672,1.593
86.8681,1.559
86.8700,1.557
86.8710,1.625
86.8721,1.685
86.8741,1.766
86.8751,1.842
86.8772,1.927
86.8781,1.979
86.8791,1.982
86.8811,1.954
86.8821,1.894
86.8832,1.823
86.8852,1.751
86.8863,1.668
86.8873,1.562
86.8892,1.559
86.8900,1.583
86.8911,1.623
86.8932,1.681
86.8941,1.764
86.8962,1.839
86.8967,1.978
86.8976,1.996
86.9000,1.984
86.9016,1.955
86.9016,1.9
86.9037,1.829
86.9046,1.672
86.9057,1.601
86.9083,1.564
86.9093,1.557
86.9103,1.581
86.9122,1.617
86.9132,1.759
86.9155,1.833
86.9162,1.918
86.9212,1.977
86.9305,1.994
86.9413,1.984
86.9462,1.904
86.9474,1.835
86.9474,1.759
86.9482,1.678
86.9484,1.603
86.9492,1.565
86.9492,1.558
86.9502,1.616
86.9502,1.673
86.9511,1.757
86.9511,1.831
86.9521,1.916
86.9521,1.976
86.9533,1.989
86.9533,1.961
86.9541,1.907
86.9541,1.84
86.9552,1.763
86.9552,1.682
86.9561,1.565
86.9561,1.558
86.9571,1.578
86.9571,1.612
86.9581,1.669
86.9581,1.751
86.9581,1.912
86.9592,1.972
86.9592,1.994
86.9601,1.986
86.9611,1.961
86.9623,1.908
86.9641,1.842
86.9654,1.684
86.9661,1.607
86.9681,1.564
86.9692,1.553
86.9701,1.572
86.9721,1.604
86.9731,1.741
86.9741,1.815
86.9762,1.901
86.9771,1.965
86.9786,1.989
86.9801,1.984
86.9814,1.909
86.9831,1.844
86.9842,1.765
86.9851,1.686
86.9872,1.61
86.9880,1.564
86.9894,1.572
86.9910,1.603
86.9921,1.66
86.9930,1.739
86.9952,1.813
86.9960,1.899
86.9980,1.967
86.9995,1.99
87.0000,1.964
87.0020,1.915
87.0031,1.851
87.0040,1.771
87.0060,1.694
87.0070,1.567
87.0080,1.555
87.0100,1.572
87.0110,1.603
87.0120,1.66
87.0140,1.737
87.0150,1.895
87.0170,1.963
87.0180,1.993
87.0192,1.991
87.0211,1.966
87.0221,1.919
87.0231,1.857
87.0271,1.702
87.0291,1.623
87.0401,1.572
87.0492,1.559
87.0539,1.574
87.0539,1.602
87.0552,1.732
87.0559,1.807
87.0559,1.891
87.0569,1.962
87.0569,1.994
87.0569,1.994
87.0579,1.925
87.0579,1.864
87.0589,1.782
87.0589,1.708
87.0589,1.626
87.0599,1.574
87.0612,1.573
87.0619,1.601
87.0619,1.656
87.0624,1.73
87.0629,1.804
87.0629,1.888
87.0639,1.961
87.0639,1.997
87.0651,1.972
87.0651,1.928
87.0659,1.869
87.0659,1.787
87.0670,1.711
87.0670,1.576
87.0679,1.559
87.0700,1.571
87.0709,1.598
87.0719,1.652
87.0742,1.723
87.0752,1.883
87.0761,1.957
87.0782,1.993
87.0790,1.995
87.0800,1.972
87.0822,1.932
87.0832,1.79
87.0843,1.717
87.0863,1.634
87.0873,1.579
87.0893,1.561
87.0902,1.572
87.0912,1.6
87.0933,1.721
87.0942,1.797
87.0954,1.88
87.0973,1.958
87.0983,1.994
87.0993,1.999
87.1015,1.937
87.1023,1.876
87.1023,1.788
87.1053,1.711
87.1063,1.622
87.1083,1.555
87.1093,1.53
87.1103,1.55
87.1122,1.593
87.1127,1.655
87.1135,1.726
87.1165,1.803
87.1165,1.88
87.1175,1.917
87.1212,1.898
87.1212,1.874
87.1234,1.841
87.1242,1.779
87.1252,1.71
87.1273,1.562
87.1283,1.547
87.1295,1.571
87.1335,1.611
87.1386,1.679
87.1508,1.765
87.1528,1.938
87.1558,2.016
87.1567,2.054
87.1567,2.059
87.1567,2.037
87.1577,2.0
87.1577,1.853
87.1577,1.777
87.1588,1.689
87.1589,1.625
87.1589,1.601
87.1599,1.601
87.1599,1.622
87.1599,1.731
87.1611,1.808
87.1619,1.886
87.1619,1.964
87.1619,2.005
87.1629,2.012
87.1629,1.954
87.1629,1.896
87.1640,1.818
87.1652,1.744
87.1659,1.659
87.1669,1.592
87.1704,1.569
87.1704,1.592
87.1704,1.639
87.1742,1.703
87.1742,1.784
87.1766,1.86
87.1770,1.989
87.1782,2.001
87.1812,1.982
87.1818,1.947
87.1818,1.89
87.1839,1.814
87.1848,1.74
87.1858,1.588
87.1893,1.559
87.1893,1.56
87.1915,1.584
87.1915,1.63
87.1925,1.691
87.1946,1.851
87.1979,1.933
87.1997,1.996
87.2005,1.979
87.2023,1.89
87.2031,1.815
87.2041,1.742
87.2063,1.658
87.2073,1.589
87.2081,1.559
87.2103,1.557
87.2111,1.624
87.2121,1.685
87.2145,1.768
87.2145,1.845
87.2184,1.929
87.2184,1.979
87.2184,1.979
87.2224,1.95
87.2231,1.892
87.2234,1.819
87.2259,1.746
87.2259,1.662
87.2269,1.559
87.2302,1.556
87.2309,1.58
87.2311,1.622
87.2341,1.682
87.2341,1.764
87.2365,1.924
87.2372,1.978
87.2383,1.994
87.2416,1.981
87.2446,1.952
87.2464,1.896
87.2546,1.825
87.2645,1.668
87.2674,1.596
87.2677,1.562
87.2677,1.556
87.2677,1.579
87.2688,1.619
87.2688,1.762
87.2688,1.836
87.2698,1.92
87.2699,1.975
87.2699,1.993
87.2699,1.985
87.2709,1.899
87.2709,1.827
87.2709,1.753
87.2719,1.672
87.2719,1.599
87.2719,1.559
87.2729,1.575
87.2729,1.612
87.2729,1.67
87.2739,1.755
87.2750,1.829
87.2759,1.913
87.2779,1.972
87.2789,1.981
87.2799,1.954
87.2832,1.899
87.2840,1.831
87.2840,1.754
87.2862,1.673
87.2870,1.558
87.2902,1.55
87.2902,1.572
87.2914,1.608
87.2941,1.665
87.2951,1.747
87.2951,1.906
87.2974,1.967
87.2974,1.988
87.2984,1.981
87.3017,1.954
87.3026,1.899
87.3037,1.754
87.3046,1.673
87.3056,1.597
87.3083,1.554
87.3094,1.545
87.3103,1.564
87.3133,1.599
87.3133,1.737
87.3144,1.808
87.3172,1.895
87.3183,1.958
87.3183,1.981
87.3202,1.973
87.3212,1.895
87.3243,1.829
87.3245,1.75
87.3258,1.671
87.3270,1.593
87.3280,1.547
87.3290,1.554
87.3315,1.586
87.3326,1.642
87.3336,1.722
87.3348,1.796
87.3367,1.881
87.3368,1.946
87.3404,1.968
87.3414,1.943
87.3414,1.891
87.3432,1.827
87.3442,1.745
87.3473,1.667
87.3527,1.592
87.3683,1.53
87.3866,1.548
87.3916,1.579
87.3918,1.636
87.3928,1.715
87.3938,1.79
87.3948,1.94
87.3960,1.968
87.3971,1.965
87.3971,1.94
87.3981,1.891
87.3981,1.829
87.3990,1.749
87.4001,1.596
87.4001,1.546
87.4012,1.532
87.4012,1.548
87.4023,1.578
87.4023,1.636
87.4033,1.788
87.4043,1.874
87.4043,1.943
87.4053,1.973
87.4053,1.973
87.4065,1.949
87.4075,1.904
87.4075,1.761
87.4085,1.685
87.4085,1.605
87.4095,1.554
87.4105,1.54
87.4126,1.555
87.4135,1.641
87.4135,1.717
87.4145,1.793
87.4155,1.879
87.4155,1.949
87.4165,1.983
87.4165,1.984
87.4175,1.916
87.4185,1.857
87.4187,1.774
87.4198,1.7
87.4198,1.619
87.4208,1.566
87.4208,1.563
87.4218,1.592
87.4227,1.648
87.4227,1.721
87.4239,1.797
87.4239,1.881
87.4250,1.955
87.4250,1.993
87.4261,1.97
87.4270,1.926
87.4280,1.866
87.4280,1.783
87.4291,1.71
87.4291,1.572
87.4302,1.554
87.4312,1.563
87.4312,1.591
87.4322,1.648
87.4332,1.719
87.4364,1.796
87.4374,1.955
87.4374,1.99
87.4394,1.995
87.4404,1.971
87.4423,1.93
87.4423,1.871
87.4443,1.716
87.4461,1.634
87.4473,1.575
87.4481,1.555
87.4511,1.564
87.4511,1.592
87.4521,1.643
87.4548,1.79
87.4558,1.874
87.4558,1.951
87.4633,1.989
87.4785,1.994
87.4940,1.971
87.5010,1.877
87.5025,1.793
87.5029,1.721
87.5039,1.638
87.5039,1.578
87.5049,1.558
87.5059,1.565
87.5059,1.642
87.5069,1.709
87.5081,1.787
87.5081,1.869
87.5091,1.946
87.5091,1.986
87.5101,1.975
87.5112,1.938
87.5124,1.878
87.5131,1.797
87.5143,1.725
87.5144,1.642
87.5154,1.555
87.5154,1.561
87.5164,1.587
87.5174,1.637
87.5174,1.704
87.5184,1.783
87.5184,1.943
87.5194,1.985
87.5206,1.995
87.5206,1.975
87.5216,1.939
87.5216,1.88
87.5226,1.8
87.5236,1.645
87.5236,1.58
87.5246,1.555
87.5246,1.559
87.5256,1.584
87.5268,1.633
87.5268,1.778
87.5278,1.856
87.5288,1.938
87.5288,1.982
87.5298,1.994
87.5298,1.974
87.5308,1.885
87.5318,1.806
87.5318,1.735
87.5330,1.652
87.5340,1.583
87.5350,1.557
87.5350,1.559
87.5360,1.63
87.5370,1.692
87.5370,1.775
87.5380,1.853
87.5380,1.934
87.5393,1.981
87.5393,1.976
87.5413,1.944
87.5422,1.886
87.5432,1.808
87.5455,1.736
87.5462,1.655
87.5472,1.556
87.5494,1.556
87.5502,1.58
87.5532,1.625
87.5542,1.687
87.5542,1.77
87.5564,1.93
87.5575,1.979
87.5582,1.993
87.5605,1.977
87.5615,1.946
87.5626,1.889
87.5638,1.814
87.5709,1.657
87.5854,1.587
87.6051,1.557
87.6101,1.556
87.6108,1.58
87.6122,1.623
87.6130,1.766
87.6140,1.841
87.6140,1.924
87.6150,1.977
87.6150,1.993
87.6160,1.981
87.6160,1.89
87.6172,1.818
87.6172,1.745
87.6182,1.663
87.6192,1.593
87.6192,1.559
87.6202,1.579
87.6202,1.62
87.6212,1.679
87.6212,1.765
87.6222,1.84
87.6232,1.922
87.6234,1.976
87.6234,1.98
87.6244,1.951
87.6254,1.895
87.6254,1.825
87.6264,1.75
87.6274,1.666
87.6287,1.56
87.6294,1.555
87.6294,1.578
87.6304,1.616
87.6304,1.674
87.6314,1.758
87.6324,1.917
87.6324,1.973
87.6324,1.992
87.6334,1.98
87.6334,1.952
87.6334,1.897
87.6346,1.753
87.6346,1.671
87.6346,1.597
87.6356,1.558
87.6356,1.55
87.6356,1.571
87.6366,1.607
87.6366,1.748
87.6376,1.821
87.6376,1.906
87.6376,1.965
87.6386,1.987
87.6398,1.976
87.6408,1.895
87.6437,1.828
87.6437,1.753
87.6447,1.673
87.6471,1.599
87.6481,1.556
87.6491,1.572
87.6513,1.606
87.6521,1.662
87.6531,1.747
87.6552,1.82
87.6561,1.907
87.6577,1.987
87.6604,1.98
87.6604,1.954
87.6625,1.901
87.6629,1.835
87.6636,1.759
87.6666,1.68
87.6666,1.562
87.6677,1.554
87.6711,1.573
87.6711,1.606
87.6732,1.663
87.6772,1.744
87.6922,1.901
87.6943,1.964
87.6973,1.989
87.6973,1.983
87.6983,1.957
87.6983,1.907
87.6983,1.764
87.6993,1.686
87.6993,1.609
87.6993,1.564
87.7003,1.553
87.7003,1.57
87.7003,1.658
87.7013,1.738
87.7013,1.811
87.7013,1.897
87.7025,1.963
87.7025,1.988
87.7025,1.985
87.7025,1.91
87.7035,1.846
87.7035,1.768
87.7045,1.691
87.7055,1.613
87.7084,1.565
87.7094,1.568
87.7106,1.599
87.7124,1.654
87.7135,1.733
87.7151,1.805
87.7164,1.891
87.7174,1.988
87.7184,1.985
87.7204,1.958
87.7216,1.911
87.7230,1.85
87.7236,1.769
87.7256,1.693
87.7272,1.565
87.7286,1.552
87.7296,1.566
87.7306,1.596
87.7316,1.652
87.7337,1.727
87.7347,1.884
87.7357,1.954
87.7377,1.984
87.7387,1.985
87.7397,1.961
87.7417,1.914
87.7427,1.773
87.7452,1.699
87.7459,1.618
87.7468,1.568
87.7491,1.552
87.7496,1.567
87.7508,1.652
87.7532,1.726
87.7542,1.801
87.7552,1.883
87.7572,1.956
87.7582,1.987
87.7602,1.99
87.7612,1.923
87.7624,1.864
87.7643,1.783
87.7655,1.706
87.7655,1.624
87.7686,1.568
87.7686,1.553
87.7696,1.574
87.7731,1.622
87.7738,1.69
87.7738,1.763
87.7770,1.84
87.7770,1.933
87.7793,1.933
87.7812,1.903
87.7812,1.865
87.7835,1.808
87.7875,1.748
87.8025,1.622
87.8067,1.563
87.8075,1.54
87.8075,1.546
87.8075,1.577
87.8085,1.638
87.8085,1.721
87.8085,1.918
87.8095,2.003
87.8095,2.038
87.8095,2.038
87.8105,2.006
87.8115,1.962
87.8115,1.821
87.8115,1.749
87.8127,1.668
87.8127,1.612
87.8127,1.59
87.8137,1.595
87.8137,1.667
87.8137,1.733
87.8147,1.807
87.8147,1.885
87.8176,1.959
87.8176,1.996
87.8188,2.0
87.8223,1.934
87.8223,1.873
87.8233,1.792
87.8257,1.717
87.8257,1.635
87.8266,1.575
87.8285,1.559
87.8295,1.584
87.8322,1.634
87.8343,1.699
87.8347,1.778
87.8361,1.859
87.8373,1.977
87.8381,1.985
87.8412,1.962
87.8412,1.926
87.8422,1.868
87.8437,1.789
87.8448,1.634
87.8471,1.573
87.8483,1.549
87.8491,1.553
87.8516,1.577
87.8523,1.626
87.8530,1.691
87.8552,1.85
87.8560,1.928
87.8570,1.97
87.8603,1.979
87.8603,1.96
87.8613,1.926
87.8635,1.791
87.8635,1.719
87.8673,1.637
87.8673,1.573
87.8673,1.548
87.8714,1.552
87.8733,1.622
87.8743,1.765
87.8753,1.842
87.8764,1.923
87.8785,1.979
87.8793,1.959
87.8824,1.926
87.8824,1.868
87.8824,1.793
87.8854,1.721
87.8864,1.64
87.8865,1.546
87.8903,1.548
87.8903,1.572
87.8925,1.618
87.8964,1.681
87.9105,1.761
87.9135,1.915
87.9157,1.963
87.9157,1.976
87.9167,1.961
87.9167,1.93
87.9167,1.871
87.9177,1.725
87.9177,1.642
87.9177,1.575
87.9187,1.546
87.9187,1.546
87.9187,1.569
87.9187,1.611
87.9197,1.752
87.9197,1.827
87.9197,1.911
87.9208,1.961
87.9208,1.975
87.9208,1.96
87.9218,1.873
87.9230,1.8
87.9239,1.728
87.9248,1.646
87.9271,1.578
87.9281,1.545
87.9312,1.566
87.9312,1.607
87.9322,1.666
87.9349,1.748
87.9349,1.821
87.9360,1.904
87.9392,1.957
87.9392,1.959
87.9402,1.93
87.9426,1.875
87.9426,1.804
87.9448,1.731
87.9468,1.649
87.9468,1.545
87.9503,1.541
87.9503,1.563
87.9503,1.602
87.9537,1.66
87.9537,1.742
87.9548,1.898
87.9582,1.952
87.9589,1.972
87.9589,1.958
87.9623,1.93
87.9623,1.875
87.9634,1.731
87.9657,1.649
87.9665,1.578
87.9684,1.541
87.9689,1.535
87.9695,1.557
87.9733,1.593
87.9733,1.73
87.9744,1.802
87.9767,1.886
87.9771,1.942
87.9804,1.961
87.9804,1.951
87.9804,1.87
87.9843,1.801
87.9843,1.727
87.9854,1.645
87.9873,1.572
87.9885,1.533
87.9885,1.546
87.9905,1.58
87.9921,1.636
87.9933,1.717
87.9947,1.79
87.9957,1.873
87.9978,1.953
87.9987,1.945
87.9998,1.918
88.0038,1.865
88.0079,1.8
88.0206,1.723
88.0251,1.642
88.0254,1.528
88.0254,1.519
88.0261,1.538
88.0261,1.573
88.0271,1.63
88.0271,1.711
88.0283,1.783
88.0291,1.927
88.0291,1.951
88.0291,1.946
88.0301,1.92
88.0301,1.869
88.0301,1.805
88.0311,1.649
88.0311,1.574
88.0311,1.532
88.0321,1.523
88.0321,1.543
88.0321,1.574
88.0331,1.63
88.0344,1.782
88.0344,1.868
88.0373,1.932
88.0383,1.958
88.0393,1.955
88.0413,1.93
88.0423,1.817
88.0433,1.739
88.0453,1.662
88.0463,1.588
88.0487,1.542
88.0487,1.532
88.0494,1.551
88.0528,1.639
88.0528,1.717
88.0538,1.789
88.0572,1.873
88.0582,1.939
88.0582,1.966
88.0605,1.942
88.0605,1.893
88.0615,1.833
88.0639,1.754
88.0645,1.679
88.0655,1.601
88.0682,1.555
88.0692,1.561
88.0724,1.59
88.0724,1.645
88.0724,1.722
88.0758,1.795
88.0758,1.878
88.0766,1.974
88.0800,1.974
88.0800,1.95
88.0805,1.904
88.0837,1.847
88.0845,1.765
88.0845,1.691
88.0884,1.563
88.0884,1.55
88.0884,1.564
88.0918,1.594
88.0918,1.648
88.0947,1.722
88.0947,1.879
88.0958,1.948
88.0981,1.98
88.0993,1.98
88.1001,1.956
88.1033,1.912
88.1033,1.853
88.1043,1.7
88.1073,1.62
88.1073,1.568
88.1083,1.553
88.1106,1.566
88.1106,1.594
88.1227,1.72
88.1318,1.793
88.1350,1.875
88.1359,1.947
88.1360,1.98
88.1360,1.983
88.1369,1.958
88.1369,1.859
88.1369,1.778
88.1379,1.705
88.1379,1.625
88.1379,1.571
88.1389,1.554
88.1389,1.591
88.1389,1.645
88.1398,1.714
88.1398,1.786
88.1398,1.869
88.1409,1.942
88.1409,1.976
88.1409,1.959
88.1418,1.92
88.1420,1.863
88.1440,1.781
88.1450,1.708
88.1460,1.626
88.1484,1.552
88.1491,1.561
88.1500,1.586
88.1534,1.637
88.1536,1.706
88.1536,1.781
88.1572,1.936
88.1582,1.973
88.1592,1.979
88.1604,1.958
88.1614,1.919
88.1635,1.862
88.1635,1.712
88.1653,1.629
88.1683,1.57
88.1683,1.55
88.1694,1.557
88.1718,1.584
88.1718,1.635
88.1739,1.777
88.1747,1.856
88.1758,1.932
88.1794,1.972
88.1794,1.978
88.1794,1.957
88.1827,1.865
88.1827,1.786
88.1838,1.713
88.1872,1.632
88.1879,1.571
88.1879,1.549
88.1911,1.58
88.1911,1.629
88.1934,1.696
88.1939,1.772
88.1945,1.851
88.1986,1.928
88.1986,1.97
88.1986,1.959
88.2017,1.925
88.2017,1.868
88.2028,1.792
88.2052,1.722
88.2059,1.639
88.2069,1.551
88.2092,1.556
88.2103,1.58
88.2133,1.628
88.2133,1.692
88.2142,1.77
88.2167,1.927
88.2167,1.97
88.2177,1.981
88.2212,1.964
88.2248,1.93
88.2399,1.873
88.2451,1.727
88.2460,1.645
88.2460,1.579
88.2460,1.553
88.2470,1.556
88.2470,1.579
88.2470,1.627
88.2480,1.768
88.2480,1.846
88.2480,1.925
88.2490,1.97
88.2490,1.981
88.2490,1.967
88.2500,1.88
88.2500,1.805
88.2500,1.734
88.2510,1.651
88.2512,1.584
88.2512,1.555
88.2512,1.58
88.2522,1.625
88.2522,1.685
88.2544,1.766
88.2552,1.841
88.2562,1.921
88.2594,1.983
88.2594,1.967
88.2604,1.937
88.2614,1.882
88.2626,1.81
88.2653,1.739
88.2665,1.658
88.2673,1.559
88.2697,1.558
88.2697,1.581
88.2705,1.624
88.2738,1.684
88.2738,1.766
88.2749,1.921
88.2771,1.971
88.2782,1.987
88.2804,1.973
88.2813,1.944
88.2823,1.888
88.2848,1.746
88.2853,1.664
88.2863,1.595
88.2892,1.561
88.2900,1.557
88.2901,1.58
88.2932,1.677
88.2939,1.759
88.2939,1.833
88.2962,1.917
88.2972,1.967
88.3003,1.982
88.3003,1.97
88.3015,1.888
88.3041,1.817
88.3041,1.742
88.3051,1.663
88.3075,1.591
88.3075,1.556
88.3085,1.575
88.3117,1.613
88.3126,1.671
88.3136,1.753
88.3146,1.828
88.3156,1.911
88.3182,1.984
88.3194,1.973
88.3202,1.946
88.3234,1.892
88.3234,1.824
88.3242,1.751
88.3270,1.6
88.3270,1.563
88.3293,1.556
88.3334,1.579
88.3358,1.615
88.3527,1.672
88.3558,1.754
88.3597,1.91
88.3597,1.967
88.3607,1.985
88.3617,1.976
88.3617,1.951
88.3628,1.899
88.3637,1.758
88.3637,1.678
88.3637,1.605
88.3649,1.566
88.3649,1.558
88.3659,1.578
88.3669,1.668
88.3669,1.749
88.3679,1.823
88.3679,1.907
88.3688,1.966
88.3698,1.988
88.3698,1.981
88.3708,1.904
88.3708,1.839
88.3718,1.762
88.3728,1.685
88.3728,1.61
88.3738,1.569
88.3738,1.58
88.3748,1.613
88.3748,1.668
88.3758,1.746
88.3768,1.819
88.3768,1.904
88.3781,1.989
88.3788,1.982
88.3798,1.959
88.3818,1.908
88.3828,1.844
88.3838,1.768
88.3858,1.615
88.3868,1.571
88.3878,1.561
88.3898,1.579
88.3908,1.612
88.3918,1.667
88.3939,1.744
88.3948,1.901
88.3958,1.965
88.3978,1.988
88.3988,1.984
88.4008,1.959
88.4019,1.91
88.4028,1.771
88.4048,1.695
88.4057,1.618
88.4067,1.571
88.4087,1.56
88.4103,1.577
88.4107,1.661
88.4127,1.736
88.4137,1.81
88.4147,1.896
88.4167,1.963
88.4178,1.989
88.4197,1.964
88.4207,1.918
88.4217,1.859
88.4238,1.78
88.4247,1.705
88.4257,1.625
88.4277,1.579
88.4287,1.582
88.4297,1.611
88.4317,1.667
88.4327,1.742
88.4388,1.814
88.4536,1.896
88.4536,1.983
88.4546,1.976
88.4546,1.943
88.4556,1.891
88.4566,1.826
88.4566,1.74
88.4576,1.573
88.4576,1.513
88.4586,1.492
88.4596,1.504
88.4746,1.523
88.4800,1.577
88.4805,1.752
88.4805,1.856
88.4815,1.932
88.4815,1.958
88.4825,1.955
88.4825,1.928
88.4835,1.901
88.4835,1.789
88.4845,1.736
88.4845,1.67
88.4855,1.62
88.4855,1.604
88.4865,1.613
88.4865,1.694
88.4875,1.765
88.4875,1.839
88.4885,1.918
88.4885,1.991
88.4895,2.024
88.4895,2.002
88.4905,1.959
88.4905,1.898
88.4915,1.814
88.4915,1.739
88.4925,1.657
88.4925,1.598
88.4925,1.586
88.4935,1.614
88.4945,1.661
88.4945,1.727
88.4955,1.799
88.4955,1.883
88.4966,1.993
88.4975,1.996
88.4996,1.974
88.5005,1.933
88.5025,1.876
88.5035,1.793
88.5046,1.642
88.5065,1.585
88.5075,1.565
88.5085,1.574
88.5107,1.6
88.5115,1.652
88.5125,1.792
88.5145,1.873
88.5155,1.95
88.5165,1.985
88.5184,1.991
88.5194,1.968
88.5215,1.929
88.5224,1.791
88.5234,1.72
88.5254,1.64
88.5264,1.58
88.5284,1.56
88.5294,1.568
88.5304,1.645
88.5314,1.711
88.5334,1.787
88.5344,1.867
88.5364,1.944
88.5374,1.983
88.5384,1.968
88.5404,1.931
88.5414,1.872
88.5434,1.794
88.5474,1.722
88.5516,1.642
88.5573,1.566
88.5645,1.591
88.5678,1.64
88.5683,1.704
88.5683,1.781
88.5683,1.94
88.5683,1.981
88.5693,1.989
88.5693,1.968
88.5693,1.933
88.5693,1.877
88.5703,1.727
88.5703,1.646
88.5703,1.583
88.5713,1.559
88.5713,1.565
88.5713,1.589
88.5723,1.7
88.5733,1.779
88.5843,1.857
88.5843,1.936
88.5843,1.981
88.5853,1.99
88.5853,1.936
88.5863,1.879
88.5863,1.802
88.5873,1.731
88.5873,1.65
88.5883,1.586
88.5883,1.561
88.5903,1.589
88.5913,1.635
88.5923,1.696
88.5942,1.776
88.5952,1.852
88.5962,1.933
88.5982,1.988
88.5992,1.97
88.6002,1.937
88.6022,1.881
88.6032,1.806
88.6042,1.733
88.6062,1.591
88.6072,1.564
88.6092,1.564
88.6102,1.587
88.6112,1.632
88.6132,1.693
88.6142,1.774
88.6152,1.928
88.6172,1.975
88.6182,1.988
88.6202,1.971
88.6212,1.939
88.6222,1.883
88.6242,1.739
88.6252,1.659
88.6262,1.59
88.6282,1.562
88.6292,1.561
88.6301,1.586
88.6321,1.686
88.6331,1.766
88.6341,1.841
88.6361,1.923
88.6371,1.972
88.6392,1.987
88.6401,1.94
88.6411,1.883
88.6431,1.811
88.6441,1.739
88.6451,1.658
88.6471,1.589
88.6481,1.555
88.6491,1.58
88.6511,1.62
88.6521,1.677
88.6531,1.757
88.6573,1.831
88.6661,1.912
88.6750,1.978
88.6780,1.963
88.6810,1.933
88.6817,1.877
88.6820,1.807
88.6820,1.733
88.6820,1.582
88.6830,1.55
88.6830,1.547
88.6830,1.569
88.6840,1.609
88.6840,1.665
88.6840,1.817
88.6850,1.9
88.6850,1.954
88.6850,1.969
88.6860,1.958
88.6860,1.928
88.6860,1.874
88.6870,1.733
88.6870,1.653
88.6870,1.583
88.6880,1.547
88.6890,1.543
88.6900,1.566
88.6920,1.66
88.6930,1.741
88.6941,1.812
88.6960,1.896
88.6970,1.952
88.6980,1.971
88.7000,1.96
88.7010,1.878
88.7020,1.812
88.7040,1.738
88.7049,1.658
88.7059,1.587
88.7081,1.549
88.7089,1.566
88.7102,1.601
88.7119,1.659
88.7129,1.74
88.7149,1.812
88.7159,1.896
88.7169,1.954
88.7189,1.965
88.7199,1.939
88.7209,1.886
88.7229,1.821
88.7239,1.746
88.7249,1.669
88.7269,1.596
88.7279,1.55
88.7289,1.572
88.7309,1.607
88.7319,1.663
88.7329,1.742
88.7568,1.813
88.7578,1.959
88.7578,1.981
88.7588,1.973
88.7588,1.947
88.7588,1.896
88.7598,1.833
88.7598,1.757
88.7608,1.605
88.7608,1.564
88.7618,1.557
88.7618,1.579
88.7618,1.611
88.7628,1.665
88.7632,1.814
88.7638,1.898
88.7668,1.962
88.7758,1.985
88.7847,1.982
88.7874,1.955
88.7897,1.906
88.7907,1.766
88.7907,1.69
88.7907,1.615
88.7917,1.571
88.7917,1.56
88.7917,1.578
88.7917,1.665
88.7927,1.742
88.7927,1.812
88.7937,1.896
88.7937,1.962
88.7947,1.987
88.7947,1.984
88.7958,1.912
88.7958,1.848
88.7958,1.769
88.7967,1.695
88.7967,1.618
88.7967,1.57
88.7977,1.576
88.7977,1.606
88.7977,1.662
88.7987,1.738
88.7987,1.808
88.7987,1.89
88.7997,1.986
88.7997,1.984
88.7997,1.959
88.8007,1.912
88.8017,1.852
88.8037,1.772
88.8047,1.698
88.8067,1.57
88.8077,1.556
88.8087,1.574
88.8109,1.603
88.8118,1.656
88.8127,1.73
88.8147,1.886
88.8157,1.955
88.8172,1.985
88.8186,1.982
88.8196,1.958
88.8206,1.915
88.8226,1.856
88.8236,1.703
88.8256,1.621
88.8266,1.571
88.8276,1.557
88.8296,1.57
88.8306,1.598
88.8316,1.724
88.8336,1.798
88.8346,1.879
88.8356,1.95
88.8376,1.982
88.8386,1.985
88.8396,1.918
88.8417,1.859
88.8426,1.778
88.8446,1.706
88.8456,1.626
88.8466,1.571
88.8486,1.567
88.8496,1.595
88.8506,1.647
88.8526,1.718
88.8536,1.793
88.8545,1.872
88.8565,1.946
88.8575,1.983
88.8595,1.958
88.8615,1.918
88.8615,1.86
88.8635,1.78
88.8645,1.709
88.8655,1.571
88.8675,1.553
88.8685,1.563
88.8695,1.591
88.8715,1.644
88.8725,1.712
88.8805,1.868
88.8858,1.943
88.8955,1.98
88.8994,1.985
88.8994,1.962
88.8994,1.923
88.9004,1.865
88.9004,1.714
88.9004,1.633
88.9014,1.575
88.9014,1.556
88.9014,1.563
88.9024,1.588
88.9024,1.707
88.9024,1.784
88.9034,1.864
88.9034,1.94
88.9044,1.979
88.9044,1.984
88.9044,1.926
88.9054,1.869
88.9054,1.788
88.9054,1.717
88.9064,1.635
88.9064,1.574
88.9074,1.56
88.9094,1.587
88.9114,1.636
88.9124,1.702
88.9134,1.781
88.9154,1.86
88.9164,1.937
88.9174,1.986
88.9184,1.966
88.9204,1.931
88.9214,1.871
88.9224,1.794
88.9254,1.722
88.9256,1.577
88.9274,1.554
88.9284,1.559
88.9293,1.584
88.9313,1.633
88.9324,1.697
88.9343,1.853
88.9355,1.932
88.9364,1.975
88.9373,1.984
88.9393,1.965
88.9413,1.932
88.9423,1.874
88.9435,1.727
88.9453,1.645
88.9463,1.581
88.9474,1.555
88.9493,1.556
88.9503,1.583
88.9523,1.691
88.9533,1.77
88.9543,1.847
88.9563,1.928
88.9573,1.974
88.9583,1.986
88.9603,1.936
88.9613,1.879
88.9633,1.803
88.9643,1.731
88.9653,1.65
88.9673,1.582
88.9682,1.556
88.9692,1.581
88.9712,1.625
88.9722,1.687
88.9742,1.768
88.9752,1.844
88.9762,1.925
88.9782,1.986
88.9792,1.969
88.9802,1.938
88.9822,1.88
88.9856,1.807
88.9872,1.733
88.9958,1.582
89.0032,1.551
89.0051,1.551
89.0081,1.576
89.0081,1.619
89.0081,1.677
89.0091,1.834
89.0091,1.916
89.0091,1.968
89.0101,1.982
89.0101,1.967
89.0111,1.935
89.0111,1.879
89.0111,1.734
89.0121,1.652
89.0127,1.583
89.0131,1.55
89.0131,1.55
89.0131,1.574
89.0142,1.674
89.0142,1.755
89.0142,1.832
89.0161,1.914
89.0171,1.967
89.0181,1.984
89.0201,1.942
89.0211,1.887
89.0231,1.815
89.0241,1.741
89.0251,1.66
89.0271,1.589
89.0282,1.549
89.0291,1.574
89.0311,1.612
89.0321,1.67
89.0331,1.754
89.0351,1.828
89.0361,1.91
89.0381,1.985
89.0391,1.973
89.0401,1.944
89.0420,1.889
89.0430,1.82
89.0440,1.745
89.0460,1.593
89.0470,1.556
89.0480,1.551
89.0500,1.573
89.0510,1.609
89.0520,1.668
89.0540,1.824
89.0550,1.909
89.0560,1.965
89.0580,1.985
89.0590,1.974
89.0611,1.947
89.0620,1.825
89.0630,1.75
89.0650,1.671
89.0660,1.597
89.0670,1.556
89.0690,1.55
89.0700,1.572
89.0720,1.664
89.0730,1.746
89.0740,1.819
89.0760,1.905
89.0770,1.964
89.0780,1.985
89.0799,1.949
89.0809,1.897
89.0819,1.832
89.0839,1.755
89.0849,1.676
89.0859,1.601
89.0879,1.55
89.0889,1.571
89.0899,1.605
89.0939,1.661
89.0979,1.742
89.1029,1.815
89.1109,1.961
89.1149,1.983
89.1158,1.978
89.1158,1.952
89.1158,1.9
89.1168,1.835
89.1168,1.757
89.1168,1.604
89.1178,1.56
89.1178,1.549
89.1178,1.569
89.1188,1.602
89.1188,1.659
89.1188,1.814
89.1198,1.898
89.1198,1.961
89.1198,1.985
89.1208,1.98
89.1208,1.955
89.1219,1.842
89.1228,1.764
89.1248,1.688
89.1258,1.61
89.1273,1.559
89.1288,1.541
89.1298,1.55
89.1308,1.625
89.1328,1.696
89.1338,1.76
89.1348,1.837
89.1368,1.897
89.1378,1.916
89.1388,1.879
89.1408,1.823
89.1418,1.755
89.1438,1.68
89.1448,1.613
89.1458,1.56
89.1478,1.52
89.1488,1.533
89.1498,1.564
89.1518,1.623
89.1527,1.716
89.1537,1.803
89.1557,1.989
89.1567,2.029
89.1587,2.034
89.1597,2.01
89.1607,1.959
89.1627,1.896
89.1637,1.818
89.1647,1.657
89.1667,1.606
89.1678,1.591
89.1687,1.604
89.1707,1.632
89.1717,1.684
89.1727,1.826
89.1747,1.907
89.1757,1.975
89.1777,2.003
89.1787,2.003
89.1797,1.976
89.1817,1.867
89.1827,1.783
89.1837,1.707
89.1857,1.627
89.1867,1.572
89.1877,1.556
89.1897,1.594
89.1906,1.647
89.1926,1.72
89.1942,1.794
89.1946,1.877
89.1966,1.95
89.1976,1.982
89.2026,1.959
89.2096,1.916
89.2136,1.858
89.2206,1.775
89.2226,1.702
89.2236,1.621
89.2236,1.549
89.2236,1.558
89.2246,1.587
89.2246,1.64
89.2246,1.711
89.2256,1.784
89.2256,1.94
89.2256,1.976
89.2266,1.979
89.2266,1.955
89.2276,1.915
89.2276,1.703
89.2285,1.624
89.2285,1.565
89.2285,1.546
89.2296,1.556
89.2306,1.583
89.2315,1.703
89.2325,1.779
89.2345,1.861
89.2355,1.936
89.2375,1.973
89.2385,1.98
89.2395,1.918
89.2405,1.858
89.2425,1.78
89.2445,1.709
89.2455,1.628
89.2465,1.569
89.2475,1.548
89.2495,1.582
89.2505,1.632
89.2515,1.699
89.2535,1.778
89.2545,1.857
89.2565,1.935
89.2575,1.982
89.2585,1.96
89.2605,1.924
89.2616,1.866
89.2625,1.786
89.2645,1.714
89.2655,1.571
89.2665,1.548
89.2684,1.554
89.2694,1.579
89.2704,1.629
89.2724,1.694
89.2744,1.853
89.2754,1.931
89.2765,1.973
89.2774,1.983
89.2796,1.962
89.2804,1.926
89.2814,1.869
89.2834,1.719
89.2844,1.636
89.2854,1.573
89.2874,1.549
89.2884,1.554
89.2904,1.578
89.2914,1.692
89.2924,1.772
89.2944,1.85
89.2954,1.929
89.2974,1.973
89.2984,1.985
89.3004,1.929
89.3004,1.872
89.3028,1.795
89.3043,1.723
89.3043,1.643
89.3065,1.575
89.3073,1.552
89.3123,1.577
89.3206,1.625
89.3295,1.686
89.3315,1.766
89.3343,1.843
89.3343,1.925
89.3343,1.981
89.3353,1.964
89.3353,1.931
89.3353,1.875
89.3363,1.799
89.3363,1.727
89.3363,1.578
89.3373,1.548
89.3373,1.547
89.3373,1.574
89.3383,1.617
89.3383,1.677
89.3383,1.835
89.3393,1.916
89.3393,1.964
89.3393,1.975
89.3402,1.959
89.3412,1.929
89.3422,1.872
89.3436,1.726
89.3452,1.643
89.3462,1.573
89.3472,1.542
89.3492,1.541
89.3502,1.563
89.3517,1.665
89.3532,1.748
89.3542,1.822
89.3562,1.903
89.3572,1.954
89.3582,1.97
89.3602,1.923
89.3612,1.866
89.3622,1.795
89.3642,1.722
89.3652,1.641
89.3672,1.572
89.3682,1.538
89.3692,1.559
89.3702,1.6
89.3722,1.658
89.3732,1.74
89.3752,1.814
89.3762,1.897
89.3771,1.967
89.3791,1.954
89.3801,1.926
89.3811,1.869
89.3831,1.798
89.3841,1.725
89.3851,1.645
89.3871,1.54
89.3881,1.535
89.3891,1.556
89.3911,1.597
89.3921,1.655
89.3931,1.738
89.3951,1.811
89.3961,1.952
89.3981,1.97
89.3991,1.959
89.4001,1.932
89.4021,1.877
89.4031,1.808
89.4041,1.655
89.4061,1.583
89.4071,1.547
89.4081,1.541
89.4101,1.564
89.4111,1.6
89.4121,1.658
89.4141,1.815
89.4150,1.898
89.4180,1.958
89.4223,1.979
89.4281,1.969
89.4362,1.942
89.4380,1.824
89.4400,1.748
89.4410,1.668
89.4410,1.596
89.4410,1.557
89.4420,1.55
89.4420,1.572
89.4420,1.664
89.4430,1.747
89.4430,1.82
89.4440,1.905
89.4440,1.966
89.4450,1.986
89.4450,1.954
89.4450,1.902
89.4460,1.837
89.4460,1.76
89.4460,1.68
89.4470,1.607
89.4480,1.565
89.4490,1.577
89.4500,1.61
89.4519,1.665
89.4529,1.746
89.4539,1.82
89.4559,1.904
89.4569,1.991
89.4579,1.985
89.4599,1.959
89.4609,1.908
89.4629,1.845
89.4639,1.767
89.4649,1.689
89.4669,1.57
89.4679,1.56
89.4689,1.579
89.4709,1.611
89.4719,1.667
89.4729,1.746
89.4749,1.902
89.4759,1.967
89.4769,1.992
89.4790,1.987
89.4799,1.964
89.4809,1.912
89.4829,1.85
89.4839,1.696
89.4849,1.619
89.4869,1.574
89.4879,1.562
89.4898,1.58
89.4908,1.61
89.4918,1.743
89.4938,1.814
89.4948,1.899
89.4958,1.966
89.4978,1.994
89.4988,1.99
89.5008,1.917
89.5018,1.857
89.5028,1.777
89.5048,1.703
89.5058,1.625
89.5068,1.575
89.5088,1.577
89.5098,1.607
89.5111,1.662
89.5128,1.736
89.5138,1.809
89.5148,1.893
89.5168,1.964
89.5178,1.993
89.5198,1.968
89.5208,1.924
89.5218,1.866
89.5238,1.785
89.5248,1.711
89.5258,1.58
89.5297,1.565
89.5338,1.579
89.5391,1.607
89.5477,1.66
89.5507,1.732
89.5517,1.889
89.5517,1.96
89.5517,1.992
89.5527,1.993
89.5527,1.969
89.5527,1.926
89.5537,1.788
89.5537,1.715
89.5537,1.636
89.5547,1.581
89.5547,1.564
89.5547,1.578
89.5557,1.605
89.5557,1.728
89.5557,1.802
89.5567,1.886
89.5567,1.96
89.5577,1.992
89.5587,1.995
89.5602,1.931
89.5617,1.872
89.5627,1.792
89.5637,1.72
89.5656,1.64
89.5666,1.586
89.5676,1.578
89.5696,1.604
89.5706,1.657
89.5726,1.726
89.5736,1.8
89.5746,1.882
89.5766,1.957
89.5776,1.996
89.5786,1.973
89.5806,1.933
89.5816,1.876
89.5826,1.796
89.5847,1.725
89.5856,1.59
89.5876,1.57
89.5887,1.577
89.5896,1.605
89.5916,1.657
89.5926,1.725
89.5936,1.88
89.5956,1.956
89.5966,1.992
89.5976,1.998
89.5996,1.977
89.6006,1.94
89.6015,1.802
89.6035,1.731
89.6045,1.65
89.6065,1.592
89.6075,1.574
89.6085,1.579
89.6105,1.604
89.6115,1.721
89.6125,1.797
89.6145,1.875
89.6155,1.953
89.6165,1.993
89.6185,2.002
89.6195,1.943
89.6205,1.886
89.6225,1.807
89.6235,1.736
89.6255,1.656
89.6265,1.594
89.6275,1.578
89.6295,1.603
89.6305,1.652
89.6315,1.718
89.6335,1.796
89.6345,1.873
89.6355,1.993
89.6398,2.001
89.6484,1.982
89.6588,1.946
89.6614,1.889
89.6634,1.811
89.6644,1.74
89.6644,1.598
89.6644,1.575
89.6654,1.579
89.6654,1.604
89.6654,1.652
89.6664,1.714
89.6664,1.87
89.6664,1.949
89.6674,1.992
89.6674,2.0
89.6674,1.981
89.6684,1.948
89.6684,1.816
89.6684,1.745
89.6694,1.663
89.6694,1.6
89.6694,1.575
89.6704,1.578
89.6704,1.649
89.6714,1.711
89.6724,1.79
89.6744,1.865
89.6754,1.946
89.6773,1.991
89.6784,2.001
89.6793,1.953
89.6813,1.898
89.6823,1.821
89.6843,1.751
89.6853,1.67
89.6863,1.605
89.6883,1.579
89.6893,1.603
89.6903,1.646
89.6923,1.706
89.6934,1.785
89.6943,1.859
89.6963,1.987
89.6974,2.0
89.6993,1.981
89.7003,1.951
89.7013,1.895
89.7033,1.822
89.7043,1.751
89.7053,1.604
89.7073,1.574
89.7083,1.573
89.7103,1.598
89.7113,1.639
89.7123,1.699
89.7142,1.852
89.7152,1.933
89.7162,1.982
89.7182,1.998
89.7192,1.984
89.7212,1.953
89.7222,1.827
89.7232,1.757
89.7252,1.676
89.7262,1.608
89.7272,1.577
89.7292,1.576
89.7302,1.641
89.7322,1.7
89.7332,1.781
89.7342,1.854
89.7362,1.933
89.7372,1.985
89.7382,2.0
89.7402,1.957
89.7412,1.904
89.7422,1.835
89.7442,1.764
89.7474,1.684
89.7559,1.613
89.7653,1.578
89.7671,1.603
89.7698,1.64
89.7701,1.699
89.7701,1.778
89.7711,1.849
89.7711,1.984
89.7711,2.0
89.7721,1.989
89.7721,1.961
89.7731,1.907
89.7731,1.84
89.7731,1.688
89.7741,1.62
89.7741,1.586
89.7741,1.58
89.7751,1.603
89.7751,1.64
89.7751,1.696
89.7761,1.845
89.7761,1.926
89.7773,1.982
89.7781,2.002
89.7791,1.99
89.7811,1.963
89.7821,1.846
89.7831,1.772
89.7851,1.696
89.7861,1.625
89.7871,1.587
89.7890,1.583
89.7900,1.64
89.7910,1.695
89.7930,1.775
89.7941,1.843
89.7950,1.926
89.7970,1.983
89.7980,2.003
89.8000,1.97
89.8010,1.916
89.8020,1.852
89.8040,1.778
89.8050,1.702
89.8060,1.629
89.8080,1.582
89.8090,1.603
89.8100,1.636
89.8120,1.691
89.8130,1.77
89.8150,1.84
89.8160,1.98
89.8170,2.001
89.8190,1.994
89.8200,1.968
89.8210,1.918
89.8230,1.858
89.8240,1.709
89.8250,1.636
89.8269,1.595
89.8279,1.586
89.8289,1.605
89.8309,1.637
89.8319,1.69
89.8339,1.838
89.8349,1.92
89.8359,1.982
89.8381,2.004
89.8389,1.996
89.8399,1.964
89.8419,1.844
89.8429,1.76
89.8439,1.678
89.8459,1.6
89.8469,1.549
89.8479,1.533
89.8499,1.569
89.8509,1.62
89.8529,1.692
89.8559,1.754
89.8575,1.833
89.8658,1.898
89.8748,1.968
89.8788,1.95
89.8799,1.9
89.8799,1.839
89.8799,1.761
89.8808,1.703
89.8808,1.643
89.8808,1.622
89.8818,1.658
89.8818,1.691
89.8818,1.746
89.8828,1.814
89.8828,1.879
89.8828,2.025
89.8838,2.049
89.8838,2.044
89.8838,2.018
89.8848,1.97
89.8848,1.911
89.8848,1.754
89.8858,1.672
89.8868,1.624
89.8878,1.609
89.8888,1.622
89.8908,1.649
89.8918,1.701
89.8928,1.837
89.8948,1.915
89.8980,1.979
89.8988,2.006
89.8998,1.935
89.9017,1.878
89.9027,1.797
89.9037,1.728
89.9057,1.65
89.9067,1.599
89.9077,1.599
89.9097,1.628
89.9114,1.682
89.9127,1.749
89.9137,1.82
89.9147,1.899
89.9168,1.967
89.9177,1.997
89.9187,1.973
89.9207,1.932
89.9217,1.875
89.9227,1.796
89.9247,1.729
89.9257,1.599
89.9267,1.582
89.9287,1.594
89.9297,1.623
89.9317,1.673
89.9327,1.739
89.9337,1.89
89.9357,1.961
89.9367,1.992
89.9376,1.996
89.9396,1.972
89.9406,1.934
89.9416,1.798
89.9436,1.73
89.9446,1.653
89.9466,1.598
89.9477,1.582
89.9486,1.594
89.9506,1.62
89.9516,1.736
89.9526,1.808
89.9546,1.884
89.9556,1.957
89.9566,1.991
89.9586,1.995
89.9596,1.935
89.9606,1.879
89.9626,1.801
89.9636,1.732
89.9656,1.654
89.9666,1.598
89.9678,1.589
89.9696,1.617
89.9706,1.666
89.9716,1.729
89.9736,1.802
89.9746,1.88
89.9755,1.991
89.9775,1.996
89.9815,1.973
89.9895,1.937
89.9905,1.882
89.9991,1.807
90.0006,1.74
90.0029,1.604
90.0035,1.584
90.0035,1.59
90.0035,1.614
90.0045,1.663
90.0045,1.725
90.0045,1.875
90.0055,1.949
90.0055,1.989
90.0055,1.995
90.0055,1.975
90.0065,1.94
90.0065,1.81
90.0065,1.741
90.0075,1.662
90.0075,1.603
90.0075,1.582
90.0085,1.586
90.0101,1.611
90.0115,1.718
90.0124,1.795
90.0134,1.869
90.0154,1.943
90.0174,1.985
90.0174,1.994
90.0194,1.94
90.0204,1.887
90.0224,1.813
90.0234,1.745
90.0244,1.667
90.0264,1.604
90.0274,1.584
90.0284,1.608
90.0304,1.653
90.0324,1.712
90.0324,1.787
90.0344,1.861
90.0354,1.938
90.0364,1.99
90.0384,1.971
90.0394,1.939
90.0414,1.884
90.0424,1.811
90.0434,1.744
90.0454,1.6
90.0464,1.575
90.0484,1.576
90.0494,1.6
90.0523,1.64
90.0533,1.697
90.0533,1.774
90.0543,1.922
90.0553,1.966
90.0573,1.977
90.0593,1.961
90.0603,1.929
90.0613,1.876
90.0633,1.739
90.0643,1.661
90.0654,1.594
90.0663,1.565
90.0683,1.565
90.0703,1.588
90.0713,1.628
90.0723,1.76
90.0743,1.833
90.0753,1.91
90.0767,1.958
90.0783,1.969
90.0793,1.955
90.0805,1.873
90.0823,1.805
90.0833,1.735
90.0843,1.657
90.0863,1.59
90.0872,1.559
90.0902,1.557
90.0912,1.621
90.0992,1.676
90.1062,1.756
90.1082,1.827
90.1112,1.907
90.1112,1.956
90.1122,1.957
90.1122,1.928
90.1122,1.875
90.1132,1.81
90.1132,1.741
90.1132,1.664
90.1142,1.597
90.1142,1.561
90.1142,1.584
90.1152,1.622
90.1152,1.677
90.1152,1.757
90.1162,1.826
90.1162,1.958
90.1172,1.974
90.1192,1.964
90.1202,1.937
90.1212,1.886
90.1232,1.822
90.1242,1.752
90.1251,1.607
90.1272,1.573
90.1281,1.569
90.1311,1.592
90.1311,1.628
90.1321,1.682
90.1331,1.829
90.1352,1.91
90.1361,1.966
90.1371,1.984
90.1391,1.974
90.1401,1.947
90.1421,1.897
90.1431,1.761
90.1441,1.687
90.1461,1.617
90.1471,1.58
90.1481,1.575
90.1501,1.598
90.1511,1.686
90.1521,1.764
90.1541,1.832
90.1551,1.914
90.1561,1.971
90.1581,1.99
90.1591,1.981
90.1611,1.905
90.1620,1.844
