81.8475,1.4907
81.8539,1.5771
81.8539,1.6684
81.8539,1.9217
81.8549,1.9373
81.8549,1.8919
81.8602,1.7294
81.8602,1.6305
81.8602,1.5383
81.8602,1.4256
81.8610,1.311
81.8670,1.312
81.8670,1.3335
81.8670,1.3973
81.8670,1.5979
81.8746,1.6952
81.8746,1.8355
81.8746,1.9482
81.8746,1.9242
81.8754,1.8186
81.8806,1.7427
81.8806,1.5602
81.8806,1.4483
81.8806,1.3304
81.8876,1.303
81.8876,1.3292
81.8876,1.4029
81.8886,1.4999
81.8886,1.5966
81.8943,1.8666
81.8943,1.9757
81.8943,2.0123
81.8943,1.9467
81.9008,1.7652
81.9016,1.6624
81.9016,1.5767
81.9016,1.3247
81.9016,1.3073
81.9077,1.3047
81.9077,1.3283
81.9077,1.5038
81.9077,1.6045
81.9088,1.7052
81.9147,1.8642
81.9157,2.0311
81.9157,1.9799
81.9157,1.8642
81.9211,1.6722
81.9211,1.5769
81.9221,1.4655
81.9221,1.3397
81.9221,1.3035
81.9284,1.3159
81.9284,1.3928
81.9284,1.4987
81.9284,1.7057
81.9357,1.8812
81.9357,1.9892
81.9357,2.0346
81.9357,1.8646
81.9357,1.7731
81.9417,1.6709
81.9417,1.5771
81.9417,1.3328
81.9417,1.2912
81.9486,1.2824
81.9486,1.377
81.9486,1.4843
81.9486,1.5945
81.9486,1.6876
81.9546,2.0007
81.9546,2.0594
81.9556,1.9864
81.9556,1.8704
81.9556,1.6896
81.9616,1.5707
81.9616,1.4669
81.9616,1.2752
81.9626,1.2799
81.9698,1.3067
81.9698,1.39
81.9698,1.5771
81.9698,1.6726
81.9698,1.8537
81.9760,1.9765
81.9760,1.9836
81.9760,1.8857
81.9760,1.7862
81.9832,1.6607
81.9832,1.4571
81.9832,1.305
81.9832,1.267
81.9832,1.2829
81.9882,1.359
81.9893,1.4712
81.9893,1.5824
81.9893,1.8661
81.9966,1.9922
81.9966,2.0656
81.9966,2.0251
81.9966,1.7959
81.9966,1.6694
82.0029,1.5722
82.0029,1.4901
82.0029,1.2713
82.0029,1.2945
82.0029,1.3075
82.0089,1.3699
82.0099,1.5818
82.0099,1.6917
82.0099,1.8692
82.0165,2.0734
82.0165,2.0357
82.0165,1.897
82.0165,1.8167
82.0175,1.5724
82.0235,1.4676
82.0245,1.311
82.0245,1.2685
82.0245,1.2792
82.0305,1.3356
82.0305,1.4393
82.0310,1.5726
82.0310,1.8616
82.0310,1.996
82.0368,2.11
82.0368,2.0564
82.0368,1.8122
82.0368,1.6898
82.0439,1.5614
82.0439,1.4654
82.0439,1.2655
82.0445,1.2758
82.0445,1.293
82.0496,1.3433
82.0496,1.5885
82.0503,1.6756
82.0503,1.8589
82.0503,2.1349
82.0563,2.083
82.0573,1.9375
82.0573,1.8224
82.0573,1.5599
82.0638,1.4622
82.0646,1.2983
82.0646,1.2569
82.0646,1.2758
82.0646,1.326
82.0706,1.4305
82.0715,1.5544
82.0715,1.8627
82.0715,2.0243
82.0778,2.1355
82.0778,2.0851
82.0778,1.8334
82.0778,1.6748
82.0778,1.5619
82.0838,1.4747
82.0838,1.2644
82.0838,1.2653
82.0838,1.2694
82.0911,1.4144
82.0911,1.5711
82.0911,1.6622
82.0911,1.8587
82.0911,2.1312
82.0974,2.0931
82.0974,1.9551
82.0974,1.8437
82.0974,1.6004
82.0974,1.5074
82.1034,1.3058
82.1044,1.2606
82.1044,1.2638
82.1044,1.3219
82.1108,1.4329
82.1118,1.5619
82.1118,1.8516
82.1118,2.0037
82.1118,2.1634
82.1179,2.1184
82.1179,1.8349
82.1179,1.7271
82.1179,1.6101
82.1273,1.4779
82.1283,1.255
82.1293,1.2629
82.1293,1.2735
82.1293,1.3356
82.1313,1.5497
82.1313,1.6538
82.1313,1.8488
82.1313,2.1576
82.1378,2.1126
82.1378,2.0074
82.1378,1.8674
82.1378,1.5812
82.1388,1.4967
82.1446,1.3127
82.1446,1.2539
82.1446,1.2615
82.1446,1.2977
82.1446,1.4072
82.1505,1.5552
82.1515,1.8102
82.1515,2.0256
82.1515,2.1529
82.1589,2.1008
82.1589,1.8664
82.1589,1.7429
82.1589,1.5893
82.1589,1.5047
82.1649,1.2477
82.1649,1.2557
82.1649,1.2687
82.1649,1.3095
82.1718,1.5428
82.1718,1.6757
82.1718,1.8132
82.1718,2.0007
82.1718,2.1393
82.1786,1.9789
82.1786,1.8469
82.1786,1.5855
82.1786,1.477
82.1856,1.3073
82.1856,1.2503
82.1856,1.2584
82.1856,1.2848
82.1856,1.3791
82.1919,1.5156
82.1919,1.8047
82.1919,2.0061
82.1919,2.1331
82.1919,2.1252
82.1979,1.8687
82.1989,1.7399
82.1989,1.5959
82.1989,1.4867
82.2057,1.2465
82.2057,1.2467
82.2057,1.2557
82.2057,1.2737
82.2057,1.5109
82.2124,1.6334
82.2124,1.7884
82.2124,2.0123
82.2124,2.1166
82.2194,2.0138
82.2194,1.858
82.2194,1.5831
82.2194,1.4648
82.2201,1.2929
82.2255,1.2512
82.2255,1.2591
82.2255,1.2644
82.2255,1.3343
82.2329,1.4867
82.2329,1.8029
82.2329,2.0147
82.2329,2.1741
82.2329,2.1634
82.2399,1.8709
82.2409,1.7461
82.2409,1.6144
82.2409,1.494
82.2419,1.2484
82.2459,1.2484
82.2459,1.2482
82.2459,1.2612
82.2459,1.4775
82.2533,1.6165
82.2533,1.7815
82.2533,2.0011
82.2533,2.1738
82.2543,2.0434
82.2596,1.8972
82.2600,1.5644
82.2600,1.4417
82.2600,1.3107
82.2659,1.248
82.2659,1.2634
82.2659,1.2619
82.2659,1.3414
82.2670,1.4749
82.2730,1.7603
82.2730,1.9928
82.2730,2.1156
82.2730,2.1329
82.2796,1.8876
82.2796,1.7687
82.2796,1.6133
82.2796,1.4702
82.2803,1.248
82.2862,1.2492
82.2862,1.2494
82.2862,1.2561
82.2862,1.5036
82.2862,1.6279
82.2922,1.7335
82.2932,2.0016
82.2932,2.1231
82.2932,2.0609
82.3003,1.8454
82.3003,1.7558
82.3003,1.495
82.3003,1.3304
82.3010,1.2484
82.3066,1.255
82.3066,1.2672
82.3066,1.3388
82.3066,1.4582
82.3137,1.7217
82.3137,1.9771
82.3137,2.1342
82.3137,2.1475
82.3148,1.8908
82.3201,1.7494
82.3201,1.6109
82.3201,1.4819
82.3210,1.2475
82.3271,1.248
82.3271,1.2531
82.3271,1.2546
82.3271,1.4744
82.3271,1.5915
82.3332,1.7312
82.3332,1.9484
82.3332,2.1383
82.3340,2.0356
82.3340,1.9124
82.3400,1.6272
82.3400,1.4912
82.3400,1.3371
82.3410,1.2488
82.3496,1.2552
82.3536,1.2595
82.3546,1.3086
82.3556,1.4464
82.3556,1.6735
82.3556,1.9452
82.3556,2.1329
82.3566,2.1801
82.3566,1.8985
82.3611,1.7582
82.3611,1.6442
82.3611,1.4991
82.3611,1.2477
82.3611,1.2454
82.3672,1.2578
82.3672,1.2559
82.3672,1.4168
82.3672,1.5749
82.3745,1.6924
82.3745,1.9512
82.3745,2.1633
82.3745,2.1004
82.3745,1.9189
82.3807,1.6523
82.3807,1.5295
82.3807,1.3431
82.3807,1.2529
82.3807,1.2507
82.3869,1.2554
82.3878,1.2827
82.3878,1.405
82.3878,1.7041
82.3949,1.9332
82.3949,2.1023
82.3949,2.1747
82.3949,1.9114
82.3949,1.8254
82.4012,1.6444
82.4012,1.485
82.4012,1.2495
82.4012,1.243
82.4082,1.2507
82.4082,1.2555
82.4082,1.4327
82.4082,1.5557
82.4082,1.6802
82.4146,1.9313
82.4146,2.2004
82.4146,2.1353
82.4146,1.9111
82.4210,1.8235
82.4219,1.5338
82.4219,1.4065
82.4219,1.2593
82.4219,1.2576
82.4279,1.2535
82.4299,1.3064
82.4299,1.4352
82.4299,1.675
82.4299,1.9283
82.4350,2.0646
82.4350,2.1906
82.4350,1.9225
82.4350,1.8062
82.4436,1.6532
82.4436,1.5081
82.4436,1.2649
82.4436,1.2452
82.4436,1.3062
82.4501,1.4205
82.4501,1.5447
82.4501,1.6641
82.4501,2.0939
82.4572,2.1794
82.4622,2.1348
82.4633,1.8091
82.4633,1.6776
82.4633,1.5507
82.4633,1.4142
82.4643,1.2417
82.4643,1.2522
82.4643,1.2614
82.4708,1.293
82.4708,1.5396
82.4708,1.6699
82.4718,1.9054
82.4718,2.0723
82.4762,2.1143
82.4772,1.9313
82.4772,1.7974
82.4772,1.6791
82.4772,1.3967
82.4831,1.2589
82.4831,1.2454
82.4841,1.2488
82.4841,1.2878
82.4914,1.398
82.4914,1.5462
82.4914,1.8661
82.4914,2.0646
82.4914,2.1783
82.4977,2.0958
82.4977,1.8263
82.4977,1.6891
82.4977,1.4963
82.5042,1.4249
82.5042,1.246
82.5042,1.246
82.5052,1.2529
82.5052,1.2831
82.5107,1.4892
82.5107,1.6529
82.5107,1.8676
82.5107,2.1702
82.5182,2.1153
82.5182,1.9345
82.5182,1.8353
82.5182,1.5679
82.5182,1.4342
82.5246,1.2709
82.5246,1.2426
82.5246,1.2514
82.5246,1.2685
82.5246,1.3628
82.5307,1.5115
82.5317,1.8599
82.5317,2.0453
82.5317,2.1565
82.5387,1.9866
82.5387,1.8634
82.5387,1.6896
82.5387,1.5503
82.5387,1.2659
82.5450,1.2417
82.5450,1.246
82.5450,1.2522
82.5458,1.402
82.5523,1.5006
82.5523,1.6315
82.5523,1.8537
82.5523,2.1454
82.5523,2.1419
82.5585,1.999
82.5585,1.7089
82.5585,1.558
82.5585,1.4348
82.5649,1.2799
82.5649,1.2525
82.5659,1.2535
82.5720,1.276
82.5730,1.3382
82.5730,1.6403
82.5730,1.8325
82.5730,2.0393
82.5730,2.185
82.5740,1.9727
82.5781,1.8556
82.5781,1.7294
82.5791,1.5707
82.5791,1.2865
82.5860,1.2445
82.5860,1.2512
82.5865,1.2584
82.5865,1.3652
82.5865,1.5145
82.5919,1.6388
82.5919,1.8074
82.5919,2.2017
82.5919,2.1434
82.5993,1.9849
82.5993,1.7547
82.5993,1.5803
82.5993,1.4804
82.5993,1.3253
82.6057,1.249
82.6057,1.2505
82.6057,1.2829
82.6057,1.3585
82.6129,1.6501
82.6129,1.786
82.6165,2.0206
82.6165,2.1953
82.6165,2.0633
82.6187,1.8734
82.6187,1.7281
82.6195,1.5707
82.6195,1.296
82.6195,1.2449
82.6255,1.2527
82.6255,1.2576
82.6265,1.3626
82.6265,1.5134
82.6329,1.6326
82.6329,2.0534
82.6329,2.1936
82.6340,2.1631
82.6340,2.0282
82.6392,1.7506
82.6392,1.6341
82.6402,1.5019
82.6402,1.2925
82.6465,1.2524
82.6465,1.257
82.6472,1.2645
82.6472,1.3493
82.6472,1.6409
82.6530,1.8004
82.6533,2.0162
82.6533,2.1773
82.6533,2.0318
82.6598,1.8466
82.6598,1.7519
82.6598,1.5855
82.6598,1.3103
82.6606,1.249
82.6664,1.2529
82.6664,1.2522
82.6664,1.4014
82.6664,1.5147
82.6664,1.617
82.6734,2.0284
82.6734,2.1432
82.6734,2.1419
82.6734,2.0508
82.6814,1.7541
82.6824,1.614
82.6824,1.4657
82.6824,1.3287
82.6824,1.2482
82.6866,1.2576
82.6866,1.2599
82.6866,1.3041
82.6874,1.6694
82.6941,1.732
82.6941,2.0408
82.6941,2.2533
82.6941,2.1143
82.6949,1.9718
82.7003,1.7515
82.7003,1.5499
82.7003,1.3866
82.7003,1.2593
82.7073,1.2467
82.7077,1.2589
82.7077,1.3279
82.7077,1.5895
82.7077,1.6137
82.7139,2.0823
82.7139,2.2064
82.7139,2.1424
82.7139,2.0789
82.7139,1.8679
82.7199,1.7044
82.7209,1.4929
82.7209,1.3067
82.7209,1.2464
82.7278,1.2593
82.7278,1.3084
82.7278,1.4074
82.7278,1.6907
82.7278,1.828
82.7342,1.9341
82.7342,2.1147
82.7342,2.1034
82.7342,1.9666
82.7413,1.8017
82.7413,1.5942
82.7413,1.4417
82.7413,1.26
82.7413,1.2527
82.7477,1.2692
82.7477,1.3695
82.7477,1.5194
82.7477,1.6722
82.7547,2.0029
82.7547,2.1018
82.7547,2.212
82.7547,2.1023
82.7547,1.8334
82.7610,1.6463
82.7610,1.575
82.7610,1.4704
82.7617,1.2527
82.7617,1.3004
82.7677,1.2516
82.7677,1.5139
82.7677,1.5497
82.7677,1.7074
82.7754,1.9426
82.7754,2.4055
82.7759,2.1798
82.7759,1.8852
82.7759,1.7041
82.7816,1.6148
82.7816,1.3731
82.7816,1.2505
82.7816,1.251
82.7897,1.279
82.7917,1.3414
82.7917,1.528
82.7917,1.6456
82.7917,1.9765
82.7952,2.1893
82.7952,2.1561
82.7952,1.9782
82.7958,1.8876
82.8021,1.6596
82.8021,1.549
82.8021,1.2569
82.8021,1.2623
82.8021,1.2662
82.8085,1.2608
82.8085,1.468
82.8085,1.5604
82.8092,1.7179
82.8092,2.2281
82.8152,2.3624
82.8152,2.2615
82.8152,1.9679
82.8152,1.6279
82.8229,1.4228
82.8229,1.5458
82.8229,1.3262
82.8229,1.2653
82.8229,1.2584
82.8292,1.4444
82.8292,1.4629
82.8292,1.8734
82.8292,2.1154
82.8365,2.0999
82.8365,2.2943
82.8365,1.9958
82.8365,1.8919
82.8365,1.9883
82.8426,1.3326
82.8426,1.429
82.8426,1.2574
82.8426,1.2405
82.8499,1.3964
82.8499,1.3892
82.8499,1.6516
82.8499,1.7264
82.8499,2.0839
82.8562,2.2889
82.8562,2.3219
82.8562,1.8074
82.8562,1.7929
82.8562,1.6589
82.8631,1.6005
82.8631,1.2417
82.8631,1.2957
82.8631,1.3034
82.8702,1.3217
82.8702,1.6576
82.8702,1.7384
82.8712,1.9433
82.8712,2.1552
82.8762,2.1783
82.8772,1.9988
82.8772,1.9332
82.8772,1.5398
82.8832,1.4565
82.8832,1.2784
82.8842,1.246
82.8842,1.3304
82.8852,1.2694
82.8902,1.498
82.8902,1.8096
82.8902,2.0097
82.8902,1.8938
82.8991,2.2662
82.9001,1.8224
82.9001,1.8316
82.9001,1.9281
82.9012,1.5488
82.9036,1.3587
82.9041,1.245
82.9041,1.2432
82.9041,1.3765
82.9041,1.3289
82.9102,1.573
82.9102,1.6429
82.9102,1.9701
82.9112,2.2313
82.9181,2.4393
82.9181,2.0911
82.9181,1.6375
82.9181,1.5779
82.9181,1.4579
82.9244,1.266
82.9244,1.2709
82.9244,1.3662
82.9244,1.4067
82.9307,1.5985
82.9317,1.6986
82.9317,1.7843
82.9317,2.182
82.9317,2.1792
82.9374,2.0056
82.9374,1.9465
82.9381,1.7845
82.9381,1.5344
82.9451,1.3234
82.9451,1.2415
82.9451,1.2409
82.9451,1.3962
82.9451,1.5349
82.9513,1.483
82.9513,1.5959
82.9513,2.2973
82.9513,2.3774
82.9513,2.2463
82.9583,1.9682
82.9583,1.7956
82.9583,1.6315
82.9583,1.5458
82.9656,1.2855
82.9656,1.263
82.9656,1.2627
82.9656,1.3577
82.9656,1.6232
82.9720,1.7729
82.9720,1.8623
82.9720,2.0573
82.9720,2.3736
82.9793,2.0054
82.9793,1.8807
82.9793,1.9079
82.9793,1.4982
82.9793,1.2467
82.9854,1.2614
82.9854,1.3202
82.9854,1.3724
82.9854,1.3448
82.9926,1.5722
82.9926,1.8647
82.9926,2.2002
82.9926,2.4063
82.9926,2.2311
82.9988,2.1428
82.9988,1.7611
82.9988,1.6667
82.9988,1.6369
82.9988,1.2527
83.0058,1.3459
83.0088,1.3506
83.0118,1.368
83.0128,1.5242
83.0128,1.7144
83.0128,1.9251
83.0128,2.2465
83.0138,2.1601
83.0138,2.1736
83.0194,1.8857
83.0194,1.7101
83.0201,1.6446
83.0201,1.3238
83.0265,1.2447
83.0265,1.258
83.0265,1.3135
83.0265,1.3806
83.0273,1.7826
83.0326,1.9304
83.0326,2.0074
83.0326,2.2051
83.0326,2.1481
83.0400,2.0237
83.0400,1.7416
83.0400,1.6015
83.0400,1.345
83.0400,1.2672
83.0464,1.2479
83.0464,1.2666
83.0464,1.4584
83.0464,1.5668
83.0464,1.6435
83.0533,2.0524
83.0533,2.3093
83.0533,2.2212
83.0533,2.1175
83.0607,1.705
83.0607,1.7586
83.0607,1.6124
83.0607,1.3112
83.0607,1.2572
83.0670,1.3039
83.0670,1.3956
83.0670,1.4014
83.0670,1.6371
83.0742,1.6688
83.0742,2.0057
83.0742,2.1445
83.0742,2.1166
83.0742,1.9697
83.0804,1.7792
83.0804,1.5299
83.0804,1.3367
83.0804,1.2655
83.0874,1.2747
83.0877,1.2837
83.0877,1.3425
83.0877,1.5287
83.0877,1.7588
83.0938,2.0899
83.0938,2.2422
83.0938,2.2668
83.0938,2.2135
83.0938,1.7648
83.1008,1.6516
83.1008,1.575
83.1008,1.2636
83.1008,1.252
83.1081,1.2694
83.1081,1.2608
83.1081,1.5981
83.1081,1.66
83.1081,1.8321
83.1144,2.1151
83.1144,2.2259
83.1144,2.1381
83.1144,1.9615
83.1224,1.8002
83.1224,1.5739
83.1244,1.3178
83.1244,1.2782
83.1254,1.3274
83.1274,1.2824
83.1274,1.2962
83.1274,1.4314
83.1274,1.7599
83.1350,2.0568
83.1350,2.239
83.1350,2.2536
83.1350,1.9457
83.1350,1.8711
83.1413,1.6883
83.1413,1.5707
83.1413,1.2696
83.1413,1.2522
83.1413,1.257
83.1473,1.273
83.1483,1.5458
83.1483,1.6872
83.1483,1.7965
83.1552,2.1989
83.1552,2.1803
83.1552,2.1387
83.1552,1.9937
83.1552,1.6589
83.1616,1.6501
83.1616,1.5218
83.1616,1.2816
83.1616,1.251
83.1707,1.305
83.1707,1.4609
83.1707,1.6019
83.1707,1.735
83.1707,1.9988
83.1770,2.1689
83.1770,2.0112
83.1770,1.8471
83.1770,1.6928
83.1840,1.4682
83.1844,1.2769
83.1845,1.2486
83.1845,1.2615
83.1845,1.3699
83.1899,1.4796
83.1899,1.6497
83.1899,1.81
83.1899,2.1861
83.1899,2.2964
83.1971,2.1646
83.1971,1.8301
83.1971,1.696
83.1971,1.6559
83.2046,1.477
83.2046,1.254
83.2046,1.2552
83.2046,1.3086
83.2055,1.3787
83.2104,1.7014
83.2104,1.7417
83.2112,1.9651
83.2112,2.1843
83.2182,2.1961
83.2182,1.9947
83.2182,1.8511
83.2182,1.5818
83.2182,1.4584
83.2244,1.2747
83.2244,1.2497
83.2244,1.2572
83.2244,1.3866
83.2306,1.5374
83.2316,1.6441
83.2316,2.0277
83.2326,2.1681
83.2326,2.2698
83.2376,2.1903
83.2376,1.8649
83.2376,1.7579
83.2376,1.6095
83.2376,1.2885
83.2446,1.254
83.2446,1.2689
83.2446,1.2869
83.2446,1.4738
83.2522,1.6459
83.2522,1.7849
83.2522,2.0232
83.2522,2.2491
83.2522,2.1681
83.2586,1.9664
83.2586,1.8906
83.2586,1.6471
83.2586,1.5329
83.2657,1.29
83.2657,1.2694
83.2657,1.2885
83.2657,1.3684
83.2657,1.4955
83.2718,1.7656
83.2718,1.9577
83.2718,2.1289
83.2718,2.2696
83.2790,2.0132
83.2790,1.8987
83.2795,1.7237
83.2795,1.5876
83.2795,1.3065
83.2850,1.2689
83.2850,1.269
83.2850,1.2525
83.2850,1.4834
83.2850,1.603
83.2921,1.723
83.2921,2.14
83.2921,2.2023
83.2921,2.1683
83.2995,2.0213
83.2995,1.7162
83.2995,1.6009
83.2995,1.497
83.2995,1.2968
83.3058,1.2664
83.3058,1.2818
83.3058,1.3598
83.3058,1.4639
83.3131,1.7144
83.3132,1.9812
83.3132,2.1829
83.3132,2.2369
83.3132,2.0369
83.3191,1.9186
83.3191,1.7631
83.3191,1.5987
83.3191,1.3502
83.3262,1.2548
83.3262,1.2636
83.3262,1.3232
83.3262,1.4826
83.3262,1.6202
83.3326,1.7209
83.3326,2.1244
83.3326,2.2636
83.3326,2.2587
83.3326,2.0628
83.3456,1.7939
83.3466,1.5792
83.3476,1.5117
83.3476,1.342
83.3476,1.2484
83.3476,1.2677
83.3476,1.3264
83.3476,1.4406
83.3486,1.7086
83.3527,1.9298
83.3527,2.1346
83.3527,2.2165
83.3527,2.0254
83.3598,1.8711
83.3598,1.7701
83.3598,1.6065
83.3598,1.3169
83.3598,1.2563
83.3664,1.2614
83.3664,1.3422
83.3664,1.4003
83.3664,1.5833
83.3735,1.7316
83.3735,2.1432
83.3735,2.2656
83.3735,2.2113
83.3735,2.0463
83.3799,1.7866
83.3799,1.6497
83.3799,1.5372
83.3799,1.294
83.3799,1.2889
83.3860,1.3099
83.3870,1.3052
83.3871,1.4695
83.3871,1.6412
83.3931,1.8867
83.3941,2.1505
83.3941,2.2143
83.3951,2.0481
83.3951,1.9099
83.4002,1.7815
83.4002,1.5209
83.4002,1.321
83.4013,1.2537
83.4064,1.2585
83.4074,1.2854
83.4074,1.4025
83.4074,1.6178
83.4074,1.6791
83.4135,2.1574
83.4135,2.3174
83.4135,2.1908
83.4135,2.0453
83.4206,1.7466
83.4206,1.6305
83.4206,1.5325
83.4206,1.3086
83.4216,1.2529
83.4267,1.2576
83.4267,1.3037
83.4267,1.4069
83.4267,1.7247
83.4267,1.9208
83.4338,2.1166
83.4368,2.1644
83.4368,2.0718
83.4378,1.9296
83.4409,1.8381
83.4409,1.5081
83.4409,1.3339
83.4419,1.2563
83.4419,1.2544
83.4548,1.2977
83.4568,1.4275
83.4568,1.5606
83.4578,1.7099
83.4578,2.0903
83.4578,2.2474
83.4588,2.2244
83.4588,2.0498
83.4588,1.7751
83.4607,1.66
83.4607,1.5424
83.4607,1.3416
83.4617,1.2567
83.4677,1.2578
83.4677,1.3174
83.4677,1.5889
83.4687,1.7496
83.4687,1.8475
83.4737,2.0757
83.4747,2.1981
83.4747,2.098
83.4747,1.9328
83.4757,1.7723
83.4817,1.558
83.4817,1.3849
83.4817,1.2595
83.4826,1.2516
83.4886,1.3015
83.4886,1.4117
83.4886,1.5385
83.4896,1.8475
83.4896,2.1171
83.4946,2.2782
83.4946,2.1724
83.4956,1.9589
83.4956,1.8104
83.5016,1.6816
83.5016,1.5645
83.5026,1.2582
83.5026,1.255
83.5036,1.269
83.5076,1.2923
83.5086,1.5535
83.5086,1.6799
83.5086,1.8325
83.5146,2.2051
83.5156,2.188
83.5156,2.0929
83.5156,1.9427
83.5156,1.6536
83.5215,1.5582
83.5215,1.3701
83.5215,1.2565
83.5225,1.255
83.5225,1.2799
83.5285,1.4076
83.5285,1.5469
83.5285,1.8222
83.5295,2.0729
83.5361,2.2249
83.5361,2.1134
83.5361,1.9452
83.5361,1.8229
83.5361,1.6795
83.5425,1.3774
83.5425,1.2559
83.5425,1.2567
83.5425,1.2645
83.5498,1.374
83.5498,1.5222
83.5498,1.6741
83.5498,1.7954
83.5498,2.1914
83.5605,2.2143
83.5615,2.1138
83.5615,1.8177
83.5615,1.6771
83.5631,1.5585
83.5631,1.3922
83.5635,1.249
83.5635,1.255
83.5635,1.2771
83.5689,1.369
83.5689,1.6534
83.5699,1.7914
83.5699,2.0419
83.5699,2.1927
83.5759,2.1441
83.5759,1.9532
83.5769,1.8407
83.5769,1.5777
83.5839,1.4054
83.5839,1.2552
83.5839,1.2482
83.5839,1.2747
83.5839,1.3598
83.5901,1.5062
83.5901,1.6341
83.5901,2.0241
83.5901,2.1633
83.5972,2.2204
83.5972,2.1398
83.5972,1.8473
83.5972,1.6917
83.5972,1.554
83.6035,1.2659
83.6035,1.2525
83.6046,1.2632
83.6046,1.2794
83.6107,1.4942
83.6107,1.6426
83.6107,1.7652
83.6107,2.0022
83.6107,2.2373
83.6171,2.1696
83.6171,1.9776
83.6171,1.8218
83.6171,1.5795
83.6171,1.4357
83.6240,1.2629
83.6240,1.2582
83.6240,1.2617
83.6240,1.3382
83.6312,1.4725
83.6312,1.7762
83.6312,2.0011
83.6312,2.1807
83.6312,2.2302
83.6374,1.9583
83.6374,1.8409
83.6374,1.7037
83.6374,1.5664
83.6447,1.2625
83.6447,1.2544
83.6447,1.2674
83.6447,1.3292
83.6447,1.4699
83.6507,1.623
83.6507,1.7489
83.6507,2.1524
83.6517,2.2206
83.6582,2.1751
83.6582,2.0057
83.6582,1.7048
83.6582,1.6039
83.6582,1.4834
83.6651,1.2715
83.6701,1.2696
83.6711,1.267
83.6721,1.3289
83.6721,1.6255
83.6721,1.7386
83.6721,1.9795
83.6721,2.1466
83.6721,2.1629
83.6784,1.9836
83.6784,1.8612
83.6784,1.7226
83.6784,1.4333
83.6794,1.2662
83.6851,1.2482
83.6851,1.2559
83.6851,1.3317
83.6851,1.4607
83.6920,1.6028
83.6920,1.9636
83.6920,2.1168
83.6920,2.2428
83.6920,2.1681
83.6987,1.8642
83.6987,1.7269
83.6987,1.5769
83.6987,1.4292
83.7052,1.2514
83.7052,1.2585
83.7060,1.2698
83.7060,1.3347
83.7060,1.5981
83.7122,1.7091
83.7122,1.9302
83.7122,2.2576
83.7122,2.1571
83.7129,1.9782
83.7189,1.8657
83.7189,1.5732
83.7189,1.4459
83.7189,1.2657
83.7265,1.2514
83.7265,1.2563
83.7265,1.296
83.7273,1.4395
83.7273,1.6926
83.7327,1.9431
83.7327,2.1284
83.7327,2.2321
83.7327,1.9637
83.7399,1.8887
83.7399,1.7249
83.7399,1.5465
83.7399,1.2704
83.7399,1.2499
83.7463,1.2555
83.7463,1.2689
83.7463,1.4129
83.7463,1.5702
83.7536,1.7005
83.7536,2.1064
83.7536,2.1601
83.7536,2.17
83.7536,2.0251
83.7597,1.741
83.7597,1.6137
83.7597,1.4644
83.7597,1.2707
83.7597,1.263
83.7666,1.2655
83.7666,1.2945
83.7666,1.4142
83.7666,1.7243
83.7736,1.9144
83.7776,2.0929
83.7786,2.2253
83.7796,2.0256
83.7796,1.8912
83.7796,1.7477
83.7796,1.4884
83.7796,1.2885
83.7806,1.2563
83.7872,1.2602
83.7872,1.3041
83.7880,1.4447
83.7880,1.5994
83.7880,1.7213
83.7939,2.1057
83.7939,2.2448
83.7939,2.1816
83.7939,2.0421
83.8009,1.7301
83.8011,1.6163
83.8011,1.5167
83.8011,1.2514
83.8011,1.2567
83.8068,1.2745
83.8068,1.3022
83.8068,1.5732
83.8068,1.7091
83.8076,1.8957
83.8136,2.1051
83.8136,2.2024
83.8136,1.9926
83.8146,1.8981
83.8214,1.78
83.8214,1.5171
83.8214,1.3107
83.8214,1.2585
83.8214,1.2709
83.8279,1.3114
83.8279,1.422
83.8284,1.588
83.8284,1.8436
83.8348,2.1081
83.8348,2.233
83.8348,2.218
83.8348,1.9253
83.8348,1.7742
83.8410,1.6292
83.8410,1.5295
83.8410,1.249
83.8410,1.26
83.8485,1.2629
83.8485,1.3037
83.8485,1.5525
83.8485,1.6632
83.8485,1.8329
83.8547,2.2199
83.8547,2.1959
83.8547,2.0402
83.8547,1.8932
83.8547,1.6283
83.8607,1.5267
83.8617,1.3313
83.8617,1.2497
83.8617,1.254
83.8691,1.288
83.8691,1.399
83.8691,1.5477
83.8691,1.8387
83.8691,2.0748
83.8755,2.2459
83.8755,2.0772
83.8755,1.8934
83.8755,1.768
83.8832,1.6208
83.8882,1.3335
83.8892,1.249
83.8892,1.2471
83.8902,1.264
83.8902,1.3759
83.8902,1.5231
83.8902,1.6589
83.8902,1.8248
83.8958,2.1921
83.8958,2.1865
83.8958,2.0691
83.8958,1.7896
83.8966,1.6334
83.9040,1.4961
83.9040,1.3469
83.9040,1.2582
83.9040,1.2852
83.9050,1.5218
83.9101,1.6654
83.9111,1.8241
83.9111,2.0511
83.9111,2.2024
83.9180,2.0836
83.9180,1.9306
83.9180,1.7877
83.9180,1.5394
83.9180,1.3487
83.9246,1.2531
83.9246,1.2625
83.9246,1.2861
83.9246,1.3817
83.9318,1.531
83.9318,1.8156
83.9318,2.0554
83.9318,2.1949
83.9318,2.1912
83.9375,1.9347
83.9375,1.7911
83.9375,1.6457
83.9375,1.5533
83.9450,1.2533
83.9451,1.2608
83.9451,1.2625
83.9451,1.281
83.9451,1.5137
83.9515,1.6506
83.9515,1.8034
83.9515,2.1784
83.9515,2.1925
83.9515,2.0731
83.9576,1.9534
83.9576,1.6459
83.9586,1.5405
83.9586,1.3673
83.9660,1.249
83.9660,1.2524
83.9660,1.27
83.9660,1.3377
83.9660,1.5164
83.9719,1.7824
83.9719,2.0185
83.9719,2.1663
83.9719,2.0963
83.9793,1.9341
83.9793,1.8027
83.9793,1.6559
83.9793,1.3763
83.9793,1.2525
83.9856,1.2539
83.9856,1.2717
83.9856,1.3319
83.9856,1.486
83.9926,1.6215
83.9977,1.7511
83.9987,2.1704
83.9987,2.2032
83.9987,2.0723
83.9987,1.8222
83.9987,1.6673
83.9998,1.518
83.9998,1.3549
83.9998,1.2516
84.0049,1.2602
84.0059,1.2752
84.0059,1.333
84.0059,1.6131
84.0130,1.75
84.0130,1.9921
84.0130,2.1696
84.0130,2.1235
84.0130,1.9362
84.0196,1.8014
84.0196,1.6622
84.0196,1.3793
84.0196,1.2542
84.0268,1.2465
84.0268,1.2535
84.0268,1.3277
84.0268,1.4745
84.0268,1.6193
84.0326,1.9898
84.0326,2.1454
84.0326,2.2017
84.0326,2.1064
84.0398,1.8327
84.0398,1.678
84.0398,1.5537
84.0398,1.4035
84.0398,1.2464
84.0463,1.2559
84.0463,1.2674
84.0463,1.342
84.0463,1.6279
84.0473,1.7511
84.0524,1.981
84.0524,2.1348
84.0535,2.1657
84.0535,1.9382
84.0605,1.7969
84.0605,1.6997
84.0605,1.4286
84.0605,1.2636
84.0615,1.2636
84.0667,1.2719
84.0667,1.3157
84.0667,1.4419
84.0667,1.6305
84.0738,1.9711
84.0738,2.1351
84.0738,2.2276
84.0748,2.1383
84.0748,1.8186
84.0801,1.7245
84.0801,1.5861
84.0801,1.423
84.0811,1.249
84.0868,1.2574
84.0868,1.2608
84.0878,1.3169
84.0878,1.5989
84.0888,1.6821
84.0935,1.9592
84.0935,2.1271
84.0935,2.1203
84.0945,1.9384
84.0945,1.8364
84.0996,1.6943
84.1006,1.4089
84.1006,1.2651
84.1006,1.248
84.1090,1.2465
84.1110,1.311
84.1110,1.4348
84.1110,1.5653
84.1110,1.9397
84.1134,2.1166
84.1134,2.1743
84.1134,2.1143
84.1134,1.8076
84.1207,1.6894
84.1207,1.5844
84.1207,1.4504
84.1207,1.2477
84.1207,1.258
84.1274,1.2591
84.1274,1.308
84.1274,1.5687
84.1274,1.7114
84.1344,1.9216
84.1344,2.0877
84.1350,2.1593
84.1350,1.9786
84.1350,1.8494
84.1405,1.5891
84.1405,1.4205
84.1405,1.2602
84.1405,1.2499
84.1405,1.2576
84.1476,1.3069
84.1476,1.4348
84.1476,1.5705
84.1476,1.9019
84.1549,2.1049
84.1549,2.2281
84.1549,2.1524
84.1549,1.822
84.1549,1.6894
84.1612,1.5599
84.1612,1.441
84.1612,1.2462
84.1612,1.254
84.1686,1.2529
84.1687,1.3024
84.1687,1.555
84.1687,1.6772
84.1687,1.8904
84.1742,2.0838
84.1742,2.1578
84.1742,1.9759
84.1742,1.861
84.1817,1.5792
84.1817,1.4607
84.1817,1.2764
84.1817,1.2494
84.1827,1.26
84.1878,1.2807
84.1878,1.3802
84.1878,1.554
84.1888,1.9077
84.1888,2.0749
84.1949,2.2255
84.1949,2.1976
84.1949,1.8786
84.1949,1.7404
84.2021,1.5902
84.2021,1.4781
84.2021,1.2518
84.2031,1.257
84.2031,1.2634
84.2082,1.2992
84.2082,1.5734
84.2090,1.6742
84.2090,1.9022
84.2162,2.2568
84.2204,2.2064
84.2225,2.0254
84.2225,1.8762
84.2235,1.5968
84.2235,1.4965
84.2235,1.3148
84.2235,1.2522
84.2245,1.2726
84.2292,1.321
84.2292,1.4449
84.2292,1.5735
84.2292,1.9015
84.2302,2.1081
84.2355,2.2557
84.2355,2.0511
84.2355,1.9013
84.2365,1.7607
84.2365,1.6189
84.2417,1.3176
84.2427,1.2529
84.2427,1.2634
84.2427,1.2629
84.2501,1.4183
84.2501,1.5833
84.2501,1.7114
84.2501,1.8827
84.2511,2.2107
84.2557,2.2233
84.2557,2.0834
84.2557,1.7866
84.2567,1.6294
84.2631,1.5107
84.2631,1.3217
84.2631,1.2525
84.2642,1.2636
84.2642,1.2831
84.2696,1.3935
84.2696,1.6844
84.2696,1.8602
84.2706,2.0566
84.2767,2.2268
84.2770,2.0607
84.2770,1.9154
84.2770,1.7922
84.2781,1.518
84.2825,1.3206
84.2825,1.2516
84.2825,1.257
84.2835,1.3011
84.2835,1.42
84.2896,1.5563
84.2896,1.6741
84.2896,2.0536
84.2906,2.2324
84.2974,2.1987
84.2974,2.0828
84.2974,1.7796
84.2984,1.6469
84.2984,1.5437
84.3036,1.2539
84.3036,1.2662
84.3036,1.2799
84.3046,1.2923
84.3110,1.5569
84.3111,1.6795
84.3111,1.8287
84.3111,2.0856
84.3121,2.2103
84.3167,2.1364
84.3167,1.9382
84.3167,1.8055
84.3177,1.5377
84.3234,1.3534
84.3306,1.2546
84.3325,1.2548
84.3325,1.2865
84.3337,1.405
84.3337,1.5332
84.3337,1.8542
84.3337,2.0781
84.3348,2.2233
84.3348,2.1991
84.3368,1.9366
84.3377,1.7937
84.3377,1.6549
84.3377,1.5434
84.3446,1.2559
84.3446,1.2518
84.3446,1.2698
84.3456,1.3898
84.3456,1.552
84.3509,1.6546
84.3509,1.8117
84.3517,2.1906
84.3527,2.2467
84.3580,2.1205
84.3580,1.9296
84.3588,1.6696
84.3588,1.575
84.3588,1.3754
84.3644,1.255
84.3644,1.2704
84.3644,1.2891
84.3654,1.3956
84.3706,1.5449
84.3716,1.8291
84.3716,2.0571
84.3716,2.2159
84.3726,2.2212
84.3780,1.9816
84.3780,1.8304
84.3780,1.6701
84.3780,1.377
84.3790,1.2612
84.3841,1.2685
84.3851,1.2945
84.3851,1.3874
84.3851,1.5447
84.3920,1.6874
84.3920,1.8216
84.3920,2.218
84.3920,2.2398
84.3930,2.1769
84.3984,1.9677
84.3984,1.6859
84.3984,1.543
84.3984,1.4228
84.4054,1.2724
84.4054,1.2533
84.4054,1.285
84.4054,1.4054
84.4054,1.6772
84.4117,1.8031
84.4117,2.0678
84.4117,2.2071
84.4117,2.1449
84.4189,1.9671
84.4189,1.8567
84.4189,1.7069
84.4189,1.4159
84.4189,1.2698
84.4253,1.2597
84.4253,1.2732
84.4253,1.3845
84.4253,1.5284
84.4263,1.6669
84.4365,1.7781
84.4375,2.1351
84.4396,2.2158
84.4396,2.1736
84.4396,1.9694
84.4396,1.7044
84.4407,1.5779
84.4407,1.3894
84.4407,1.2527
84.4449,1.2527
84.4460,1.2827
84.4460,1.3904
84.4460,1.6358
84.4529,1.7644
84.4529,2.0211
84.4529,2.1499
84.4529,2.1303
84.4529,1.9544
84.4589,1.8336
84.4589,1.6892
84.4589,1.4316
84.4596,1.2679
84.4662,1.2495
84.4662,1.2591
84.4662,1.3559
84.4662,1.5023
84.4662,1.6426
84.4723,1.7342
84.4723,2.1563
84.4723,2.2501
84.4723,2.1252
84.4723,1.96
84.4793,1.6977
84.4793,1.5719
84.4793,1.4241
84.4793,1.2546
84.4868,1.2644
84.4868,1.2801
84.4868,1.3587
84.4868,1.62
84.4878,1.7494
84.4924,2.0211
84.4924,2.14
84.4932,2.2004
84.4932,1.9847
84.4997,1.8351
84.4997,1.7121
84.4997,1.4522
84.4997,1.2722
84.4997,1.2524
84.5063,1.2554
84.5063,1.3628
84.5063,1.509
84.5070,1.6358
84.5134,1.7539
84.5134,2.1698
84.5134,2.2424
84.5134,2.1783
84.5134,1.9967
84.5197,1.7258
84.5197,1.5968
84.5197,1.453
84.5197,1.252
84.5197,1.2638
84.5257,1.2938
84.5267,1.3635
84.5267,1.6341
84.5267,1.7804
84.5340,1.9997
84.5340,2.1589
84.5340,2.1741
84.5340,1.9997
84.5340,1.8694
84.5453,1.7419
84.5453,1.455
84.5463,1.2734
84.5463,1.2527
84.5463,1.267
84.5463,1.3302
84.5473,1.4594
84.5473,1.6088
84.5473,1.7357
84.5536,2.1312
84.5536,2.2159
84.5536,2.173
84.5536,1.9992
84.5606,1.6943
84.5606,1.5934
84.5606,1.4492
84.5606,1.2546
84.5606,1.2642
84.5668,1.2672
84.5668,1.3185
84.5668,1.5884
84.5668,1.7056
84.5675,1.9311
84.5735,2.1076
84.5735,2.1803
84.5735,1.9891
84.5735,1.8829
84.5811,1.7344
84.5811,1.4554
84.5811,1.2647
84.5811,1.2475
84.5811,1.2524
84.5871,1.3116
84.5871,1.4406
84.5871,1.599
84.5871,1.7414
84.5948,2.1321
84.5948,2.218
84.5948,2.1588
84.5948,2.0089
84.5948,1.7299
84.6003,1.591
84.6003,1.4873
84.6003,1.2449
84.6003,1.261
84.6079,1.2797
84.6079,1.3215
84.6079,1.5726
84.6079,1.6898
84.6079,1.8968
84.6143,2.0948
84.6143,2.1758
84.6143,1.9915
84.6143,1.8752
84.6143,1.7447
84.6204,1.4764
84.6204,1.2882
84.6214,1.2479
84.6214,1.2516
84.6303,1.3103
84.6303,1.4258
84.6303,1.5629
84.6303,1.6754
84.6303,2.0841
84.6366,2.1743
84.6366,1.8839
84.6366,1.729
84.6366,1.5884
84.6437,1.2977
84.6442,1.2512
84.6442,1.2539
84.6442,1.2529
84.6442,1.4262
84.6525,1.5297
84.6586,1.6964
84.6596,1.8801
84.6596,2.2248
84.6596,2.1991
84.6606,2.0277
84.6606,1.8861
84.6606,1.608
84.6606,1.4644
84.6622,1.2854
84.6632,1.2525
84.6632,1.2576
84.6632,1.3056
84.6632,1.4144
84.6693,1.6697
84.6703,1.873
84.6703,2.1014
84.6703,2.2264
84.6779,2.0275
84.6779,1.8807
84.6779,1.7551
84.6779,1.6032
84.6779,1.3127
84.6837,1.2554
84.6837,1.2614
84.6837,1.2664
84.6837,1.3904
84.6909,1.5634
84.6909,1.6862
84.6909,1.8389
84.6909,2.2161
84.6909,2.1771
84.6974,2.0305
84.6974,1.7536
84.6974,1.606
84.6974,1.5015
84.7039,1.3105
84.7039,1.251
84.7039,1.2645
84.7039,1.2887
84.7039,1.3879
84.7107,1.6619
84.7107,1.8424
84.7107,2.0479
84.7113,2.1824
84.7113,2.0442
84.7173,1.9
84.7173,1.7682
84.7173,1.6005
84.7173,1.3431
84.7247,1.2494
84.7247,1.2499
84.7247,1.2623
84.7247,1.3812
84.7247,1.4839
84.7312,1.6718
84.7312,1.8235
84.7312,2.2015
84.7312,2.221
84.7383,2.0853
84.7383,1.7809
84.7383,1.6305
84.7383,1.5233
84.7383,1.3322
84.7446,1.2591
84.7446,1.27
84.7446,1.2942
84.7446,1.4127
84.7518,1.6735
84.7519,1.8162
84.7519,2.0357
84.7519,2.1957
84.7519,2.0648
84.7578,1.9112
84.7578,1.8109
84.7578,1.5205
84.7578,1.3365
84.7578,1.2529
84.7648,1.2625
84.7658,1.2705
84.7658,1.3857
84.7658,1.5535
84.7723,1.6802
84.7723,2.0412
84.7723,2.2131
84.7723,2.2351
84.7732,2.1111
84.7785,1.8299
84.7785,1.693
84.7785,1.5854
84.7785,1.2509
84.7857,1.2572
84.7857,1.2915
84.7857,1.3122
84.7857,1.5837
84.7865,1.7172
84.7918,1.846
84.7918,2.1003
84.7918,2.2589
84.7918,2.1589
84.7994,2.0063
84.7994,1.8758
84.7994,1.6199
84.7994,1.4432
84.7994,1.2874
84.8056,1.3127
84.8056,1.3448
84.8056,1.4682
84.8056,1.6131
84.8066,1.9129
84.8116,2.1209
84.8126,2.3106
84.8126,2.3371
84.8126,2.0731
84.8192,1.9562
84.8192,1.8121
84.8202,1.6799
84.8202,1.348
84.8202,1.3103
84.8264,1.3656
84.8264,1.5454
84.8264,1.6964
84.8264,1.8149
84.8335,1.9553
84.8335,2.3772
84.8335,2.4117
84.8335,2.3016
84.8335,2.1423
84.8398,1.8782
84.8398,1.7693
84.8398,1.6193
84.8398,1.426
84.8468,1.4196
84.8468,1.4601
84.8468,1.6114
84.8468,1.8938
84.8468,2.0421
84.8527,2.2501
84.8527,2.4074
84.8527,2.3963
84.8535,2.2216
84.8535,2.0946
84.8594,1.9547
84.8594,1.6774
84.8594,1.4888
84.8604,1.4196
84.8671,1.5585
84.8671,1.666
84.8671,1.7929
84.8678,1.9403
84.8678,2.3333
84.8748,2.4976
84.8758,2.5518
84.8758,2.4597
84.8758,2.1589
84.8809,2.0144
84.8809,1.8936
84.8809,1.7217
84.8809,1.4899
84.8809,1.521
84.8872,1.5777
84.8872,1.8642
84.8872,1.9703
84.8872,2.0796
84.8944,2.344
84.8944,2.5743
84.8948,2.5004
84.8948,2.3024
84.8948,2.2152
84.9006,1.9289
84.9006,1.7877
84.9006,1.5681
84.9006,1.5475
84.9013,1.584
84.9073,1.6712
84.9073,1.8563
84.9073,2.1094
84.9083,2.3431
84.9149,2.5154
84.9149,2.5745
84.9149,2.3256
84.9149,2.1329
84.9149,2.0492
84.9213,1.9681
84.9213,1.5959
84.9213,1.5081
84.9213,1.5383
84.9287,1.7119
84.9287,1.8357
84.9287,1.975
84.9287,2.1008
84.9287,2.4983
84.9349,2.5923
84.9349,2.5366
84.9349,2.3343
84.9349,2.0558
84.9417,1.9036
84.9417,1.7978
84.9417,1.5872
84.9417,1.5362
84.9417,1.5702
84.9483,1.6705
84.9487,1.9456
84.9487,2.0382
84.9487,2.2814
84.9487,2.4411
84.9548,2.4644
84.9548,2.3005
84.9548,2.1758
84.9548,2.0076
84.9625,1.7262
84.9625,1.5374
84.9625,1.4224
84.9625,1.4474
84.9625,1.5582
84.9688,1.6945
84.9688,1.8604
84.9688,1.9814
84.9688,2.3466
84.9761,2.4644
84.9761,2.3851
84.9761,2.1004
84.9761,1.939
84.9771,1.8079
84.9831,1.6926
84.9841,1.3545
84.9851,1.3581
84.9851,1.4177
84.9895,1.5167
84.9895,1.7702
84.9895,1.909
84.9895,2.152
84.9895,2.2966
84.9957,2.3466
84.9957,2.1147
84.9957,2.0134
84.9957,1.8717
84.9957,1.5814
85.0019,1.3613
85.0019,1.2936
85.0029,1.2902
85.0029,1.4112
85.0097,1.5544
85.0097,1.6937
85.0097,2.0236
85.0097,2.1944
85.0104,2.3125
85.0162,2.2564
85.0162,1.9152
85.0162,1.7596
85.0162,1.6491
85.0234,1.5329
85.0234,1.2587
85.0234,1.2615
85.0234,1.2585
85.0234,1.3219
85.0297,1.6133
85.0297,1.7155
85.0297,1.9454
85.0297,2.128
85.0367,2.2131
85.0372,2.0391
85.0372,1.9097
85.0372,1.7697
85.0372,1.4997
85.0427,1.2884
85.0427,1.2486
85.0427,1.2614
85.0427,1.3163
85.0427,1.4556
85.0498,1.609
85.0498,1.9294
85.0498,2.1145
85.0498,2.2139
85.0573,2.1745
85.0573,1.8916
85.0573,1.7669
85.0573,1.618
85.0583,1.4946
85.0637,1.2482
85.0637,1.2599
85.0637,1.2651
85.0637,1.305
85.0706,1.5692
85.0706,1.6996
85.0706,1.8983
85.0706,2.1059
85.0706,2.1906
85.0769,2.0539
85.0769,1.8829
85.0769,1.7106
85.0769,1.5422
85.0839,1.32
85.0839,1.2495
85.0839,1.2595
85.0849,1.3082
85.0849,1.39
85.0928,1.5317
85.0979,1.8344
85.0999,2.0354
85.0999,2.194
85.0999,2.1381
85.1009,1.8636
85.1009,1.7222
85.1009,1.5709
85.1019,1.4241
85.1042,1.2449
85.1042,1.2471
85.1052,1.2516
85.1052,1.2692
85.1052,1.4927
85.1108,1.6208
85.1108,1.8106
85.1108,2.0393
85.1119,2.1396
85.1178,1.9951
85.1178,1.8396
85.1178,1.5505
85.1189,1.4378
85.1189,1.2726
85.1242,1.2435
85.1242,1.2501
85.1242,1.2542
85.1251,1.3427
85.1304,1.498
85.1314,1.8068
85.1314,1.9928
85.1314,2.1499
85.1324,2.1529
85.1370,1.8522
85.1377,1.678
85.1377,1.558
85.1377,1.2758
85.1377,1.2428
85.1437,1.249
85.1447,1.2539
85.1447,1.3382
85.1447,1.4944
85.1520,1.6446
85.1520,1.8149
85.1520,2.1351
85.1520,2.1764
85.1530,2.0206
85.1581,1.8593
85.1581,1.5977
85.1591,1.4811
85.1591,1.2906
85.1653,1.245
85.1653,1.2569
85.1653,1.2659
85.1653,1.3227
85.1663,1.4777
85.1715,1.8049
85.1715,2.0097
85.1715,2.1503
85.1725,2.1469
85.1786,1.8745
85.1786,1.7361
85.1786,1.5906
85.1796,1.2989
85.1796,1.2435
85.1848,1.2464
85.1848,1.2533
85.1848,1.3238
85.1858,1.4322
85.1858,1.6124
85.1918,1.7762
85.1918,2.1216
85.1918,2.1421
85.1918,2.0215
85.1990,1.8539
85.1990,1.6221
85.1990,1.4757
85.2021,1.2938
85.2081,1.2445
85.2101,1.2554
85.2101,1.2587
85.2101,1.3208
85.2101,1.4597
85.2124,1.7682
85.2124,1.9853
85.2124,2.1357
85.2124,2.1265
85.2124,1.8552
85.2187,1.7352
85.2187,1.584
85.2187,1.3013
85.2187,1.2439
85.2259,1.2475
85.2259,1.2497
85.2259,1.3221
85.2259,1.4597
85.2259,1.6024
85.2320,1.7511
85.2320,2.1436
85.2320,2.1357
85.2320,2.0401
85.2320,1.8634
85.2390,1.5938
85.2390,1.4787
85.2390,1.3302
85.2390,1.246
85.2461,1.248
85.2461,1.2614
85.2461,1.3275
85.2461,1.479
85.2461,1.7155
85.2525,1.9544
85.2525,2.1458
85.2525,2.1724
85.2533,1.8882
85.2598,1.7644
85.2598,1.6109
85.2598,1.3335
85.2598,1.249
85.2598,1.249
85.2652,1.2522
85.2662,1.3245
85.2662,1.4466
85.2662,1.5882
85.2733,1.7219
85.2737,2.1113
85.2737,2.1479
85.2737,2.0536
85.2737,1.8839
85.2791,1.5929
85.2791,1.4832
85.2791,1.341
85.2791,1.2462
85.2791,1.2492
85.2862,1.2537
85.2862,1.3067
85.2862,1.4387
85.2862,1.7594
85.2936,1.9902
85.2936,2.0673
85.2936,2.0828
85.2936,1.8749
85.2936,1.7659
85.3000,1.639
85.3000,1.3238
85.3000,1.2464
85.3000,1.2452
85.3069,1.2524
85.3069,1.2994
85.3075,1.4222
85.3075,1.5574
85.3075,1.7009
85.3151,2.0995
85.3161,2.1792
85.3171,2.0828
85.3171,1.894
85.3203,1.63
85.3203,1.4933
85.3203,1.3365
85.3203,1.2465
85.3203,1.2484
85.3263,1.2537
85.3263,1.3028
85.3263,1.572
85.3263,1.6969
85.3263,1.9292
85.3334,2.1098
85.3334,2.0808
85.3334,1.915
85.3334,1.7881
85.3409,1.6399
85.3409,1.3817
85.3409,1.2527
85.3409,1.2458
85.3409,1.2503
85.3471,1.2872
85.3471,1.3814
85.3471,1.5342
85.3471,1.6392
85.3538,2.1008
85.3538,2.1691
85.3538,2.0659
85.3538,1.8826
85.3548,1.6135
85.3624,1.4905
85.3624,1.3673
85.3624,1.248
85.3624,1.2479
85.3693,1.2906
85.3693,1.5336
85.3693,1.6675
85.3693,1.9069
85.3693,2.1625
85.3754,2.0888
85.3754,1.9073
85.3754,1.7704
85.3764,1.5156
85.3764,1.3739
85.3825,1.2514
85.3825,1.2443
85.3825,1.251
85.3825,1.2807
85.3899,1.3945
85.3899,1.5332
85.3899,1.9379
85.3899,2.0669
85.3899,2.1589
85.3962,2.0999
85.3962,1.7963
85.3962,1.6309
85.3962,1.5227
85.4034,1.4254
85.4034,1.2445
85.4039,1.2505
85.4039,1.2514
85.4039,1.3823
85.4091,1.5419
85.4091,1.6549
85.4091,1.8886
85.4091,2.1801
85.4170,2.1261
85.4170,1.9457
85.4170,1.7875
85.4170,1.5404
85.4170,1.414
85.4262,1.2524
85.4272,1.2428
85.4272,1.2509
85.4272,1.2803
85.4272,1.4057
85.4292,1.5404
85.4292,1.8936
85.4302,2.0678
85.4302,2.1578
85.4371,2.0963
85.4371,1.7957
85.4378,1.6564
85.4378,1.5199
85.4378,1.2572
85.4433,1.2469
85.4454,1.2548
85.4454,1.2559
85.4454,1.3791
85.4500,1.4989
85.4500,1.6122
85.4508,1.8728
85.4508,2.1638
85.4508,2.1162
85.4568,1.9127
85.4568,1.7982
85.4568,1.531
85.4568,1.4159
85.4639,1.2546
85.4639,1.2441
85.4645,1.2597
85.4645,1.2735
85.4645,1.3643
85.4700,1.5267
85.4700,1.8524
85.4700,2.0532
85.4710,2.1829
85.4710,1.9508
85.4770,1.8254
85.4770,1.6915
85.4770,1.5574
85.4770,1.267
85.4845,1.2426
85.4845,1.2426
85.4845,1.2495
85.4854,1.3549
85.4854,1.5075
85.4906,1.6508
85.4906,1.8312
85.4906,2.191
85.4906,2.1303
85.4981,1.9439
85.4981,1.8548
85.4981,1.5192
85.4981,1.4327
85.4981,1.2692
85.5042,1.2497
85.5042,1.2537
85.5042,1.2649
85.5042,1.3662
85.5110,1.6339
85.5112,1.8272
85.5122,2.0312
85.5122,2.1443
85.5132,1.9881
85.5176,1.8422
85.5184,1.6861
85.5184,1.5527
85.5194,1.2711
85.5194,1.2435
85.5244,1.251
85.5254,1.2484
85.5254,1.3626
85.5254,1.5104
85.5343,1.6349
85.5423,2.0142
85.5433,2.1631
85.5443,2.1584
85.5443,1.9945
85.5443,1.6947
85.5443,1.539
85.5443,1.4524
85.5453,1.279
85.5453,1.2454
85.5453,1.2505
85.5453,1.2709
85.5453,1.374
85.5453,1.6099
85.5518,1.8031
85.5518,2.0472
85.5518,2.1233
85.5518,1.9525
85.5588,1.8197
85.5591,1.6975
85.5591,1.4423
85.5591,1.2722
85.5591,1.242
85.5653,1.2473
85.5653,1.263
85.5653,1.3424
85.5653,1.4817
85.5653,1.6429
85.5713,2.0069
85.5723,2.1591
85.5723,2.1469
85.5723,1.8541
85.5796,1.7181
85.5796,1.5867
85.5796,1.4802
85.5796,1.2445
85.5796,1.246
85.5858,1.2537
85.5858,1.2724
85.5858,1.5239
85.5858,1.6274
85.5931,1.7974
85.5931,2.0134
85.5931,2.1522
85.5931,2.0121
85.5931,1.8614
85.5994,1.5705
85.5994,1.464
85.5994,1.3041
85.5994,1.2469
85.6065,1.2582
85.6067,1.2666
85.6067,1.3607
85.6067,1.4832
85.6067,1.8038
85.6128,2.0155
85.6128,2.1659
85.6128,2.1554
85.6128,1.8775
85.6128,1.7419
85.6188,1.6097
85.6198,1.3127
85.6198,1.245
85.6198,1.2456
85.6269,1.248
85.6269,1.3414
85.6269,1.4894
85.6269,1.6199
85.6269,1.7954
85.6332,2.1816
85.6337,2.1784
85.6337,2.0217
85.6337,1.8769
85.6403,1.5863
85.6463,1.4712
85.6473,1.3283
85.6473,1.2499
85.6473,1.2544
85.6473,1.2621
85.6483,1.347
85.6483,1.6277
85.6483,1.7836
85.6537,2.0131
85.6537,2.1724
85.6537,2.0284
85.6546,1.8717
85.6546,1.7472
85.6590,1.5818
85.6600,1.3054
85.6600,1.2441
85.6600,1.2458
85.6600,1.2501
85.6670,1.3139
85.6670,1.4577
85.6670,1.6052
85.6670,1.7459
85.6745,2.1496
85.6745,2.1661
85.6745,2.0402
85.6745,1.7354
85.6745,1.5915
85.6805,1.4832
85.6805,1.3362
85.6805,1.2456
85.6805,1.2495
85.6869,1.2644
85.6869,1.3375
85.6879,1.588
85.6879,1.7301
85.6879,1.957
85.6942,2.1233
85.6942,2.0282
85.6942,1.8655
85.6942,1.7599
85.7006,1.6131
85.7006,1.3236
85.7015,1.2443
85.7015,1.243
85.7015,1.2505
85.7069,1.3165
85.7069,1.446
85.7069,1.5797
85.7069,1.7129
85.7079,2.1222
85.7140,2.1653
85.7140,2.0545
85.7140,1.7693
85.7140,1.6067
85.7217,1.5038
85.7217,1.3575
85.7217,1.2458
85.7217,1.249
85.7217,1.2525
85.7278,1.326
85.7278,1.5872
85.7278,1.7209
85.7278,1.9739
85.7344,2.1293
85.7344,2.0978
85.7354,1.8899
85.7355,1.7581
85.7355,1.6152
85.7410,1.3394
85.7410,1.2477
85.7410,1.2449
85.7410,1.2503
85.7485,1.3242
85.7485,1.4464
85.7485,1.5854
85.7485,1.9454
85.7485,2.1402
85.7565,2.2058
85.7575,2.0824
85.7575,1.7942
85.7575,1.6454
85.7575,1.5124
85.7615,1.3671
85.7615,1.2449
85.7615,1.2441
85.7615,1.2554
85.7688,1.3178
85.7688,1.5629
85.7688,1.7104
85.7688,1.9514
85.7688,2.119
85.7752,2.0661
85.7752,1.897
85.7752,1.7899
85.7752,1.6516
85.7822,1.3825
85.7822,1.2552
85.7822,1.2467
85.7822,1.2505
85.7822,1.2865
85.7883,1.4039
85.7883,1.5554
85.7883,1.9392
85.7883,2.1376
85.7959,2.1955
85.7959,2.0534
85.7959,1.8175
85.7959,1.6637
85.7959,1.5255
85.8019,1.3853
85.8019,1.2469
85.8019,1.2505
85.8019,1.261
85.8019,1.3082
85.8080,1.5578
85.8090,1.6699
85.8090,1.9249
85.8090,2.1233
85.8164,2.1111
85.8164,1.933
85.8164,1.8038
85.8164,1.6561
85.8164,1.3559
85.8226,1.2527
85.8226,1.2471
85.8226,1.2499
85.8226,1.3013
85.8293,1.4414
85.8293,1.5683
85.8305,1.8895
85.8305,2.0757
85.8305,2.2002
85.8354,2.146
85.8354,1.7967
85.8364,1.6789
85.8365,1.5434
85.8430,1.3864
85.8430,1.2465
85.8430,1.2475
85.8430,1.2539
85.8430,1.4258
85.8494,1.5482
85.8494,1.63
85.8494,1.8916
85.8494,2.1968
85.8494,2.1288
85.8555,1.9489
85.8565,1.807
85.8565,1.5314
85.8565,1.4153
85.8664,1.255
85.8674,1.2452
85.8674,1.2512
85.8674,1.2882
85.8685,1.4087
85.8700,1.6591
85.8700,1.8983
85.8700,2.0629
85.8700,2.1586
85.8772,1.9677
85.8772,1.8287
85.8772,1.6546
85.8772,1.5199
85.8772,1.2584
85.8834,1.2432
85.8834,1.2516
85.8834,1.2627
85.8834,1.3754
85.8904,1.524
85.8908,1.6793
85.8908,1.8831
85.8908,2.1649
85.8908,2.0933
85.8961,1.9416
85.8972,1.8226
85.8972,1.5443
85.8972,1.4134
85.8972,1.2548
85.9031,1.2503
85.9031,1.2505
85.9031,1.281
85.9041,1.368
85.9107,1.6647
85.9107,1.8824
85.9107,2.0813
85.9115,2.1846
85.9115,1.9707
85.9174,1.8391
85.9178,1.6885
85.9178,1.5629
85.9178,1.278
85.9244,1.2475
85.9244,1.2563
85.9244,1.2542
85.9251,1.4063
85.9251,1.5445
85.9308,1.6836
85.9308,1.9133
85.9308,2.1816
85.9308,2.1507
85.9377,1.9799
85.9377,1.6994
85.9377,1.5257
85.9377,1.4554
85.9377,1.294
85.9441,1.2465
85.9441,1.2574
85.9441,1.2891
85.9441,1.3905
85.9441,1.672
85.9501,1.87
85.9510,2.0553
85.9510,2.1745
85.9510,1.9921
85.9584,1.8482
85.9584,1.7123
85.9584,1.5726
85.9584,1.287
85.9584,1.2449
85.9647,1.2509
85.9647,1.2542
85.9647,1.4016
85.9647,1.5336
85.9713,1.6399
85.9773,1.8383
85.9783,2.1925
85.9783,2.1644
85.9793,2.0014
85.9793,1.8445
85.9793,1.5692
85.9793,1.4672
85.9793,1.2829
85.9849,1.2495
85.9849,1.2499
85.9854,1.2632
85.9854,1.3787
85.9854,1.6399
85.9913,1.8244
85.9913,2.0354
85.9913,2.1479
85.9913,2.0262
85.9913,1.8616
85.9973,1.7239
85.9983,1.5825
85.9983,1.2829
85.9983,1.2443
86.0053,1.2458
86.0053,1.2516
86.0053,1.3484
86.0053,1.5051
86.0053,1.6371
86.0119,1.8083
86.0119,2.1903
86.0119,2.1473
86.0119,2.0222
86.0183,1.8732
86.0190,1.5829
86.0190,1.4706
86.0190,1.2927
86.0190,1.2434
86.0244,1.2531
86.0244,1.2717
86.0254,1.3454
86.0254,1.6236
86.0323,1.8141
86.0323,2.0342
86.0323,2.1314
86.0323,2.0273
86.0323,1.8679
86.0386,1.7387
86.0386,1.5921
86.0386,1.3026
86.0386,1.2464
86.0386,1.2479
86.0446,1.2529
86.0446,1.3433
86.0456,1.4841
86.0456,1.6365
86.0523,1.7897
86.0523,2.1807
86.0523,2.1779
86.0523,2.0658
86.0523,1.9191
86.0589,1.6367
86.0589,1.5098
86.0589,1.3467
86.0589,1.2529
86.0663,1.2737
86.0663,1.2968
86.0663,1.4022
86.0663,1.5503
86.0663,1.8499
86.0723,2.0849
86.0723,2.2199
86.0731,2.1306
86.0731,1.9686
86.0798,1.8344
86.0798,1.7009
86.0798,1.389
86.0798,1.2516
86.0798,1.2773
86.0879,1.3259
86.0889,1.4219
86.0889,1.6365
86.0889,2.1391
86.0889,2.2923
86.0940,2.2866
86.0940,2.1903
86.0940,1.8944
86.0940,1.7522
86.1018,1.6337
86.1018,1.2992
86.1018,1.2904
86.1018,1.308
86.1018,1.3662
86.1082,1.6332
86.1082,1.7637
86.1082,1.9049
86.1082,2.1666
86.1153,2.3566
86.1153,2.2264
86.1153,2.0813
86.1153,1.9615
86.1153,1.7132
86.1212,1.5231
86.1212,1.324
86.1212,1.3163
86.1212,1.4337
86.1290,1.5312
86.1290,1.6744
86.1290,1.9939
86.1290,2.2047
86.1290,2.3753
86.1349,2.4246
86.1349,2.1439
86.1349,2.0382
86.1349,1.8799
86.1349,1.7601
86.1410,1.4174
86.1420,1.333
86.1420,1.3615
86.1420,1.4494
86.1496,1.7444
86.1496,1.8872
86.1496,2.0161
86.1496,2.4477
86.1496,2.483
86.1558,2.3744
86.1558,2.1919
86.1558,1.9557
86.1558,1.8312
86.1628,1.6681
86.1628,1.4385
86.1633,1.4869
86.1633,1.516
86.1633,1.636
86.1688,1.9129
86.1688,2.0307
86.1688,2.3005
86.1688,2.4758
86.1764,2.4205
86.1764,2.2383
86.1764,2.1291
86.1764,1.9778
86.1764,1.6592
86.1828,1.5085
86.1828,1.4539
86.1828,1.4815
86.1828,1.6572
86.1828,1.8019
86.1889,1.9446
86.1889,2.3191
86.1899,2.4805
86.1900,2.5518
86.1974,2.4543
86.1993,2.1494
86.1993,2.0003
86.1993,1.8767
86.1993,1.7333
86.2033,1.4451
86.2033,1.5059
86.2033,1.5698
86.2033,1.6514
86.2104,1.9364
86.2104,2.1031
86.2104,2.3365
86.2111,2.555
86.2111,2.4456
86.2166,2.2953
86.2166,2.1854
86.2166,1.8916
86.2166,1.7462
86.2238,1.5306
86.2238,1.4419
86.2238,1.5494
86.2238,1.6765
86.2238,1.8076
86.2300,1.9424
86.2300,2.3127
86.2300,2.471
86.2300,2.5332
86.2300,2.4464
86.2362,2.1569
86.2371,2.0202
86.2371,1.8882
86.2371,1.521
86.2447,1.4237
86.2447,1.4624
86.2447,1.4969
86.2447,1.7965
86.2447,1.9146
86.2507,1.9906
86.2507,2.2488
86.2507,2.5214
86.2507,2.4546
86.2580,2.2662
86.2580,2.1436
86.2580,1.8617
86.2580,1.6967
86.2580,1.477
86.2643,1.4522
86.2643,1.414
86.2643,1.5668
86.2643,1.7434
86.2711,1.9512
86.2711,2.197
86.2711,2.3706
86.2711,2.4751
86.2711,2.2094
86.2777,2.0918
86.2777,1.9559
86.2777,1.8079
86.2777,1.483
86.2788,1.4012
86.2839,1.4127
86.2839,1.4509
86.2849,1.7016
86.2849,1.8518
86.2919,1.9681
86.2919,2.3974
86.2919,2.4725
86.2919,2.401
86.2929,2.2233
86.2981,1.9442
86.2981,1.8409
86.2981,1.7142
86.2981,1.4903
86.3060,1.4187
86.3110,1.4397
86.3120,1.5128
86.3120,1.642
86.3130,1.8816
86.3130,2.1143
86.3130,2.2893
86.3130,2.3995
86.3130,2.1514
86.3186,2.0327
86.3186,1.8638
86.3186,1.5942
86.3186,1.3581
86.3195,1.2675
86.3248,1.2854
86.3248,1.4033
86.3248,1.5252
86.3248,1.6673
86.3248,1.8062
86.3309,2.1567
86.3319,2.2714
86.3319,2.1694
86.3319,2.0267
86.3391,1.7742
86.3394,1.6045
86.3394,1.4779
86.3394,1.2818
86.3394,1.2589
86.3447,1.261
86.3447,1.2824
86.3457,1.4127
86.3457,1.6771
86.3522,1.8711
86.3522,2.0688
86.3522,2.1064
86.3522,1.9375
86.3522,1.7927
86.3589,1.6534
86.3589,1.4078
86.3589,1.2565
86.3589,1.242
86.3656,1.2467
86.3656,1.2542
86.3656,1.3403
86.3656,1.4892
86.3656,1.5518
86.3719,1.9898
86.3719,2.1138
86.3719,2.0789
86.3719,1.9026
86.3719,1.6133
86.3789,1.476
86.3789,1.3602
86.3789,1.2499
86.3789,1.2419
86.3860,1.2411
86.3860,1.251
86.3868,1.3197
86.3868,1.5848
86.3868,1.7894
86.3930,1.9975
86.3930,2.0764
86.3930,1.9082
86.3930,1.7911
86.3998,1.645
86.3998,1.404
86.4004,1.2578
86.4004,1.2409
86.4004,1.2435
86.4058,1.2569
86.4058,1.3082
86.4058,1.4466
86.4058,1.5966
86.4130,1.9866
86.4157,2.1561
86.4218,2.1216
86.4228,1.8031
86.4228,1.6789
86.4239,1.5355
86.4239,1.4198
86.4239,1.2411
86.4239,1.2426
86.4239,1.2499
86.4260,1.2548
86.4260,1.4925
86.4270,1.6035
86.4270,1.7695
86.4338,1.9883
86.4343,2.1029
86.4343,1.9752
86.4343,1.8272
86.4343,1.51
86.4396,1.4149
86.4396,1.2737
86.4406,1.2422
86.4406,1.2488
86.4474,1.2589
86.4494,1.3127
86.4494,1.4635
86.4494,1.7618
86.4504,2.0037
86.4534,2.1323
86.4534,2.1091
86.4544,1.8096
86.4544,1.6658
86.4608,1.5375
86.4608,1.4288
86.4608,1.2413
86.4608,1.2428
86.4618,1.2465
86.4671,1.3056
86.4671,1.4453
86.4671,1.5797
86.4671,1.7365
86.4681,2.11
86.4732,2.0838
86.4742,1.9478
86.4742,1.8151
86.4742,1.5194
86.4810,1.4129
86.4810,1.2685
86.4810,1.2441
86.4810,1.2467
86.4820,1.2486
86.4878,1.2865
86.4878,1.5599
86.4878,1.7014
86.4878,1.9111
86.4948,2.0823
86.4948,1.9652
86.4948,1.7888
86.4948,1.6547
86.4958,1.5122
86.5013,1.263
86.5013,1.24
86.5013,1.2415
86.5013,1.245
86.5082,1.2705
86.5086,1.3817
86.5086,1.5467
86.5086,1.9197
86.5086,2.0748
86.5140,2.1036
86.5150,1.966
86.5150,1.6671
86.5160,1.5239
86.5160,1.4215
86.5210,1.272
86.5210,1.2398
86.5210,1.2449
86.5210,1.2486
86.5290,1.2857
86.5300,1.5599
86.5300,1.7123
86.5300,1.942
86.5300,2.0821
86.5354,2.0091
86.5354,1.8276
86.5354,1.6707
86.5354,1.4438
86.5426,1.2945
86.5426,1.2417
86.5426,1.2462
86.5426,1.2488
86.5426,1.2739
86.5485,1.4001
86.5485,1.5456
86.5485,1.9356
86.5485,2.0633
86.5559,2.1259
86.5559,1.8338
86.5559,1.7174
86.5559,1.5644
86.5559,1.4421
86.5622,1.2428
86.5622,1.2415
86.5622,1.2443
86.5622,1.2473
86.5622,1.4342
86.5683,1.5664
86.5683,1.669
86.5694,1.9082
86.5694,2.1484
86.5762,2.0204
86.5762,1.8126
86.5762,1.5897
86.5762,1.4702
86.5762,1.308
86.5828,1.2443
86.5828,1.2471
86.5828,1.2488
86.5828,1.2975
86.5899,1.4014
86.5899,1.6954
86.5899,1.912
86.5907,2.0592
86.5908,2.1295
86.5963,1.8413
86.5963,1.7221
86.5963,1.5827
86.5973,1.4532
86.6033,1.2426
86.6033,1.2422
86.6033,1.2464
86.6043,1.2831
86.6043,1.3889
86.6095,1.5246
86.6095,1.6499
86.6105,2.0436
86.6105,2.1108
86.6105,1.9924
86.6167,1.8535
86.6167,1.5735
86.6167,1.4507
86.6177,1.3092
86.6236,1.2417
86.6243,1.245
86.6243,1.2456
86.6243,1.2685
86.6253,1.5145
86.6297,1.6637
86.6297,1.9021
86.6308,2.0474
86.6308,2.0508
86.6389,1.861
86.6451,1.7423
86.6463,1.5756
86.6473,1.3189
86.6473,1.2434
86.6473,1.243
86.6473,1.2452
86.6483,1.276
86.6483,1.3658
86.6503,1.5162
86.6503,1.9058
86.6503,2.0674
86.6503,2.1316
86.6503,2.0583
86.6563,1.7264
86.6574,1.5754
86.6574,1.4445
86.6574,1.338
86.6574,1.2392
86.6634,1.2419
86.6634,1.2471
86.6634,1.2765
86.6645,1.5246
86.6708,1.6397
86.6708,1.9298
86.6708,2.0616
86.6708,2.0727
86.6708,1.8953
86.6778,1.7629
86.6778,1.48
86.6778,1.3495
86.6778,1.2443
86.6849,1.2437
86.6849,1.2469
86.6849,1.2677
86.6849,1.402
86.6849,1.5486
86.6910,1.8462
86.6910,2.0451
86.6910,2.1781
86.6910,2.0879
86.6978,1.7511
86.6978,1.5904
86.6978,1.4768
86.6978,1.3536
86.6978,1.2432
86.7044,1.2499
86.7044,1.2479
86.7044,1.344
86.7044,1.5072
86.7044,1.6251
86.7105,1.8661
86.7105,2.1301
86.7115,2.0781
86.7115,1.846
86.7179,1.7183
86.7179,1.497
86.7179,1.3645
86.7189,1.2479
86.7189,1.2422
86.7252,1.2488
86.7252,1.2638
86.7262,1.3724
86.7262,1.5137
86.7318,1.8689
86.7318,2.0213
86.7328,2.137
86.7328,2.0948
86.7338,1.7695
86.7380,1.6185
86.7391,1.4721
86.7391,1.3555
86.7401,1.246
86.7457,1.2497
86.7594,1.2456
86.7623,1.2634
86.7623,1.506
86.7623,1.6517
86.7635,1.8597
86.7635,2.1254
86.7635,2.1048
86.7645,1.9137
86.7645,1.7781
86.7645,1.4935
86.7655,1.3727
86.7655,1.2495
86.7655,1.2434
86.7655,1.2482
86.7665,1.2662
86.7665,1.3572
86.7665,1.5113
86.7665,1.8574
86.7721,2.0408
86.7721,2.1483
86.7721,2.1256
86.7731,1.8046
86.7795,1.669
86.7795,1.5008
86.7795,1.3855
86.7795,1.2439
86.7806,1.2488
86.7852,1.2533
86.7852,1.3487
86.7852,1.4687
86.7852,1.618
86.7927,1.8319
86.7927,2.1554
86.7927,2.0954
86.7927,1.9129
86.7937,1.7862
86.7988,1.5244
86.7988,1.4104
86.7988,1.2535
86.7988,1.2413
86.7998,1.2475
86.8049,1.2644
86.8059,1.3555
86.8059,1.4607
86.8059,1.8122
86.8149,2.0142
86.8149,2.1556
86.8149,2.0727
86.8149,1.8083
86.8159,1.6636
86.8211,1.5321
86.8211,1.2407
86.8211,1.2443
86.8221,1.2475
86.8284,1.3534
86.8284,1.492
86.8284,1.5957
86.8284,1.9936
86.8294,2.1368
86.8347,2.1003
86.8347,1.9577
86.8347,1.6382
86.8347,1.5083
86.8414,1.4044
86.8414,1.2599
86.8414,1.2458
86.8414,1.2452
86.8425,1.2578
86.8479,1.3401
86.8479,1.5927
86.8479,1.7854
86.8479,1.9851
86.8489,2.1398
86.8591,1.9677
86.8611,1.8027
86.8611,1.6688
86.8611,1.4035
86.8611,1.2621
86.8621,1.2419
86.8621,1.2434
86.8621,1.264
86.8621,1.335
86.8685,1.4747
86.8685,1.5797
86.8685,2.0007
86.8696,2.1537
86.8758,2.1143
86.8758,1.9694
86.8758,1.6632
86.8758,1.5402
86.8768,1.4202
86.8816,1.2409
86.8816,1.2456
86.8824,1.2452
86.8824,1.2499
86.8892,1.4616
86.8892,1.588
86.8892,1.7489
86.8892,1.9607
86.8902,2.1196
86.8955,1.9652
86.8955,1.8239
86.8963,1.6928
86.8965,1.4279
86.8965,1.2737
86.9015,1.2404
86.9025,1.2494
86.9025,1.254
86.9025,1.3116
86.9098,1.4384
86.9098,1.7269
86.9104,1.9921
86.9104,2.1582
86.9104,2.1048
86.9163,1.8548
86.9163,1.7087
86.9163,1.5717
86.9163,1.4258
86.9232,1.2449
86.9237,1.2469
86.9239,1.2497
86.9239,1.2595
86.9239,1.4515
86.9294,1.5929
86.9294,1.7393
86.9294,2.1177
86.9294,2.1248
86.9367,2.0056
86.9367,1.8404
86.9367,1.5567
86.9367,1.4408
86.9377,1.2857
86.9427,1.2426
86.9427,1.2501
86.9427,1.2537
86.9427,1.3062
86.9437,1.4492
86.9499,1.7386
86.9499,1.9411
86.9499,2.1192
86.9499,2.1303
86.9574,1.8396
86.9574,1.7387
86.9574,1.5786
86.9574,1.4444
86.9584,1.2417
86.9691,1.243
86.9701,1.2473
86.9701,1.2959
86.9711,1.4237
86.9711,1.5771
86.9711,1.7164
86.9711,2.1162
86.9711,2.101
86.9721,2.0056
86.9768,1.8164
86.9768,1.5812
86.9768,1.4693
86.9778,1.2947
86.9838,1.2422
86.9838,1.2482
86.9838,1.2522
86.9838,1.2874
86.9848,1.4432
86.9901,1.7189
86.9901,1.9467
86.9901,2.1083
86.9911,2.1351
86.9911,1.8462
86.9963,1.7224
86.9974,1.5758
86.9974,1.4556
86.9974,1.243
87.0034,1.2422
87.0044,1.2469
87.0044,1.3024
87.0044,1.4273
87.0044,1.5681
87.0106,1.6996
87.0106,2.0888
87.0106,2.1162
87.0116,2.0207
87.0179,1.8441
87.0179,1.5782
87.0179,1.4663
87.0179,1.3174
87.0189,1.2443
87.0237,1.2494
87.0237,1.2492
87.0237,1.2745
87.0237,1.402
87.0313,1.6624
87.0314,1.9191
87.0314,2.0984
87.0314,2.1303
87.0324,1.8677
87.0374,1.7069
87.0374,1.5835
87.0374,1.3073
87.0374,1.245
87.0384,1.2419
87.0435,1.2477
87.0445,1.2861
87.0445,1.4245
87.0445,1.5595
87.0518,1.6857
87.0518,2.0736
87.0518,2.1411
87.0518,2.0989
87.0528,1.9032
87.0579,1.6022
87.0579,1.4725
87.0579,1.3343
87.0579,1.2445
87.0650,1.2492
87.0654,1.2557
87.0654,1.2949
87.0654,1.4162
87.0654,1.705
87.0747,1.9109
87.0788,2.0813
87.0808,2.1753
87.0808,1.8541
87.0808,1.7483
87.0808,1.6185
87.0808,1.3626
87.0808,1.246
87.0819,1.2407
87.0846,1.2443
87.0846,1.2831
87.0846,1.3954
87.0846,1.5415
87.0846,1.7014
87.0907,2.0971
87.0917,2.149
87.0917,2.0288
87.0917,1.8812
87.0984,1.6199
87.0984,1.5014
87.0984,1.3504
87.0984,1.2495
87.0994,1.2454
87.1048,1.249
87.1048,1.282
87.1048,1.3967
87.1048,1.6767
87.1124,1.9026
87.1124,2.0684
87.1124,2.1548
87.1124,1.8927
87.1124,1.7652
87.1180,1.626
87.1180,1.3521
87.1190,1.2458
87.1190,1.2432
87.1256,1.2482
87.1256,1.279
87.1256,1.3926
87.1256,1.5456
87.1256,1.6514
87.1318,2.0665
87.1318,2.1334
87.1318,2.0652
87.1318,1.9148
87.1328,1.6054
87.1379,1.4775
87.1389,1.38
87.1389,1.2535
87.1389,1.24
87.1463,1.2471
87.1463,1.2925
87.1463,1.3943
87.1463,1.6275
87.1463,1.8797
87.1526,2.0791
87.1526,2.1241
87.1526,1.9092
87.1526,1.7777
87.1592,1.6315
87.1592,1.3575
87.1592,1.245
87.1600,1.2419
87.1600,1.2464
87.1659,1.2754
87.1659,1.3575
87.1659,1.5132
87.1659,1.6255
87.1729,2.0382
87.1729,2.1751
87.1729,2.1089
87.1736,1.9242
87.1736,1.6217
87.1789,1.5287
87.1789,1.4074
87.1789,1.2542
87.1789,1.2456
87.1799,1.2475
87.1868,1.2719
87.1878,1.3894
87.1878,1.6461
87.1878,1.8788
87.1935,2.0526
87.1935,2.0838
87.1935,1.9336
87.1935,1.8366
87.1935,1.6643
87.1997,1.3832
87.1997,1.2516
87.1997,1.2439
87.2005,1.2492
87.2067,1.2711
87.2067,1.3904
87.2067,1.5267
87.2067,1.6375
87.2077,2.0389
87.2130,2.164
87.2130,2.1203
87.2130,1.9317
87.2130,1.6624
87.2201,1.5413
87.2201,1.4205
87.2201,1.2555
87.2211,1.2516
87.2211,1.2522
87.2264,1.2659
87.2264,1.3772
87.2264,1.6424
87.2264,1.8612
87.2275,2.0571
87.2324,2.1599
87.2334,1.9669
87.2334,1.8201
87.2334,1.6681
87.2405,1.3994
87.2405,1.2516
87.2405,1.2434
87.2405,1.2477
87.2405,1.2685
87.2469,1.3579
87.2469,1.5177
87.2469,1.6294
87.2469,2.0206
87.2534,2.1738
87.2534,2.1256
87.2534,1.9621
87.2544,1.6802
87.2544,1.5284
87.2601,1.4087
87.2601,1.263
87.2601,1.2445
87.2601,1.2499
87.2675,1.2623
87.2675,1.3527
87.2675,1.6208
87.2675,1.7742
87.2685,2.0174
87.2738,2.1488
87.2738,1.957
87.2738,1.8102
87.2738,1.6782
87.2738,1.4462
87.2798,1.2771
87.2798,1.243
87.2808,1.2424
87.2808,1.2647
87.2878,1.3444
87.2878,1.5064
87.2878,1.6315
87.2878,2.0432
87.2905,2.1691
87.2947,2.1396
87.2967,1.9651
87.2967,1.6962
87.2967,1.5621
87.3014,1.4297
87.3014,1.2634
87.3014,1.245
87.3014,1.2497
87.3014,1.2707
87.3077,1.3581
87.3077,1.626
87.3077,1.8192
87.3077,2.0279
87.3148,2.1576
87.3152,2.0029
87.3152,1.8421
87.3152,1.708
87.3152,1.4635
87.3199,1.2833
87.3210,1.242
87.3211,1.2509
87.3211,1.2518
87.3211,1.3474
87.3272,1.5012
87.3272,1.6262
87.3272,1.9971
87.3282,2.1316
87.3352,2.1048
87.3356,1.9986
87.3356,1.7234
87.3356,1.59
87.3356,1.4682
87.3415,1.2906
87.3419,1.2432
87.3419,1.2471
87.3419,1.2559
87.3485,1.3215
87.3485,1.5801
87.3485,1.7222
87.3485,1.9581
87.3485,2.1295
87.3548,2.0018
87.3548,1.8074
87.3548,1.6718
87.3548,1.5173
87.3618,1.2614
87.3618,1.2402
87.3618,1.2426
87.3618,1.2458
87.3628,1.2655
87.3681,1.3943
87.3681,1.5212
87.3693,1.8891
87.3693,2.0234
87.3693,2.0251
87.3744,1.9202
87.3755,1.5983
87.3755,1.452
87.3755,1.327
87.3820,1.2482
87.3820,1.2398
87.3830,1.2422
87.3830,1.2402
87.3830,1.2494
87.3887,1.4204
87.3887,1.581
87.3897,1.8145
87.3897,1.9439
87.3960,1.8342
87.3962,1.6606
87.3962,1.5205
87.3972,1.293
87.4035,1.2426
87.4106,1.2372
87.4128,1.2387
87.4128,1.2381
87.4128,1.2439
87.4138,1.2675
87.4138,1.354
87.4138,1.7228
87.4138,1.8869
87.4148,1.8854
87.4148,1.7729
87.4148,1.4702
87.4148,1.3191
87.4158,1.2617
87.4158,1.2402
87.4218,1.2383
87.4218,1.2364
87.4228,1.237
87.4228,1.2387
87.4296,1.3043
87.4296,1.4215
87.4296,1.6741
87.4296,1.8387
87.4306,1.7121
87.4358,1.557
87.4358,1.4076
87.4368,1.2865
87.4368,1.24
87.4427,1.2368
87.4427,1.237
87.4427,1.2368
87.4437,1.2377
87.4437,1.2419
87.4493,1.2782
87.4493,1.6005
87.4493,1.7691
87.4503,1.8072
87.4563,1.7022
87.4565,1.4106
87.4565,1.2904
87.4565,1.2462
87.4575,1.2389
87.4617,1.2377
87.4628,1.2381
87.4628,1.2366
87.4628,1.2372
87.4637,1.2591
87.4687,1.3491
87.4687,1.5972
87.4697,1.7371
87.4697,1.7078
87.4767,1.5102
87.4771,1.3755
87.4771,1.267
87.4771,1.2394
87.4771,1.237
87.4826,1.2375
87.4826,1.2375
87.4826,1.2372
87.4836,1.2409
87.4899,1.2595
87.4899,1.3364
87.4899,1.6964
87.4909,1.774
87.4909,1.6898
87.4963,1.4886
87.4963,1.2816
87.4963,1.2441
87.4973,1.2377
87.5035,1.2366
87.5035,1.2372
87.5035,1.2368
87.5035,1.2372
87.5045,1.24
87.5100,1.3037
87.5170,1.5344
87.5190,1.7162
87.5190,1.7014
87.5199,1.4963
87.5209,1.3767
87.5209,1.2692
87.5219,1.2379
87.5219,1.2366
87.5239,1.237
87.5239,1.2375
87.5239,1.2372
87.5239,1.24
87.5239,1.255
87.5301,1.3154
87.5301,1.7211
87.5301,1.7648
87.5301,1.6705
87.5365,1.5336
87.5375,1.2854
87.5375,1.2447
87.5375,1.2396
87.5375,1.237
87.5452,1.2366
87.5452,1.2368
87.5452,1.2372
87.5452,1.3047
87.5522,1.5554
87.5524,1.72
87.5524,1.7327
87.5524,1.5379
87.5534,1.4134
87.5587,1.293
87.5587,1.2394
87.5587,1.2368
87.5587,1.2374
87.5587,1.2374
87.5647,1.2372
87.5647,1.2404
87.5657,1.2554
87.5657,1.5722
87.5729,1.7104
87.5729,1.7875
87.5729,1.7444
87.5729,1.4601
87.5729,1.3154
87.5779,1.2514
87.5789,1.2409
87.5789,1.237
87.5789,1.2372
87.5862,1.2368
87.5862,1.2372
87.5862,1.2585
87.5862,1.3242
87.5873,1.5552
87.5925,1.7331
87.5925,1.771
87.5925,1.5799
87.5925,1.4569
87.5996,1.251
87.5996,1.2407
87.5996,1.2368
87.5996,1.2372
87.5996,1.237
87.6058,1.237
87.6058,1.24
87.6058,1.2574
87.6058,1.5405
87.6068,1.7142
87.6128,1.8376
87.6128,1.7665
87.6128,1.4807
87.6128,1.3244
87.6197,1.254
87.6249,1.2405
87.6269,1.2366
87.6269,1.237
87.6269,1.237
87.6269,1.24
87.6278,1.2507
87.6278,1.3034
87.6278,1.5422
87.6336,1.8197
87.6336,1.7768
87.6336,1.6283
87.6336,1.468
87.6336,1.2861
87.6399,1.2479
87.6399,1.2377
87.6399,1.237
87.6399,1.2383
87.6470,1.2389
87.6473,1.2492
87.6473,1.3043
87.6473,1.6442
87.6473,1.8488
87.6523,2.0052
87.6533,1.7614
87.6533,1.6307
87.6544,1.4905
87.6544,1.3609
87.6595,1.2426
87.6604,1.2383
87.6604,1.2381
87.6604,1.2402
87.6669,1.2929
87.6669,1.4344
87.6669,1.5625
87.6669,1.7815
87.6680,2.1031
87.6739,2.0453
87.6744,1.8936
87.6744,1.7734
87.6744,1.5165
87.6808,1.4129
87.6808,1.264
87.6808,1.2437
87.6808,1.2529
87.6808,1.2795
87.6867,1.3615
87.6867,1.5109
87.6877,1.8706
87.6877,2.068
87.6944,2.2216
87.6944,2.0116
87.6944,1.8786
87.6944,1.7431
87.6944,1.5707
87.7006,1.3007
87.7006,1.2499
87.7006,1.2557
87.7006,1.257
87.7006,1.4397
87.7067,1.579
87.7077,1.7009
87.7077,1.9002
87.7077,2.2411
87.7145,2.1931
87.7145,2.0305
87.7145,1.9015
87.7145,1.6045
87.7145,1.5049
87.7208,1.305
87.7208,1.2514
87.7208,1.2681
87.7216,1.3011
87.7282,1.4114
87.7282,1.5636
87.7282,1.8642
87.7282,2.089
87.7282,2.2521
87.7376,2.056
87.7386,1.8972
87.7386,1.7787
87.7395,1.6345
87.7416,1.2893
87.7417,1.2488
87.7417,1.2555
87.7417,1.264
87.7417,1.3915
87.7470,1.5351
87.7480,1.6613
87.7480,1.8452
87.7487,2.1871
87.7487,2.1805
87.7548,2.0641
87.7548,1.8942
87.7548,1.5968
87.7548,1.498
87.7620,1.288
87.7620,1.2467
87.7620,1.2555
87.7620,1.2962
87.7630,1.3872
87.7685,1.6416
87.7685,1.7995
87.7685,2.0297
87.7685,2.2041
87.7755,2.0312
87.7758,1.891
87.7758,1.7581
87.7758,1.6139
87.7758,1.3169
87.7815,1.2505
87.7815,1.248
87.7815,1.2569
87.7815,1.3932
87.7888,1.5413
87.7888,1.6711
87.7888,1.8107
87.7888,2.2668
87.7888,2.2422
87.7954,2.0556
87.7954,1.7841
87.7954,1.6636
87.7954,1.5623
87.7954,1.3452
87.8015,1.2554
87.8015,1.269
87.8015,1.3013
87.8026,1.4196
87.8095,1.7033
87.8095,1.8505
87.8095,2.0629
87.8095,2.2319
87.8095,2.0984
87.8158,1.9414
87.8158,1.8046
87.8158,1.6594
87.8158,1.362
87.8229,1.2606
87.8229,1.2582
87.8229,1.2749
87.8229,1.4048
87.8239,1.5195
87.8292,1.6769
87.8292,2.0592
87.8292,2.2083
87.8292,2.2296
87.8363,2.1169
87.8363,1.8107
87.8363,1.6636
87.8363,1.5445
87.8373,1.3671
87.8424,1.2634
87.8424,1.2737
87.8441,1.2765
87.8514,1.3727
87.8534,1.6624
87.8534,1.7956
87.8534,2.0412
87.8544,2.1859
87.8544,2.1162
87.8567,1.9356
87.8567,1.8066
87.8567,1.5426
87.8567,1.3658
87.8578,1.2582
87.8629,1.2542
87.8629,1.2666
87.8629,1.3635
87.8639,1.5329
87.8699,1.6377
87.8699,2.0296
87.8709,2.1846
87.8709,2.1974
87.8709,2.0959
87.8765,1.7633
87.8765,1.6259
87.8765,1.545
87.8775,1.3551
87.8837,1.2477
87.8838,1.2617
87.8838,1.2782
87.8838,1.3294
87.8848,1.6508
87.8891,1.7757
87.8891,2.0102
87.8902,2.1479
87.8902,2.0974
87.8902,1.9388
87.8963,1.7819
87.8963,1.6274
87.8963,1.3624
87.8973,1.2503
87.9033,1.2495
87.9033,1.2602
87.9043,1.3352
87.9043,1.4749
87.9043,1.6184
87.9102,2.008
87.9108,2.1436
87.9108,2.2098
87.9108,2.1139
87.9173,1.8006
87.9173,1.6654
87.9173,1.5462
87.9183,1.3778
87.9183,1.2548
87.9234,1.2765
87.9234,1.2561
87.9242,1.3409
87.9242,1.6486
87.9309,1.7457
87.9309,1.9879
87.9309,2.1651
87.9309,2.1286
87.9319,1.9574
87.9364,1.8211
87.9364,1.6639
87.9364,1.4157
87.9375,1.2644
87.9375,1.2525
87.9437,1.2735
87.9437,1.3431
87.9437,1.4877
87.9437,1.6294
87.9512,2.0001
87.9512,2.173
87.9512,2.2163
87.9512,2.1334
87.9522,1.8484
87.9573,1.7114
87.9593,1.554
87.9593,1.3982
87.9593,1.252
87.9646,1.257
87.9646,1.2752
87.9646,1.392
87.9646,1.6125
87.9646,1.7346
87.9705,1.9733
87.9705,2.1288
87.9705,2.1492
87.9705,1.9604
87.9780,1.8364
87.9780,1.6913
87.9780,1.4149
87.9780,1.2619
87.9780,1.2479
87.9839,1.2567
87.9839,1.3425
87.9839,1.4659
87.9839,1.6127
87.9839,1.7361
87.9910,2.1188
87.9910,2.2004
87.9910,2.1454
87.9910,1.8411
87.9985,1.6994
87.9985,1.5666
87.9985,1.4207
87.9985,1.2482
87.9985,1.2559
88.0047,1.2629
88.0047,1.3219
88.0047,1.6002
88.0047,1.6996
88.0119,1.9397
88.0119,2.1023
88.0119,2.1308
88.0119,1.9337
88.0119,1.8107
88.0180,1.6999
88.0180,1.4339
88.0180,1.2576
88.0180,1.245
88.0250,1.2546
88.0250,1.2895
88.0250,1.4434
88.0250,1.606
88.0250,1.7202
88.0314,2.1181
88.0314,2.2154
88.0314,2.161
88.0324,1.8533
88.0324,1.711
88.0375,1.582
88.0386,1.459
88.0386,1.251
88.0386,1.2591
88.0457,1.2615
88.0457,1.317
88.0457,1.599
88.0457,1.702
88.0467,1.9414
88.0519,2.1171
88.0519,2.1663
88.0519,1.9829
88.0519,1.8672
88.0589,1.7166
88.0594,1.4485
88.0594,1.2754
88.0594,1.2492
88.0594,1.2557
88.0659,1.323
88.0752,1.4564
88.0773,1.6047
88.0783,1.6971
88.0783,2.1181
88.0783,2.2521
88.0783,2.1794
88.0793,1.8546
88.0793,1.7134
88.0793,1.602
88.0793,1.4605
88.0803,1.2514
88.0803,1.2471
88.0803,1.2539
88.0853,1.309
88.0853,1.6043
88.0853,1.7041
88.0863,1.9474
88.0928,2.1175
88.0928,2.1801
88.0928,2.008
88.0938,1.885
88.0938,1.735
88.0992,1.4852
88.0992,1.3035
88.0992,1.2479
88.0992,1.2516
88.1062,1.3075
88.1062,1.4234
88.1062,1.572
88.1062,1.7007
88.1072,2.0924
88.1125,2.2362
88.1125,2.1837
88.1125,1.8839
88.1135,1.7344
88.1199,1.596
88.1200,1.479
88.1200,1.2486
88.1200,1.2591
88.1210,1.2662
88.1256,1.2929
88.1256,1.5707
88.1256,1.6907
88.1266,1.8859
88.1266,2.0926
88.1328,2.1788
88.1328,2.0211
88.1328,1.8737
88.1328,1.7187
88.1402,1.5014
88.1402,1.2734
88.1402,1.2486
88.1412,1.2595
88.1414,1.2936
88.1467,1.3969
88.1467,1.5372
88.1467,1.6669
88.1467,2.0746
88.1533,2.2124
88.1533,2.1743
88.1533,1.8799
88.1533,1.7204
88.1543,1.5947
88.1598,1.488
88.1598,1.2462
88.1598,1.2518
88.1608,1.2589
88.1668,1.284
88.1668,1.5422
88.1668,1.6709
88.1668,1.8509
88.1678,2.0676
88.1731,2.167
88.1792,2.0192
88.1814,1.8884
88.1814,1.7444
88.1814,1.4961
88.1824,1.3206
88.1824,1.2454
88.1824,1.2514
88.1824,1.2764
88.1871,1.3844
88.1871,1.5353
88.1871,1.6673
88.1881,2.0768
88.1881,2.2049
88.1937,2.1897
88.1937,1.9043
88.1937,1.753
88.1947,1.6009
88.2007,1.5192
88.2007,1.2464
88.2007,1.2475
88.2007,1.2544
88.2018,1.2756
88.2071,1.5137
88.2071,1.6609
88.2071,1.8316
88.2081,2.0584
88.2142,2.1779
88.2144,2.044
88.2144,1.879
88.2144,1.7412
88.2154,1.5025
88.2197,1.3427
88.2197,1.254
88.2207,1.2599
88.2207,1.2719
88.2207,1.3731
88.2266,1.5085
88.2276,1.8121
88.2276,2.0401
88.2276,2.1979
88.2348,2.1934
88.2348,1.9208
88.2348,1.7652
88.2348,1.6092
88.2358,1.5077
88.2408,1.2492
88.2408,1.2552
88.2418,1.2644
88.2418,1.2666
88.2481,1.5154
88.2481,1.6626
88.2481,1.7851
88.2490,2.0207
88.2490,2.2158
88.2544,2.0684
88.2544,1.9174
88.2544,1.7862
88.2553,1.4955
88.2615,1.3244
88.2615,1.2497
88.2615,1.2559
88.2615,1.2629
88.2625,1.365
88.2690,1.5132
88.2690,1.7761
88.2690,2.0442
88.2700,2.1619
88.2700,2.1728
88.2760,1.7552
88.2760,1.621
88.2760,1.5042
88.2770,1.2465
88.2835,1.2499
88.2835,1.2542
88.2835,1.3615
88.2865,1.4882
88.2924,1.6407
88.2944,1.7738
88.2944,2.1597
88.2944,2.1865
88.2944,2.0667
88.2967,1.9225
88.2967,1.6319
88.2967,1.5122
88.2967,1.3358
88.2977,1.2471
88.3032,1.2505
88.3032,1.2653
88.3032,1.3435
88.3041,1.4783
88.3106,1.7532
88.3106,2.0168
88.3106,2.1771
88.3106,2.086
88.3106,1.9015
88.3162,1.7965
88.3162,1.6487
88.3162,1.3519
88.3162,1.2479
88.3172,1.2548
88.3232,1.2668
88.3232,1.353
88.3232,1.465
88.3232,1.5964
88.3309,1.7702
88.3309,2.1743
88.3309,2.1889
88.3309,2.1003
88.3309,1.9291
88.3367,1.6377
88.3367,1.5102
88.3367,1.365
88.3377,1.251
88.3445,1.2623
88.3445,1.2629
88.3445,1.3279
88.3445,1.6002
88.3445,1.7365
88.3509,1.9793
88.3509,2.1424
88.3509,2.1053
88.3509,1.921
88.3578,1.7972
88.3578,1.6442
88.3578,1.3919
88.3578,1.2516
88.3578,1.2479
88.3639,1.2589
88.3639,1.3137
88.3639,1.473
88.3639,1.6071
88.3639,1.735
88.3709,2.1361
88.3709,2.2171
88.3709,2.1151
88.3709,1.8184
88.3781,1.6519
88.3781,1.5415
88.3781,1.3877
88.3781,1.2505
88.3781,1.2559
88.3847,1.2739
88.3847,1.3339
88.3847,1.594
88.3847,1.7072
88.3919,1.9514
88.3919,2.1308
88.3919,2.128
88.3919,1.9414
88.3919,1.813
88.4006,1.6684
88.4016,1.4057
88.4016,1.2572
88.4016,1.2452
88.4049,1.2587
88.4049,1.3086
88.4049,1.4372
88.4049,1.5846
88.4049,1.9602
88.4115,2.1359
88.4115,2.2041
88.4115,2.1299
88.4115,1.8186
88.4115,1.6752
88.4176,1.5666
88.4186,1.4007
88.4186,1.2434
88.4186,1.2488
88.4260,1.2548
88.4260,1.4689
88.4260,1.6148
88.4260,1.7161
88.4260,1.9551
88.4321,2.2201
88.4321,2.1447
88.4321,1.9699
88.4321,1.8653
88.4394,1.5597
88.4394,1.4279
88.4394,1.2668
88.4394,1.2557
88.4394,1.2647
88.4456,1.311
88.4456,1.4329
88.4456,1.7041
88.4456,1.9431
88.4528,2.086
88.4542,2.1471
88.4552,1.9343
88.4552,1.8089
88.4552,1.6564
88.4586,1.5162
88.4586,1.2546
88.4586,1.242
88.4594,1.2441
88.4594,1.2452
88.4653,1.3784
88.4653,1.5345
88.4653,1.6302
88.4663,1.8454
88.4733,2.0978
88.4733,2.0556
88.4739,1.864
88.4739,1.5539
88.4739,1.4389
88.4796,1.3425
88.4796,1.2471
88.4802,1.2422
88.4802,1.2434
88.4865,1.2486
88.4865,1.293
88.4865,1.5659
88.4865,1.7877
88.4865,1.9336
88.4929,2.0282
88.4929,1.8006
88.4929,1.6752
88.4929,1.5177
88.5002,1.2762
88.5002,1.24
88.5002,1.2375
88.5002,1.239
88.5002,1.2422
88.5080,1.258
88.5120,1.3454
88.5131,1.4689
88.5131,1.8462
88.5131,1.9771
88.5131,1.9394
88.5141,1.7582
88.5141,1.4588
88.5141,1.3067
88.5199,1.2642
88.5206,1.237
88.5206,1.237
88.5206,1.2381
88.5206,1.2389
88.5270,1.2985
88.5280,1.42
88.5280,1.63
88.5280,1.7967
88.5342,1.8901
88.5342,1.7035
88.5342,1.5608
88.5342,1.4269
88.5351,1.2516
88.5406,1.2379
88.5406,1.2377
88.5406,1.2381
88.5406,1.2381
88.5477,1.2435
88.5477,1.2917
88.5477,1.5713
88.5477,1.7732
88.5477,1.9006
88.5538,1.8629
88.5538,1.5683
88.5538,1.4297
88.5538,1.2869
88.5538,1.246
88.5599,1.2366
88.5609,1.2366
88.5609,1.2372
88.5609,1.2375
88.5677,1.2749
88.5677,1.359
88.5677,1.5529
88.5677,1.7515
88.5677,1.8428
88.5744,1.6611
88.5744,1.522
88.5744,1.2722
88.5744,1.2469
88.5816,1.2381
88.5816,1.2374
88.5816,1.2372
88.5816,1.2372
88.5816,1.2394
88.5878,1.257
88.5878,1.4875
88.5878,1.7061
88.5878,1.8572
88.5949,1.7781
88.5953,1.534
88.5953,1.3791
88.5953,1.2675
88.5963,1.2428
88.6007,1.2366
88.6007,1.2366
88.6007,1.2375
88.6017,1.237
88.6017,1.2486
88.6079,1.288
88.6079,1.4545
88.6079,1.6891
88.6079,1.8107
88.6153,1.6677
88.6153,1.4954
88.6153,1.3742
88.6184,1.2432
88.6256,1.2374
88.6275,1.2368
88.6275,1.2372
88.6275,1.237
88.6287,1.2392
88.6287,1.2488
88.6287,1.2987
88.6287,1.675
88.6298,1.8212
88.6298,1.7976
88.6348,1.5255
88.6348,1.4065
88.6348,1.2722
88.6358,1.245
88.6420,1.2364
88.6420,1.237
88.6420,1.2375
88.6420,1.237
88.6430,1.2535
88.6482,1.3069
88.6482,1.4588
88.6482,1.6849
88.6493,1.8134
88.6493,1.6868
88.6554,1.5368
88.6554,1.4215
88.6564,1.2509
88.6565,1.2379
88.6620,1.2366
88.6620,1.237
88.6630,1.2372
88.6630,1.2394
88.6630,1.255
88.6681,1.3208
88.6681,1.7041
88.6681,1.8679
88.6691,1.8557
88.6758,1.7421
88.6758,1.4387
88.6758,1.3107
88.6758,1.2499
88.6766,1.237
88.6821,1.2379
88.6821,1.2387
88.6821,1.2374
88.6821,1.2584
88.6890,1.338
88.6891,1.5068
88.6891,1.7451
88.6891,1.9034
88.6891,1.7807
88.6956,1.6204
88.6956,1.4912
88.6956,1.2664
88.6956,1.2417
88.6956,1.237
88.7017,1.2375
88.7017,1.2372
88.7017,1.2407
88.7027,1.2724
88.7097,1.3515
88.7097,1.7639
88.7097,1.9223
88.7097,1.9182
88.7097,1.7927
88.7160,1.4884
88.7160,1.3662
88.7160,1.2674
88.7160,1.2415
88.7228,1.2383
88.7228,1.2409
88.7228,1.2377
88.7228,1.2404
88.7228,1.3602
88.7323,1.4892
88.7334,1.7104
88.7334,1.8548
88.7334,1.8008
88.7365,1.6339
88.7365,1.4955
88.7365,1.2747
88.7365,1.2404
88.7365,1.2364
88.7422,1.2377
88.7422,1.2374
88.7422,1.2394
88.7422,1.2499
88.7422,1.324
88.7493,1.7464
88.7493,1.9024
88.7493,1.9547
88.7493,1.8604
88.7560,1.557
88.7570,1.4127
88.7570,1.318
88.7570,1.2591
88.7570,1.239
88.7630,1.2398
88.7630,1.2402
88.7630,1.2492
88.7630,1.4738
88.7699,1.6131
88.7699,1.8602
88.7699,2.0269
88.7699,1.9752
88.7699,1.8214
88.7763,1.702
88.7763,1.5505
88.7763,1.3139
88.7763,1.2435
88.7837,1.2443
88.7838,1.2548
88.7838,1.3208
88.7838,1.4346
88.7838,1.5765
88.7898,1.9771
88.7898,2.1145
88.7898,2.2036
88.7898,2.1147
88.7898,1.8169
88.7959,1.6921
88.7959,1.5524
88.7969,1.3969
88.7969,1.2497
88.8036,1.2606
88.8036,1.2959
88.8036,1.3671
88.8036,1.6827
88.8036,1.8107
88.8104,2.0504
88.8104,2.2218
88.8111,2.1961
88.8111,2.0342
88.8166,1.9262
88.8176,1.7479
88.8176,1.4991
88.8176,1.2977
88.8176,1.2735
88.8237,1.3178
88.8237,1.3988
88.8237,1.5799
88.8237,1.7402
88.8308,2.0853
88.8308,2.2733
88.8308,2.3446
88.8308,2.2364
88.8308,1.9489
88.8401,1.7912
88.8411,1.6429
88.8411,1.5038
88.8411,1.2645
88.8411,1.2863
88.8430,1.3191
88.8440,1.4046
88.8441,1.7027
88.8441,1.8274
88.8513,2.0785
88.8513,2.254
88.8513,2.2373
88.8513,2.0551
88.8513,1.945
88.8576,1.7689
88.8576,1.5175
88.8576,1.3062
88.8576,1.26
88.8647,1.2801
88.8647,1.3977
88.8647,1.5381
88.8647,1.6816
88.8647,2.0688
88.8699,2.2165
88.8709,2.3026
88.8709,2.2193
88.8709,1.921
88.8779,1.7867
88.8779,1.6555
88.8779,1.5278
88.8779,1.2593
88.8779,1.2666
88.8843,1.2882
88.8843,1.3967
88.8843,1.6709
88.8843,1.7794
88.8843,1.9958
88.8903,2.1908
88.8913,2.2589
88.8913,2.0643
88.8913,1.9382
88.8979,1.7642
88.8979,1.5004
88.8979,1.29
88.8989,1.2557
88.8989,1.2674
88.9045,1.3845
88.9045,1.5036
88.9045,1.6637
88.9053,1.9812
88.9118,2.1846
88.9118,2.3058
88.9118,2.2429
88.9118,1.9506
88.9118,1.7989
88.9177,1.6373
88.9177,1.5495
88.9177,1.2578
88.9177,1.2782
88.9251,1.3052
88.9251,1.3857
88.9251,1.6579
88.9251,1.7682
88.9251,1.9876
88.9315,2.1709
88.9315,2.2349
88.9315,2.0402
88.9315,1.9624
88.9324,1.8199
88.9384,1.5351
88.9384,1.3193
88.9384,1.2608
88.9384,1.2758
88.9452,1.3778
88.9522,1.5098
88.9542,1.6534
88.9542,1.9919
88.9542,2.1799
88.9542,2.3138
88.9542,2.2759
88.9552,1.9291
88.9552,1.8109
88.9586,1.6767
88.9586,1.5689
88.9586,1.2606
88.9586,1.2653
88.9596,1.2884
88.9651,1.3825
88.9651,1.6465
88.9651,1.7952
88.9651,1.9891
88.9727,2.1803
88.9727,2.2761
88.9727,2.1074
88.9727,1.963
88.9727,1.6643
88.9789,1.5644
88.9789,1.377
88.9789,1.2737
88.9789,1.3043
88.9797,1.3733
88.9857,1.5062
88.9857,1.6602
88.9857,1.9739
88.9857,2.1558
88.9931,2.3026
88.9931,2.251
88.9931,1.9617
88.9931,1.8237
88.9931,1.6816
89.0014,1.543
89.0014,1.2649
89.0014,1.3013
89.0014,1.5132
89.0080,1.6382
89.0080,1.7534
89.0080,1.9489
89.0080,2.2894
89.0088,2.2564
89.0143,2.0999
89.0143,1.8357
89.0143,1.6866
89.0143,1.5728
89.0217,1.3553
89.0217,1.2839
89.0217,1.2602
89.0217,1.3562
89.0226,1.4798
89.0279,1.7732
89.0279,1.939
89.0279,2.1471
89.0279,2.2864
89.0279,2.1151
89.0349,1.9615
89.0349,1.8192
89.0349,1.5885
89.0349,1.3545
89.0423,1.2615
89.0423,1.2602
89.0423,1.3512
89.0423,1.4652
89.0423,1.6032
89.0486,1.7269
89.0486,2.1265
89.0486,2.2696
89.0486,2.2666
89.0558,2.1396
89.0558,1.8295
89.0558,1.6885
89.0558,1.57
89.0558,1.2642
89.0618,1.263
89.0628,1.2775
89.0628,1.3489
89.0638,1.5812
89.0692,1.7204
89.0692,1.9069
89.0692,2.1325
89.0692,2.2615
89.0702,2.1481
89.0755,1.981
89.0755,1.8293
89.0755,1.581
89.0755,1.3808
89.0755,1.2651
89.0817,1.2812
89.0817,1.3377
89.0827,1.4399
89.0827,1.5977
89.0897,1.8919
89.0897,2.1338
89.0897,2.2743
89.0897,2.2548
89.0897,1.9752
89.0963,1.8481
89.0963,1.6817
89.0963,1.5863
89.0971,1.2685
89.1027,1.2584
89.1027,1.2878
89.1027,1.434
89.1037,1.5651
89.1037,1.7086
89.1095,1.8713
89.1095,2.2716
89.1095,2.2686
89.1095,2.179
89.1168,1.9679
89.1168,1.7288
89.1168,1.5902
89.1168,1.4162
89.1168,1.2719
89.1229,1.3052
89.1229,1.3148
89.1229,1.4192
89.1229,1.579
89.1229,1.8632
89.1290,2.0965
89.1300,2.2474
89.1300,2.2422
89.1300,2.0003
89.1367,1.8655
89.1367,1.7161
89.1377,1.4072
89.1377,1.266
89.1377,1.2644
89.1435,1.2927
89.1435,1.4299
89.1435,1.5724
89.1435,1.72
89.1507,1.8586
89.1507,2.2405
89.1507,2.2624
89.1507,2.1618
89.1507,1.9855
89.1569,1.7211
89.1569,1.5981
89.1569,1.4247
89.1569,1.2709
89.1634,1.2709
89.1634,1.3144
89.1634,1.4102
89.1634,1.5602
89.1634,1.8291
89.1739,2.0706
89.1750,2.1739
89.1750,2.2621
89.1750,2.0072
89.1750,1.8293
89.1770,1.6874
89.1770,1.4492
89.1770,1.272
89.1770,1.2574
89.1844,1.2666
89.1844,1.4009
89.1844,1.5385
89.1844,1.69
89.1844,1.8207
89.1909,2.2298
89.1909,2.2679
89.1909,2.1874
89.1909,2.0191
89.1978,1.6898
89.1978,1.6095
89.1984,1.4742
89.1984,1.27
89.1984,1.2683
89.2032,1.287
89.2042,1.3939
89.2042,1.546
89.2042,1.8077
89.2112,2.0498
89.2112,2.215
89.2112,2.2699
89.2123,1.999
89.2123,1.8801
89.2176,1.7382
89.2176,1.4627
89.2176,1.275
89.2187,1.2516
89.2187,1.2675
89.2238,1.3812
89.2248,1.5372
89.2248,1.6962
89.2248,1.8226
89.2318,2.1989
89.2318,2.2999
89.2318,2.2212
89.2328,2.0108
89.2328,1.7279
89.2379,1.6034
89.2379,1.464
89.2389,1.2767
89.2389,1.2784
89.2454,1.2893
89.2454,1.3887
89.2454,1.5188
89.2465,1.7845
89.2465,2.0327
89.2509,2.1777
89.2509,2.1927
89.2519,1.9921
89.2519,1.8908
89.2585,1.7451
89.2585,1.4779
89.2585,1.2809
89.2595,1.2509
89.2595,1.2741
89.2649,1.3832
89.2649,1.5079
89.2659,1.6594
89.2659,1.7731
89.2659,2.1874
89.2711,2.2887
89.2721,2.2053
89.2721,2.014
89.2721,1.7397
89.2802,1.6187
89.2894,1.4609
89.2904,1.2653
89.2915,1.2705
89.2915,1.2822
89.2915,1.3609
89.2915,1.6587
89.2915,1.7802
89.2926,2.0001
89.2926,2.1565
89.2926,2.2396
89.2926,2.0277
89.2936,1.9015
89.2936,1.7599
89.2987,1.4884
89.2987,1.2904
89.2987,1.2512
89.2987,1.2593
89.3058,1.3596
89.3058,1.4834
89.3058,1.6581
89.3058,1.7657
89.3068,2.1933
89.3121,2.3033
89.3121,2.2088
89.3121,1.9197
89.3121,1.7813
89.3132,1.6077
89.3183,1.4912
89.3183,1.2548
89.3194,1.2585
89.3194,1.2878
89.3265,1.3628
89.3265,1.6501
89.3265,1.8014
89.3265,1.9997
89.3275,2.2557
89.3328,2.2165
89.3328,2.0431
89.3328,1.9287
89.3328,1.6225
89.3395,1.4985
89.3395,1.3
89.3395,1.2535
89.3406,1.2737
89.3406,1.357
89.3461,1.4929
89.3461,1.6343
89.3461,1.9763
89.3461,2.1906
89.3532,2.2684
89.3532,2.0417
89.3532,1.9159
89.3532,1.7749
89.3532,1.6381
89.3597,1.2934
89.3597,1.2554
89.3597,1.2655
89.3597,1.2773
89.3607,1.4693
89.3658,1.636
89.3668,1.7669
89.3668,1.9291
89.3668,2.2795
89.3740,2.2294
89.3740,2.0365
89.3740,1.7734
89.3740,1.6381
89.3740,1.5338
89.3803,1.3019
89.3803,1.2623
89.3803,1.2689
89.3803,1.3414
89.3874,1.4639
89.3874,1.7266
89.3874,1.9266
89.3874,2.1376
89.3884,2.2414
89.3956,2.0463
89.3967,1.9114
89.3967,1.8019
89.3967,1.4961
89.4010,1.305
89.4011,1.2527
89.4011,1.2629
89.4011,1.3197
89.4011,1.437
89.4072,1.6034
89.4072,1.7251
89.4072,2.1436
89.4072,2.2563
89.4082,2.2221
89.4143,2.0796
89.4143,1.7804
89.4143,1.627
89.4143,1.5246
89.4214,1.2574
89.4214,1.2606
89.4214,1.2707
89.4214,1.3255
89.4214,1.5705
89.4278,1.7502
89.4278,1.9412
89.4278,2.1329
89.4287,2.2379
89.4350,2.0759
89.4350,1.9435
89.4350,1.6617
89.4350,1.5595
89.4350,1.3472
89.4412,1.2604
89.4412,1.2861
89.4412,1.3317
89.4421,1.4474
89.4485,1.6037
89.4485,1.9084
89.4485,2.1173
89.4485,2.2527
89.4485,2.2563
89.4545,1.948
89.4566,1.8158
89.4566,1.6776
89.4566,1.3439
89.4566,1.2524
89.4616,1.2552
89.4616,1.2779
89.4616,1.438
89.4616,1.5775
89.4690,1.7297
89.4690,1.9193
89.4690,2.2506
89.4690,2.2111
89.4700,2.1156
89.4754,1.9866
89.4754,1.6664
89.4754,1.5655
89.4754,1.3671
89.4826,1.27
89.4826,1.2839
89.4826,1.3079
89.4826,1.4198
89.4826,1.7117
89.4888,1.8829
89.4888,2.1094
89.4888,2.2549
89.4888,2.1141
89.4959,1.9536
89.4991,1.8203
89.5031,1.6716
89.5040,1.3697
89.5050,1.2612
89.5050,1.2647
89.5050,1.3058
89.5050,1.4196
89.5050,1.5775
89.5060,1.7292
89.5090,2.1244
89.5090,2.2437
89.5090,2.2053
89.5090,2.1025
89.5160,1.8482
89.5160,1.6624
89.5170,1.5696
89.5170,1.3881
89.5170,1.2548
89.5229,1.2704
89.5229,1.3118
89.5229,1.5846
89.5229,1.7116
89.5301,1.8646
89.5301,2.1166
89.5301,2.2499
89.5301,2.1263
89.5301,1.9525
89.5361,1.8265
89.5361,1.5732
89.5361,1.3814
89.5361,1.2584
89.5427,1.2629
89.5437,1.3062
89.5437,1.4181
89.5437,1.5599
89.5437,1.8582
89.5499,2.0828
89.5499,2.2452
89.5499,2.2714
89.5499,1.9472
89.5499,1.8209
89.5569,1.7209
89.5569,1.5998
89.5569,1.2735
89.5569,1.2645
89.5642,1.2792
89.5642,1.4052
89.5642,1.5561
89.5642,1.6969
89.5642,1.819
89.5704,2.2259
89.5704,2.2431
89.5704,2.1383
89.5704,1.9741
89.5778,1.6988
89.5778,1.5855
89.5778,1.4226
89.5778,1.2647
89.5778,1.2739
89.5839,1.293
89.5839,1.3986
89.5839,1.5357
89.5839,1.8194
89.5912,2.0763
89.5912,2.2242
89.5912,2.1659
89.5912,1.9928
89.5912,1.8537
89.5974,1.6951
89.5974,1.4421
89.5974,1.2713
89.5974,1.2636
89.5974,1.2788
89.6044,1.4024
89.6044,1.5377
89.6044,1.6853
89.6044,2.0566
89.6123,2.2094
89.6123,2.2398
89.6123,2.1415
89.6123,1.8685
89.6123,1.738
89.6180,1.593
89.6180,1.4239
89.6180,1.2535
89.6180,1.2777
89.6253,1.2932
89.6253,1.3662
89.6253,1.6821
89.6253,1.8209
89.6253,2.0511
89.6315,2.2638
89.6315,2.1642
89.6315,1.9892
89.6315,1.8524
89.6386,1.632
89.6388,1.4637
89.6388,1.2664
89.6388,1.257
89.6388,1.2855
89.6449,1.3645
89.6449,1.5051
89.6449,1.6596
89.6449,2.0172
89.6449,2.1768
89.6519,2.2926
89.6519,1.9639
89.6519,1.8526
89.6519,1.7528
89.6588,1.6079
89.6588,1.2704
89.6588,1.254
89.6598,1.2659
89.6598,1.2885
89.6651,1.4978
89.6651,1.6519
89.6651,1.7869
89.6651,2.0404
89.6721,2.2563
89.6721,2.1871
89.6721,1.9782
89.6731,1.744
89.6731,1.59
89.6790,1.4337
89.6790,1.2694
89.6790,1.2724
89.6790,1.2814
89.6863,1.3497
89.6863,1.5179
89.6863,1.7491
89.6863,1.996
89.6863,2.1683
89.6925,2.2444
89.6925,2.0172
89.6925,1.8749
89.6925,1.7329
89.6925,1.4725
89.6995,1.2765
89.6995,1.2509
89.6995,1.2559
89.6995,1.3652
89.7067,1.5094
89.7067,1.6459
89.7067,1.7462
89.7067,2.1728
89.7067,2.2564
89.7130,2.1835
89.7130,2.0346
89.7130,1.7102
89.7130,1.6032
89.7210,1.4976
89.7220,1.255
89.7220,1.2599
89.7220,1.284
89.7220,1.3585
89.7281,1.632
89.7281,1.762
89.7281,1.9894
89.7281,2.1646
89.7352,2.191
89.7352,1.8979
89.7352,1.6212
89.7352,1.4955
89.7352,1.2865
89.7417,1.2507
89.7417,1.2642
89.7417,1.3388
89.7417,1.5029
89.7417,1.6577
89.7477,1.9699
89.7486,2.1629
89.7486,2.2844
89.7486,2.1908
89.7559,1.8996
89.7559,1.7779
89.7559,1.6364
89.7559,1.2985
89.7559,1.2595
89.7619,1.2694
89.7619,1.272
89.7619,1.4468
89.7619,1.6062
89.7694,1.7558
89.7694,1.9681
89.7694,2.2662
89.7694,2.2182
89.7694,2.0477
89.7755,1.8989
89.7755,1.5949
89.7761,1.4856
89.7761,1.3004
89.7827,1.2535
89.7827,1.2662
89.7827,1.3324
89.7827,1.4691
89.7827,1.7491
89.7890,1.9707
89.7890,2.1526
89.7890,2.2641
89.7890,2.0436
89.7890,1.9281
89.7960,1.7596
89.7960,1.6289
89.7960,1.3049
89.7960,1.2554
89.8031,1.2593
89.8031,1.266
89.8031,1.4434
89.8031,1.591
89.8031,1.714
89.8097,1.9274
89.8097,2.2426
89.8103,2.2092
89.8103,2.0553
89.8169,1.789
89.8169,1.6274
89.8169,1.5164
89.8169,1.32
89.8169,1.2655
89.8231,1.2784
89.8231,1.3215
89.8231,1.4543
89.8231,1.7228
89.8304,1.942
89.8304,2.1233
89.8304,2.2368
89.8304,2.0798
89.8304,1.9219
89.8358,1.7894
89.8365,1.6456
89.8365,1.3067
89.8365,1.2569
89.8365,1.2752
89.8446,1.2947
89.8456,1.4421
89.8456,1.5927
89.8456,1.7106
89.8510,2.107
89.8510,2.2353
89.8510,2.2054
89.8510,2.0543
89.8510,1.7744
89.8572,1.6386
89.8572,1.536
89.8572,1.3324
89.8572,1.258
89.8641,1.2672
89.8641,1.3069
89.8641,1.5561
89.8641,1.7084
89.8641,1.8998
89.8701,2.0716
89.8701,2.2371
89.8701,2.0712
89.8701,1.9244
89.8778,1.7888
89.8778,1.5207
89.8778,1.318
89.8778,1.2499
89.8778,1.2514
89.8840,1.294
89.8840,1.393
89.8840,1.5816
89.8840,1.7072
89.8840,2.0841
89.8900,2.2332
89.8911,2.2124
89.8911,1.9045
89.8911,1.7708
89.8984,1.6414
89.8984,1.525
89.8984,1.2518
89.8984,1.2539
89.8984,1.2705
89.9047,1.2786
89.9047,1.5503
89.9047,1.6996
89.9047,1.8263
89.9119,2.2615
89.9123,2.2386
89.9123,2.0879
89.9123,1.9375
89.9123,1.6512
89.9177,1.5464
89.9177,1.3457
89.9177,1.2527
89.9177,1.2638
89.9253,1.2852
89.9253,1.4095
89.9253,1.5546
89.9253,1.8319
89.9253,2.0551
89.9316,2.2313
89.9316,2.1169
89.9316,1.9416
89.9316,1.7931
89.9316,1.6352
89.9398,1.351
89.9408,1.2557
89.9408,1.2514
89.9408,1.2675
89.9455,1.3913
89.9455,1.5599
89.9455,1.7044
89.9455,1.8441
89.9455,2.2315
89.9522,2.248
89.9522,2.1063
89.9522,1.9231
89.9522,1.669
89.9594,1.5409
89.9594,1.3656
89.9594,1.2518
89.9594,1.2604
89.9594,1.2897
89.9657,1.4048
89.9657,1.6699
89.9657,1.801
89.9657,2.0785
89.9728,2.2302
89.9733,2.1078
89.9733,1.9491
89.9733,1.8353
89.9733,1.669
89.9788,1.3889
89.9788,1.2662
89.9788,1.2621
89.9788,1.2786
89.9788,1.374
89.9859,1.5374
89.9859,1.6654
89.9859,2.0404
89.9859,2.1976
89.9934,2.2251
89.9934,2.1327
89.9934,1.8256
89.9934,1.6667
89.9934,1.5522
89.9997,1.3952
89.9997,1.2501
89.9997,1.2659
89.9997,1.2861
90.0068,1.5357
90.0068,1.6461
90.0068,1.7807
90.0068,2.0339
90.0078,2.2426
90.0129,2.1408
90.0129,1.9501
90.0136,1.8289
90.0136,1.569
90.0199,1.4048
90.0199,1.2689
90.0199,1.2525
90.0209,1.2782
90.0209,1.3604
90.0264,1.5027
90.0264,1.7804
90.0276,2.0491
90.0276,2.191
90.0276,2.2257
90.0336,1.9962
90.0337,1.8533
90.0337,1.6842
90.0337,1.5578
90.0408,1.2662
90.0408,1.2645
90.0418,1.2559
90.0418,1.2713
90.0418,1.5302
90.0500,1.6534
90.0571,1.7811
90.0581,2.0322
90.0581,2.2534
90.0581,2.1559
90.0581,1.9651
90.0591,1.8317
90.0591,1.5792
90.0591,1.4097
90.0603,1.2593
90.0603,1.2638
90.0603,1.2792
90.0611,1.3579
90.0675,1.5096
90.0675,1.7494
90.0675,2.0342
90.0675,2.2006
90.0675,2.2709
90.0738,1.9742
90.0738,1.8556
90.0738,1.7177
90.0738,1.5869
90.0738,1.2642
90.0798,1.2522
90.0798,1.263
90.0808,1.2627
90.0808,1.5077
90.0870,1.6463
90.0870,1.7646
90.0881,2.0162
90.0881,2.2289
90.0881,2.1768
90.0940,2.0254
90.0940,1.8501
90.0940,1.5966
90.0940,1.4526
90.1015,1.2709
90.1015,1.2681
90.1015,1.2741
90.1015,1.351
90.1015,1.5038
90.1077,1.7547
90.1077,1.9789
90.1077,2.1308
90.1077,2.2411
90.1147,2.0078
90.1147,1.861
90.1147,1.72
90.1147,1.6079
90.1147,1.2722
90.1210,1.2486
90.1210,1.2563
90.1210,1.2795
90.1210,1.477
90.1210,1.6058
90.1269,1.7282
90.1279,1.9797
90.1279,2.2339
90.1279,2.1811
90.1346,1.9894
90.1356,1.8604
90.1356,1.603
90.1356,1.4742
90.1356,1.2788
90.1415,1.273
90.1415,1.2859
90.1415,1.3304
90.1415,1.4573
90.1487,1.7393
90.1487,1.9495
90.1487,2.1306
90.1487,2.2384
90.1487,2.0326
90.1560,1.8807
90.1601,1.7329
90.1610,1.6118
90.1610,1.282
90.1610,1.2497
90.1620,1.2584
90.1620,1.281
90.1620,1.4678
90.1620,1.62
90.1685,1.7247
90.1685,1.9632
90.1685,2.2512
90.1685,2.2118
90.1685,2.0254
90.1747,1.7389
90.1747,1.6073
90.1747,1.4922
90.1757,1.2807
90.1826,1.2514
90.1826,1.2655
90.1826,1.3298
90.1826,1.4348
90.1826,1.7382
90.1889,1.9442
90.1889,2.1083
90.1889,2.2405
90.1889,2.0324
90.1958,1.8953
90.1958,1.7524
90.1963,1.5872
90.1964,1.3065
90.1964,1.2554
90.2020,1.2662
90.2020,1.2696
90.2020,1.4468
90.2020,1.5987
90.2094,1.7018
90.2094,1.9114
90.2094,2.2341
90.2094,2.2051
90.2094,2.0461
90.2157,1.7372
90.2157,1.5938
90.2157,1.4729
90.2157,1.2906
90.2167,1.2713
90.2218,1.273
90.2218,1.3125
90.2229,1.4359
90.2229,1.6915
90.2298,1.9195
90.2298,2.1194
90.2298,2.2634
90.2298,2.0249
90.2308,1.8884
90.2360,1.7543
90.2360,1.6155
90.2360,1.3054
90.2370,1.2512
90.2434,1.2591
90.2434,1.2732
90.2434,1.4282
90.2444,1.5805
90.2444,1.6801
90.2496,2.0988
90.2496,2.2581
90.2496,2.2113
90.2506,2.0671
90.2554,1.7926
90.2564,1.6245
90.2564,1.5081
90.2564,1.3114
90.2576,1.2557
90.2628,1.2687
90.2628,1.3047
90.2628,1.4286
90.2628,1.7252
90.2639,1.9187
90.2741,2.1428
90.2761,2.2853
90.2761,2.1117
90.2761,1.9566
90.2761,1.8115
90.2772,1.6647
90.2772,1.333
90.2772,1.2619
90.2772,1.2741
90.2834,1.2825
90.2834,1.4755
90.2834,1.6197
90.2844,1.7539
90.2907,2.1441
90.2909,2.3011
90.2909,2.2893
90.2909,2.1471
90.2919,1.8394
90.2963,1.7007
90.2963,1.6165
90.2963,1.395
90.2974,1.2786
90.3028,1.3189
90.3038,1.3643
90.3038,1.4995
90.3048,1.7916
90.3048,1.9701
90.3102,2.2146
90.3102,2.3268
90.3102,2.1893
90.3112,2.0618
90.3112,1.9152
90.3163,1.7817
90.3173,1.4685
90.3173,1.294
90.3173,1.3161
90.3242,1.4232
90.3242,1.5291
90.3242,1.6823
90.3252,1.8445
90.3252,2.2413
90.3305,2.3946
90.3305,2.3973
90.3305,2.272
90.3315,1.9956
90.3371,1.8259
90.3381,1.7123
90.3381,1.5295
90.3381,1.3559
90.3381,1.4174
90.3437,1.468
90.3437,1.5934
90.3437,1.8589
90.3447,2.0239
90.3513,2.284
90.3513,2.4308
90.3513,2.3607
90.3513,2.1826
90.3524,2.0374
90.3573,1.783
90.3573,1.6079
90.3573,1.4526
90.3583,1.411
90.3583,1.5312
90.3644,1.6576
90.3644,1.8235
90.3644,1.9221
90.3644,2.3594
90.3718,2.5236
90.3718,2.5313
90.3718,2.4173
90.3718,2.1323
90.3730,1.9864
90.3846,1.8571
90.3866,1.6531
90.3876,1.4954
90.3876,1.5576
90.3876,1.5762
90.3876,1.8677
90.3886,2.0093
90.3886,2.1537
90.3886,2.3943
90.3911,2.5795
90.3911,2.4869
90.3911,2.3191
90.3919,2.1728
90.3986,1.9007
90.3986,1.7271
90.3986,1.5589
90.3986,1.5312
90.3986,1.6422
90.4047,1.7521
90.4047,1.8805
90.4047,2.0427
90.4047,2.4109
90.4057,2.5428
90.4118,2.5838
90.4118,2.3256
90.4118,2.1897
90.4118,2.0553
90.4193,1.9521
90.4193,1.5822
90.4193,1.5338
90.4203,1.5627
90.4203,1.6277
90.4255,1.8805
90.4255,2.0401
90.4255,2.1889
90.4255,2.4316
90.4328,2.581
90.4328,2.5364
90.4328,2.3547
90.4328,2.0954
90.4328,1.9797
90.4390,1.8241
90.4390,1.6187
90.4390,1.5854
90.4390,1.6559
90.4463,1.7654
90.4465,1.882
90.4465,2.1974
90.4465,2.4199
90.4465,2.563
90.4521,2.5409
90.4521,2.3916
90.4521,2.2482
90.4521,2.0785
90.4531,1.8136
90.4603,1.6045
90.4622,1.524
90.4634,1.6941
90.4634,1.8331
90.4685,2.0654
90.4685,2.4029
90.4685,2.5583
90.4685,2.6035
90.4685,2.5724
90.4747,2.2394
90.4747,2.1049
90.4747,1.9739
90.4747,1.816
90.4820,1.5173
90.4820,1.585
90.4820,1.6519
90.4820,1.8788
90.4820,2.0181
90.4916,2.1325
90.4926,2.3776
90.4926,2.5808
90.4926,2.5649
90.4950,2.3783
90.4950,2.2369
90.4950,1.9726
90.4950,1.8113
90.4950,1.6122
90.5012,1.5239
90.5012,1.6349
90.5012,1.7239
90.5019,1.8601
90.5019,2.155
90.5079,2.3646
90.5079,2.5221
90.5089,2.5975
90.5089,2.3911
90.5155,2.2838
90.5155,2.1267
90.5155,1.9634
90.5155,1.6358
90.5155,1.5679
90.5220,1.591
90.5220,1.7177
90.5220,1.8741
90.5220,2.0311
90.5296,2.1406
90.5296,2.5484
90.5296,2.587
90.5296,2.5926
90.5296,2.3761
90.5359,2.1168
90.5359,1.9793
90.5359,1.8569
90.5359,1.6484
90.5418,1.5724
90.5428,1.6114
90.5428,1.7134
90.5428,1.9894
90.5428,2.104
90.5492,2.3421
90.5501,2.5208
90.5501,2.5773
90.5511,2.4198
90.5511,2.2872
90.5561,2.1177
90.5561,1.8473
90.5571,1.611
90.5571,1.4993
90.5635,1.6454
90.5645,1.711
90.5645,1.8469
90.5655,2.0102
90.5655,2.323
90.5694,2.504
90.5704,2.5851
90.5704,2.6009
90.5714,2.2621
90.5769,2.1196
90.5778,1.9857
90.5778,1.8419
90.5788,1.522
90.5788,1.5912
90.5832,1.5951
90.5843,1.8387
90.5843,1.9731
90.5853,2.0811
90.5904,2.3028
90.5912,2.5797
90.5912,2.5598
90.5923,2.3828
90.5923,2.245
90.5986,1.9898
90.6076,1.867
90.6086,1.6411
90.6096,1.5218
90.6096,1.5882
90.6096,1.6615
90.6096,1.7751
90.6106,1.9587
90.6106,2.2827
90.6106,2.5071
90.6106,2.5797
90.6106,2.5786
90.6116,2.2446
90.6116,2.1096
90.6172,1.9688
90.6172,1.6304
90.6179,1.5077
90.6179,1.5308
90.6244,1.5743
90.6244,1.7946
90.6244,1.9686
90.6252,2.0678
90.6252,2.2585
90.6307,2.5808
90.6307,2.5636
90.6307,2.3789
90.6315,2.266
90.6373,1.9769
90.6373,1.8242
90.6373,1.6405
90.6373,1.5392
90.6373,1.569
90.6437,1.6726
90.6437,1.7929
90.6437,2.0592
90.6446,2.2585
90.6446,2.4469
90.6506,2.5876
90.6506,2.4151
90.6506,2.266
90.6516,2.1096
90.6581,1.9786
90.6581,1.6712
90.6581,1.5207
90.6581,1.5141
90.6581,1.5807
90.6645,1.7706
90.6645,1.9369
90.6652,2.0508
90.6652,2.2248
90.6714,2.5816
90.6722,2.5469
90.6722,2.3937
90.6722,2.1192
90.6722,1.9696
90.6774,1.8398
90.6782,1.6484
90.6782,1.5306
90.6782,1.5657
90.6846,1.6394
90.6846,1.7361
90.6856,2.0352
90.6856,2.2323
90.6856,2.4518
90.6912,2.576
90.6912,2.3939
90.6912,2.2474
90.6912,2.1256
90.6912,1.8837
90.6982,1.6514
90.6982,1.5113
90.6982,1.4691
90.6982,1.6024
90.7091,1.7333
90.7101,1.8936
90.7101,2.0275
90.7112,2.4171
90.7112,2.5816
90.7122,2.5437
90.7122,2.3809
90.7122,2.116
90.7122,1.9628
90.7192,1.8509
90.7192,1.6441
90.7192,1.5017
90.7203,1.5471
90.7203,1.599
90.7255,1.876
90.7255,2.0078
90.7255,2.1751
90.7255,2.4018
90.7327,2.5525
90.7327,2.4363
90.7327,2.2641
90.7327,2.1213
90.7327,1.8511
90.7385,1.6499
90.7385,1.4972
90.7385,1.5173
90.7393,1.5977
90.7393,1.6754
90.7452,1.8674
90.7452,2.0284
90.7462,2.3703
90.7462,2.5386
90.7529,2.5238
90.7529,2.2926
90.7529,2.1098
90.7529,1.9446
90.7539,1.8715
90.7596,1.5017
90.7601,1.4772
90.7601,1.5184
90.7601,1.5863
90.7665,1.8383
90.7665,1.9954
90.7665,2.1316
90.7673,2.3386
90.7673,2.563
90.7731,2.4258
90.7731,2.2548
90.7731,1.9756
90.7731,1.8612
90.7803,1.7018
90.7806,1.5177
90.7806,1.5237
90.7806,1.567
90.7806,1.6714
90.7863,1.8381
90.7866,2.1109
90.7866,2.3423
90.7866,2.503
90.7866,2.4595
90.7926,2.2375
90.7936,2.1383
90.7936,1.9994
90.7936,1.7161
90.8007,1.4657
90.8007,1.4787
90.8007,1.5227
90.8007,1.6727
90.8007,1.8376
90.8070,1.9808
90.8070,2.1209
90.8070,2.5019
90.8070,2.5287
90.8186,2.4381
90.8196,2.0969
90.8196,1.9739
90.8196,1.8736
90.8206,1.702
90.8206,1.4699
90.8206,1.5025
90.8206,1.5454
90.8206,1.684
90.8273,1.966
90.8273,2.1094
90.8283,2.3554
90.8283,2.545
90.8283,2.428
90.8338,2.2763
90.8338,2.1368
90.8338,1.873
90.8338,1.7251
90.8338,1.503
90.8408,1.4659
90.8408,1.5278
90.8408,1.6682
90.8408,1.8289
90.8483,1.9527
90.8483,2.3434
90.8483,2.5163
90.8491,2.5246
90.8491,2.2613
90.8540,2.0883
90.8549,1.9709
90.8549,1.8779
90.8549,1.5162
90.8619,1.4447
90.8622,1.4961
90.8622,1.531
90.8622,1.7849
90.8622,1.9341
90.8683,2.0646
90.8683,2.4747
90.8683,2.5107
90.8683,2.455
90.8755,2.2763
90.8755,1.9834
90.8755,1.8372
90.8755,1.7046
90.8755,1.5254
90.8818,1.5
90.8818,1.5456
90.8818,1.6377
90.8818,1.7577
90.8818,2.0361
90.8878,2.2632
90.8888,2.4256
90.8888,2.4432
90.8888,2.2714
90.8961,2.1233
90.8961,1.9832
90.8961,1.702
90.8961,1.4828
90.8970,1.4374
90.9023,1.4685
90.9023,1.6114
90.9023,1.7474
90.9023,1.8869
90.9097,2.2323
90.9097,2.3935
90.9097,2.4983
90.9097,2.4338
90.9097,2.1076
90.9158,1.9872
90.9158,1.8586
90.9158,1.7059
90.9158,1.4337
90.9227,1.4659
90.9298,1.5098
90.9307,1.6011
90.9307,1.8831
90.9317,2.0114
90.9317,2.2503
90.9317,2.5055
90.9317,2.4721
90.9317,2.2716
90.9317,2.1614
90.9358,1.8522
90.9358,1.7286
90.9368,1.5105
90.9368,1.4102
90.9438,1.4734
90.9438,1.5972
90.9438,1.7387
90.9438,2.0031
90.9448,2.2171
90.9501,2.3907
90.9501,2.5193
90.9501,2.2414
90.9501,2.119
90.9566,1.9971
90.9566,1.8529
90.9566,1.506
90.9578,1.4095
90.9578,1.42
90.9633,1.4805
90.9633,1.7266
90.9633,1.8497
90.9633,1.9741
90.9707,2.3952
90.9707,2.5193
90.9707,2.4588
90.9707,2.2598
90.9707,1.9999
90.9770,1.8766
90.9770,1.7297
90.9770,1.4914
90.9770,1.4155
90.9770,1.4819
90.9831,1.5636
90.9841,1.8509
90.9841,1.9673
90.9841,2.1599
90.9910,2.3487
90.9910,2.4357
90.9910,2.2564
90.9910,2.1231
90.9910,1.9952
90.9977,1.7271
90.9977,1.519
90.9977,1.3754
90.9977,1.4014
91.0049,1.5372
91.0049,1.6889
91.0049,1.8216
91.0049,2.1554
91.0049,2.3431
91.0112,2.4708
91.0112,2.456
91.0112,2.1027
91.0112,2.0097
91.0180,1.8621
91.0180,1.7194
91.0180,1.3735
91.0180,1.4033
91.0190,1.4779
91.0246,1.5584
91.0246,1.7952
91.0246,1.939
91.0246,2.1423
91.0246,2.3455
91.0307,2.4154
91.0307,2.2568
91.0336,2.1214
91.0388,1.8494
91.0399,1.7162
91.0399,1.4927
91.0399,1.3815
91.0399,1.4228
91.0399,1.5284
91.0451,1.6577
91.0451,1.7976
91.0451,2.1168
91.0451,2.3138
91.0523,2.4781
91.0523,2.4408
91.0523,2.1078
91.0523,1.9724
91.0533,1.8274
91.0585,1.7102
91.0585,1.3844
91.0585,1.3765
91.0585,1.413
91.0657,1.4702
91.0657,1.7845
91.0657,1.9261
91.0657,2.0742
91.0657,2.449
91.0718,2.4558
91.0718,2.2746
91.0718,2.1209
91.0718,1.8394
91.0718,1.7459
91.0788,1.4993
91.0788,1.3545
91.0788,1.44
91.0788,1.5002
91.0861,1.614
91.0861,1.7537
91.0861,2.0763
91.0861,2.305
91.0871,2.4243
91.0924,2.4066
91.0924,2.1297
91.0924,1.9889
91.0924,1.8494
91.0995,1.5254
91.0995,1.3718
91.1000,1.3748
91.1000,1.4037
91.1000,1.5998
91.1055,1.759
91.1055,1.9191
91.1055,2.08
91.1055,2.4139
91.1129,2.4183
91.1129,2.3026
91.1129,2.1288
91.1129,1.8424
91.1129,1.7157
91.1193,1.554
91.1193,1.3829
91.1193,1.4144
91.1201,1.47
91.1201,1.5934
91.1261,1.8882
91.1261,2.0112
91.1261,2.2414
91.1261,2.3884
91.1335,2.3086
91.1335,2.1366
91.1335,1.9759
91.1335,1.8263
91.1335,1.5389
91.1398,1.3499
91.1398,1.3532
91.1398,1.4121
91.1398,1.5638
91.1479,1.7389
91.1488,1.8702
91.1498,2.0275
91.1498,2.4001
91.1498,2.4031
91.1529,2.2806
91.1529,1.9735
91.1529,1.8126
91.1529,1.7324
91.1603,1.5342
91.1603,1.3572
91.1603,1.3917
91.1603,1.4367
91.1603,1.5559
91.1666,1.8464
91.1666,1.9911
91.1666,2.2206
91.1666,2.4093
91.1666,2.2728
91.1727,2.1021
91.1737,1.9793
91.1737,1.8556
91.1737,1.5098
91.1807,1.3583
91.1807,1.3495
91.1807,1.4502
91.1807,1.5535
91.1807,1.6919
91.1877,1.8248
91.1887,2.2011
91.1887,2.3841
91.1887,2.4145
91.1960,1.9784
91.1960,1.8351
91.1960,1.7397
91.1960,1.3999
91.1960,1.3643
91.2022,1.3889
91.2022,1.4217
91.2022,1.7063
91.2022,1.8351
91.2094,1.9647
91.2094,2.2088
91.2094,2.404
91.2094,2.3073
91.2094,2.1261
91.2157,2.0074
91.2157,1.7166
91.2157,1.5653
91.2157,1.359
91.2157,1.3328
91.2217,1.4025
91.2227,1.4849
91.2227,1.6664
91.2227,1.9652
91.2299,2.1961
91.2299,2.3311
91.2299,2.3965
91.2299,2.1093
91.2299,1.9898
91.2358,1.8649
91.2358,1.7367
91.2358,1.3742
91.2358,1.3328
91.2434,1.3485
91.2434,1.4005
91.2434,1.666
91.2434,1.7926
91.2434,1.9399
91.2498,2.1674
91.2498,2.4143
91.2498,2.3187
91.2498,2.1556
91.2559,1.8835
91.2569,1.7189
91.2579,1.5702
91.2579,1.3748
91.2579,1.375
91.2631,1.3896
91.2631,1.4999
91.2631,1.6439
91.2631,1.9336
91.2631,2.1809
91.2691,2.3343
91.2701,2.3931
91.2701,2.1432
91.2701,1.9928
91.2772,1.8419
91.2772,1.5824
91.2772,1.3733
91.2772,1.3229
91.2772,1.3232
91.2837,1.5175
91.2837,1.6401
91.2837,1.7836
91.2837,1.9193
91.2909,2.3001
91.2911,2.3899
91.2911,2.2947
91.2911,2.1063
91.2911,1.8602
91.2965,1.7239
91.2965,1.5891
91.2965,1.3885
91.2965,1.2968
91.3043,1.357
91.3043,1.4865
91.3043,1.7507
91.3043,1.8415
91.3043,2.0997
91.3106,2.2891
91.3106,2.3037
91.3106,2.128
91.3106,1.9934
91.3106,1.8559
91.3166,1.5794
91.3176,1.3675
91.3176,1.2758
91.3176,1.3746
91.3245,1.4618
91.3245,1.5974
91.3245,1.7498
91.3245,2.1078
91.3245,2.2902
91.3312,2.3755
91.3312,2.2893
91.3312,2.0391
91.3312,1.8597
91.3381,1.7339
91.3381,1.5885
91.3381,1.2945
91.3381,1.3272
91.3381,1.3699
91.3448,1.6047
91.3448,1.7369
91.3448,1.8608
91.3448,2.0888
91.3519,2.3928
91.3519,2.3264
91.3519,2.1394
91.3519,2.0226
91.3519,1.7258
91.3573,1.6538
91.3583,1.4136
91.3583,1.3005
91.3583,1.3525
91.3583,1.4584
91.3663,1.5981
91.3673,1.8811
91.3673,2.047
91.3673,2.2234
91.3726,2.395
91.3726,2.1468
91.3726,2.017
91.3726,1.8863
91.3726,1.7397
91.3789,1.3907
91.3789,1.2998
91.3789,1.3313
91.3789,1.378
91.3858,1.572
91.3863,1.7206
91.3863,1.8443
91.3863,2.2345
91.3863,2.3676
91.3916,2.3373
91.3916,2.1522
91.3916,1.8764
91.3916,1.7374
91.3995,1.6148
91.3995,1.3973
91.3995,1.2934
91.3995,1.3379
91.3995,1.4421
91.4058,1.581
91.4058,1.8222
91.4058,2.0408
91.4058,2.2328
91.4058,2.3528
91.4119,2.1747
91.4119,2.0161
91.4130,1.9032
91.4130,1.6251
91.4198,1.3735
91.4198,1.2917
91.4198,1.3122
91.4198,1.4153
91.4198,1.5291
91.4263,1.717
91.4263,1.8608
91.4263,2.2409
91.4263,2.3918
91.4335,2.3176
91.4335,2.0292
91.4335,1.9039
91.4345,1.7329
91.4345,1.6035
91.4393,1.3024
91.4393,1.3135
91.4393,1.3549
91.4405,1.4479
91.4468,1.6954
91.4468,1.8222
91.4468,2.0089
91.4468,2.2184
91.4478,2.3058
91.4527,2.1683
91.4534,2.0286
91.4534,1.7371
91.4534,1.6386
91.4544,1.431
91.4596,1.2938
91.4606,1.342
91.4606,1.4151
91.4606,1.5317
91.4675,1.6774
91.4832,1.9729
91.4841,2.1704
91.4861,2.3301
91.4861,2.3213
91.4872,2.0095
91.4872,1.9036
91.4872,1.7916
91.4872,1.4087
91.4872,1.285
91.4881,1.296
91.4881,1.3167
91.4881,1.4895
91.4881,1.6619
91.4891,1.8064
91.4891,1.987
91.4891,2.3101
91.4891,2.3277
91.4944,2.1848
91.4944,2.0447
91.4944,1.7262
91.4944,1.6379
91.4954,1.4292
91.5008,1.279
91.5008,1.3157
91.5008,1.3934
91.5008,1.513
91.5018,1.7839
91.5068,1.9345
91.5078,2.1629
91.5078,2.2823
91.5078,2.1888
91.5150,2.0502
91.5150,1.8902
91.5150,1.7528
91.5160,1.429
91.5160,1.2844
91.5210,1.2842
91.5210,1.3358
91.5210,1.4822
91.5210,1.6525
91.5283,1.7971
91.5287,1.9332
91.5287,2.2971
91.5287,2.3209
91.5287,2.2028
91.5343,1.8946
91.5343,1.7607
91.5343,1.6442
91.5353,1.4785
91.5416,1.2829
91.5416,1.3309
91.5416,1.3808
91.5416,1.4993
91.5426,1.7667
91.5479,1.9307
91.5479,2.1726
91.5479,2.3131
91.5479,2.2173
91.5489,2.0183
91.5549,1.9082
91.5549,1.7742
91.5549,1.4582
91.5549,1.279
91.5615,1.2974
91.5623,1.327
91.5633,1.4755
91.5633,1.5842
91.5633,1.7567
91.5685,2.1254
91.5685,2.3157
91.5695,2.3063
91.5695,2.1634
91.5755,1.9019
91.5755,1.7451
91.5755,1.6277
91.5755,1.4406
91.5765,1.2765
91.5875,1.3058
91.5895,1.3459
91.5895,1.45
91.5895,1.7207
91.5895,1.8769
91.5905,2.1113
91.5905,2.269
91.5905,2.1848
91.5905,2.0391
91.5948,1.9101
91.5948,1.7676
91.5948,1.483
91.5958,1.2846
91.5958,1.2638
91.6018,1.2968
91.6018,1.4755
91.6028,1.6152
91.6028,1.7541
91.6094,2.1308
91.6094,2.2883
91.6102,2.3073
91.6102,2.2109
91.6102,1.9133
91.6157,1.7532
91.6162,1.6412
91.6162,1.5015
91.6162,1.2634
91.6226,1.3007
91.6226,1.3392
91.6226,1.4477
91.6233,1.7451
91.6233,1.8572
91.6291,2.0944
91.6295,2.242
91.6295,2.2497
91.6295,2.0515
91.6360,1.9066
91.6360,1.7564
91.6360,1.5012
91.6370,1.2989
91.6370,1.273
91.6423,1.3307
91.6423,1.4254
91.6432,1.5662
91.6432,1.7131
91.6432,2.0761
91.6491,2.2437
91.6491,2.3084
91.6491,2.2296
91.6501,1.8983
91.6567,1.7929
91.6567,1.642
91.6567,1.4963
91.6577,1.2649
91.6577,1.2974
91.6629,1.3439
91.6629,1.4039
91.6629,1.6999
91.6639,1.8254
91.6697,2.0695
91.6697,2.2381
91.6707,2.2411
91.6707,2.0277
91.6707,1.9206
91.6759,1.6439
91.6759,1.4931
91.6759,1.2884
91.6769,1.261
91.6829,1.3154
91.6829,1.4031
91.6839,1.5831
91.6839,1.6996
91.6839,2.0571
91.6898,2.2236
91.6958,2.2977
91.6968,2.2358
91.6968,1.9219
91.6978,1.7717
91.6978,1.66
91.6978,1.524
91.6978,1.2608
91.6978,1.2722
91.7037,1.3137
91.7037,1.3954
91.7037,1.6891
91.7037,1.7942
91.7037,2.0446
91.7104,2.2201
91.7104,2.2461
91.7110,2.0716
91.7110,1.9373
91.7175,1.6508
91.7175,1.5263
91.7179,1.3373
91.7179,1.2692
91.7179,1.3062
91.7234,1.3838
91.7234,1.5304
91.7234,1.6862
91.7234,2.0294
91.7309,2.2051
91.7309,2.2981
91.7309,2.2458
91.7309,1.9411
91.7309,1.7892
91.7371,1.6677
91.7371,1.5608
91.7371,1.2606
91.7371,1.2717
91.7379,1.3184
91.7439,1.5394
91.7439,1.6671
91.7439,1.7997
91.7439,2.0264
91.7505,2.2939
91.7505,2.236
91.7515,2.0703
91.7515,1.9669
91.7515,1.6787
91.7577,1.5434
91.7577,1.3615
91.7577,1.2741
91.7577,1.3197
91.7647,1.4136
91.7647,1.5375
91.7652,1.6808
91.7652,1.9898
91.7652,2.1539
91.7711,2.2936
91.7714,2.2872
91.7714,1.9682
91.7714,1.81
91.7783,1.6647
91.7783,1.3345
91.7783,1.2655
91.7783,1.278
91.7783,1.3032
91.7845,1.5107
91.7845,1.6439
91.7845,1.7764
91.7845,2.0087
91.7845,2.2696
91.7906,2.2497
91.7906,2.0877
91.7916,1.9463
91.7916,1.672
91.7989,1.5599
91.8029,1.3489
91.8039,1.258
91.8049,1.2895
91.8049,1.3677
91.8049,1.4849
91.8049,1.6444
91.8049,1.9832
91.8049,2.1228
91.8122,2.2608
91.8122,2.1108
91.8122,1.9334
91.8122,1.8027
91.8122,1.6866
91.8184,1.3497
91.8184,1.263
91.8184,1.266
91.8184,1.2827
91.8254,1.4927
91.8256,1.6452
91.8256,1.7751
91.8256,1.954
91.8256,2.3082
91.8318,2.2658
91.8318,2.1273
91.8318,1.9936
91.8318,1.7136
91.8318,1.6009
91.8378,1.3729
91.8388,1.2685
91.8388,1.2878
91.8388,1.3656
91.8458,1.485
91.8458,1.7732
91.8458,1.9634
91.8458,2.1676
91.8458,2.3118
91.8523,2.1186
91.8523,1.9617
91.8531,1.8451
91.8531,1.699
91.8595,1.3645
91.8595,1.2685
91.8595,1.2891
91.8595,1.2835
91.8595,1.4404
91.8652,1.6092
91.8652,1.7359
91.8652,1.9047
91.8652,2.3018
91.8729,2.2939
91.8729,2.1256
91.8729,1.9801
91.8729,1.6769
91.8729,1.5932
91.8792,1.3699
91.8792,1.2623
91.8792,1.2893
91.8792,1.3373
91.8802,1.4625
91.8852,1.7132
91.8862,1.8927
91.8862,2.1415
91.8862,2.2754
91.8930,2.1078
91.8930,1.966
91.8930,1.8396
91.8930,1.6999
91.8941,1.3977
91.8996,1.2608
91.8996,1.2651
91.8996,1.2891
91.8996,1.4616
91.9068,1.5992
91.9068,1.7177
91.9068,1.8863
91.9068,2.236
91.9078,2.2452
91.9148,2.1394
91.9158,2.0018
91.9158,1.6602
91.9158,1.5687
91.9218,1.3675
91.9218,1.252
91.9218,1.3043
91.9218,1.5561
91.9218,1.7138
91.9281,1.8499
91.9281,2.086
91.9281,2.2186
91.9281,2.1192
91.9281,1.9291
91.9341,1.8201
91.9351,1.5846
91.9351,1.3889
91.9351,1.2585
91.9424,1.2585
91.9424,1.2949
91.9424,1.4275
91.9424,1.5769
91.9424,1.7016
91.9487,2.0868
91.9487,2.2429
91.9487,2.2508
91.9487,1.9885
91.9557,1.8589
91.9557,1.6986
91.9557,1.5777
91.9564,1.2705
91.9564,1.2602
91.9620,1.2919
91.9620,1.3225
91.9620,1.5282
91.9627,1.7209
91.9690,1.8668
91.9690,2.1061
91.9690,2.2261
91.9690,2.1593
91.9690,2.0132
91.9754,1.8779
91.9754,1.6101
91.9754,1.4554
91.9754,1.2795
91.9754,1.302
91.9824,1.2932
91.9824,1.4157
91.9824,1.5797
91.9824,1.8374
91.9889,2.0742
91.9900,2.2216
91.9900,2.2594
91.9900,1.9819
91.9900,1.8584
91.9957,1.7149
91.9957,1.6037
91.9957,1.2649
91.9957,1.2649
92.0032,1.2784
92.0032,1.402
92.0032,1.5426
92.0032,1.6906
92.0032,1.8061
92.0096,2.2156
92.0096,2.2958
92.0096,2.1936
92.0096,2.0194
92.0159,1.7087
92.0169,1.5919
92.0169,1.4232
92.0169,1.2694
92.0169,1.2794
92.0229,1.302
92.0239,1.3851
92.0239,1.6844
92.0239,1.8175
92.0250,2.0742
92.0290,2.2219
92.0300,2.1691
92.0300,2.0018
92.0300,1.8636
92.0362,1.7196
92.0372,1.4307
92.0372,1.2659
92.0372,1.2529
92.0372,1.2713
92.0435,1.3962
92.0435,1.5357
92.0435,1.6733
92.0435,1.8038
92.0507,2.1871
92.0507,2.2504
92.0507,2.2197
92.0507,2.038
92.0507,1.7166
92.0567,1.6082
92.0567,1.5068
92.0567,1.2507
92.0567,1.2591
92.0632,1.3037
92.0632,1.3988
92.0642,1.6542
92.0642,1.7809
92.0642,2.0341
92.0703,2.1696
92.0703,2.1959
92.0703,2.0044
92.0703,1.8904
92.0703,1.7566
92.0763,1.4841
92.0773,1.2814
92.0773,1.255
92.0773,1.2659
92.0846,1.3851
92.0846,1.5225
92.0846,1.6692
92.0846,1.7839
92.0846,2.1886
92.0909,2.314
92.0909,2.1944
92.0909,2.014
92.0909,1.7582
92.0978,1.6229
92.0978,1.5015
92.0978,1.2561
92.0978,1.2799
92.0978,1.2854
92.1042,1.3605
92.1042,1.6666
92.1042,1.7708
92.1042,1.9941
92.1113,2.1633
92.1115,2.2026
92.1115,2.0046
92.1115,1.9382
92.1115,1.7963
92.1176,1.4984
92.1176,1.314
92.1176,1.2634
92.1176,1.2645
92.1176,1.3744
92.1236,1.501
92.1236,1.6367
92.1246,1.7701
92.1246,2.1687
92.1325,2.2538
92.1336,2.191
92.1336,2.0562
92.1336,1.7642
92.1336,1.5992
92.1379,1.5145
92.1379,1.26
92.1379,1.2692
92.1379,1.2739
92.1439,1.345
92.1449,1.6669
92.1449,1.7678
92.1449,1.9562
92.1449,2.1404
92.1515,2.2763
92.1515,2.0744
92.1515,1.9148
92.1515,1.7605
92.1581,1.5555
92.1581,1.3227
92.1581,1.2557
92.1581,1.2593
92.1589,1.3255
92.1647,1.435
92.1647,1.561
92.1647,1.6958
92.1647,2.0954
92.1647,2.2096
92.1717,2.1436
92.1717,1.8668
92.1717,1.7014
92.1717,1.5563
92.1790,1.4434
92.1790,1.2424
92.1790,1.2488
92.1790,1.2507
92.1790,1.2636
92.1852,1.5139
92.1852,1.6461
92.1852,1.8327
92.1852,2.0264
92.1925,2.1132
92.1925,1.9512
92.1925,1.7888
92.1925,1.645
92.1925,1.3949
92.1986,1.2554
92.1986,1.2435
92.1986,1.2447
92.1986,1.2537
92.2057,1.3335
92.2061,1.4605
92.2061,1.5831
92.2061,1.9789
92.2061,2.1483
92.2118,2.0658
92.2118,1.7837
92.2118,1.6159
92.2118,1.4725
92.2118,1.3697
92.2189,1.2404
92.2189,1.2432
92.2189,1.2435
92.2189,1.2484
92.2265,1.4127
92.2265,1.5567
92.2265,1.7626
92.2265,1.9696
92.2274,2.0609
92.2329,1.9187
92.2329,1.7652
92.2329,1.473
92.2329,1.371
92.2407,1.255
92.2458,1.239
92.2468,1.2454
92.2468,1.2484
92.2468,1.3058
92.2468,1.4355
92.2468,1.6947
92.2478,1.9146
92.2478,2.0903
92.2530,2.0547
92.2530,1.7731
92.2530,1.63
92.2530,1.4862
92.2530,1.2555
92.2593,1.2389
92.2593,1.24
92.2593,1.2445
92.2601,1.3056
92.2601,1.4213
92.2662,1.5439
92.2662,1.711
92.2662,2.0249
92.2662,2.0322
92.2739,1.9334
92.2739,1.7952
92.2739,1.5053
92.2739,1.3761
92.2739,1.2612
92.2803,1.2413
92.2803,1.2467
92.2803,1.246
92.2803,1.2747
92.2877,1.5274
92.2877,1.6855
92.2877,1.9084
92.2877,2.0588
92.2877,1.9448
92.2937,1.7824
92.2937,1.6589
92.2937,1.4916
92.2937,1.2698
92.3008,1.2396
92.3008,1.2407
92.3008,1.2424
92.3016,1.2572
92.3016,1.3127
92.3072,1.4513
92.3072,1.8338
92.3072,1.9926
92.3072,1.9769
92.3082,1.8606
92.3133,1.5516
92.3143,1.4226
92.3144,1.3185
92.3144,1.2456
92.3213,1.2379
92.3213,1.2392
92.3213,1.2392
92.3213,1.2479
92.3223,1.4027
92.3277,1.5424
92.3277,1.7792
92.3277,1.9321
92.3277,1.8201
92.3349,1.6707
92.3349,1.5555
92.3349,1.2833
92.3349,1.245
92.3359,1.237
92.3411,1.2389
92.3411,1.2377
92.3411,1.2417
92.3422,1.2837
92.3484,1.4095
92.3577,1.7575
92.3587,1.9311
92.3597,1.9493
92.3597,1.846
92.3597,1.5239
92.3608,1.3949
92.3609,1.2942
92.3609,1.2374
92.3609,1.2394
92.3619,1.2398
92.3619,1.2377
92.3619,1.2696
92.3619,1.3776
92.3688,1.5195
92.3693,1.7903
92.3693,1.9411
92.3693,1.876
92.3703,1.7104
92.3752,1.5837
92.3752,1.2974
92.3752,1.2501
92.3762,1.2381
92.3822,1.2389
92.3827,1.2385
92.3827,1.243
92.3827,1.2777
92.3827,1.5267
92.3884,1.7644
92.3884,1.9011
92.3884,1.9703
92.3894,1.6962
92.3956,1.5621
92.3958,1.4408
92.3958,1.3189
92.3958,1.2381
92.3968,1.239
92.4019,1.2404
92.4019,1.2385
92.4029,1.2657
92.4029,1.3538
92.4029,1.4948
92.4081,1.852
92.4091,1.9193
92.4091,1.8389
92.4091,1.6594
92.4163,1.3874
92.4163,1.2732
92.4163,1.2458
92.4173,1.2372
92.4173,1.239
92.4224,1.2377
92.4224,1.2389
92.4234,1.2482
92.4234,1.4115
92.4297,1.6487
92.4301,1.8152
92.4301,1.8805
92.4301,1.6142
92.4311,1.5012
92.4358,1.3425
92.4364,1.242
92.4364,1.2368
92.4364,1.2374
92.4431,1.2383
92.4431,1.2379
92.4431,1.245
92.4431,1.2923
92.4441,1.381
92.4495,1.7941
92.4495,1.8953
92.4495,1.8184
92.4505,1.5777
92.4505,1.3542
92.4556,1.2625
92.4566,1.2437
92.4566,1.2374
92.4566,1.2385
92.4633,1.2375
92.4685,1.2377
92.4736,1.3154
92.4777,1.4001
92.4777,1.6379
92.4787,1.7807
92.4787,1.8141
92.4787,1.6544
92.4787,1.5192
92.4797,1.3789
92.4797,1.2464
92.4797,1.2372
92.4807,1.2377
92.4807,1.2379
92.4829,1.2392
92.4829,1.2505
92.4829,1.3133
92.4840,1.6394
92.4907,1.8205
92.4907,1.9296
92.4907,1.8627
92.4917,1.5561
92.4917,1.4099
92.4969,1.2927
92.4969,1.2501
92.4969,1.2372
92.4979,1.2381
92.4979,1.239
92.5041,1.2394
92.5041,1.3266
92.5041,1.4333
92.5041,1.6546
92.5107,1.8389
92.5107,1.9109
92.5107,1.7258
92.5117,1.5792
92.5117,1.3176
92.5175,1.2544
92.5175,1.2383
92.5175,1.2374
92.5185,1.2389
92.5247,1.2394
92.5247,1.2488
92.5247,1.3163
92.5257,1.6371
92.5257,1.8128
92.5308,1.9499
92.5308,1.9461
92.5308,1.5874
92.5318,1.4528
92.5378,1.32
92.5383,1.2379
92.5383,1.2377
92.5383,1.239
92.5383,1.2387
92.5438,1.2522
92.5438,1.299
92.5438,1.3986
92.5448,1.6215
92.5448,1.9594
92.5508,1.8983
92.5508,1.7288
92.5518,1.6064
92.5518,1.3285
92.5585,1.2576
92.5591,1.2383
92.5591,1.2374
92.5591,1.2398
92.5591,1.2392
92.5644,1.246
92.5644,1.4245
92.5644,1.6227
92.5654,1.8072
92.5715,1.9456
92.5725,1.7485
92.5725,1.6
92.5725,1.4505
92.5725,1.3335
92.5835,1.2383
92.5854,1.2374
92.5854,1.2375
92.5864,1.2381
92.5864,1.2488
92.5864,1.3009
92.5864,1.4117
92.5875,1.6163
92.5875,1.9412
92.5917,1.9075
92.5917,1.762
92.5925,1.4541
92.5925,1.3407
92.5925,1.2717
92.5985,1.2394
92.5985,1.2387
92.5985,1.2398
92.5995,1.2389
92.6059,1.2452
92.6059,1.4215
92.6059,1.614
92.6069,1.8242
92.6069,1.9682
92.6123,1.7899
92.6123,1.6591
92.6123,1.498
92.6133,1.2728
92.6192,1.2409
92.6196,1.2379
92.6196,1.239
92.6196,1.239
92.6206,1.2497
92.6257,1.3092
92.6257,1.4085
92.6257,1.8391
92.6267,1.9832
92.6327,1.951
92.6329,1.8047
92.6329,1.5162
92.6329,1.3598
92.6340,1.273
92.6390,1.2375
92.6396,1.2389
92.6396,1.239
92.6396,1.2398
92.6396,1.3067
92.6476,1.4205
92.6476,1.5945
92.6476,1.8173
92.6476,1.8484
92.6550,1.6846
92.6550,1.3967
92.6550,1.3002
92.6561,1.2449
92.6561,1.2377
92.6613,1.2411
92.6613,1.239
92.6613,1.2488
92.6623,1.3122
92.6685,1.5912
92.6685,1.8199
92.6685,1.975
92.6696,1.9607
92.6696,1.6808
92.6748,1.5242
92.6748,1.3937
92.6748,1.3037
92.6758,1.2374
92.6812,1.2396
92.6812,1.2419
92.6812,1.251
92.6822,1.3037
92.6822,1.4222
92.6932,1.5662
92.6942,1.957
92.6942,1.9666
92.6942,1.8737
92.6952,1.7042
92.6952,1.3932
92.6952,1.3212
92.6952,1.2492
92.6952,1.2379
92.7025,1.2385
92.7025,1.2385
92.7025,1.2527
92.7035,1.3234
92.7035,1.5764
92.7087,1.8239
92.7087,1.9697
92.7087,1.9934
92.7087,1.7236
92.7157,1.5887
92.7160,1.4408
92.7160,1.2484
92.7160,1.2377
92.7160,1.239
92.7222,1.2407
92.7222,1.2492
92.7222,1.3097
92.7222,1.4412
92.7293,1.5844
92.7294,1.9658
92.7294,2.0033
92.7294,1.906
92.7294,1.7294
92.7356,1.4502
92.7356,1.3217
92.7356,1.2531
92.7356,1.2385
92.7356,1.2404
92.7416,1.239
92.7426,1.2471
92.7426,1.4355
92.7426,1.5554
92.7497,1.8149
92.7497,1.9844
92.7497,1.8989
92.7497,1.7121
92.7497,1.5795
92.7562,1.4513
92.7562,1.2557
92.7562,1.2385
92.7562,1.2398
92.7633,1.2387
92.7633,1.2507
92.7633,1.3154
92.7633,1.4421
92.7633,1.8319
92.7693,1.9812
92.7693,2.0179
92.7693,1.9251
92.7693,1.614
92.7759,1.467
92.7766,1.3564
92.7766,1.2679
92.7766,1.239
92.7766,1.2409
92.7820,1.2402
92.7831,1.2471
92.7831,1.441
92.7831,1.5505
92.7831,1.7995
92.7890,1.9703
92.7890,1.9328
92.7900,1.7431
92.7900,1.6279
92.7990,1.4984
92.8000,1.2657
92.8000,1.2392
92.8000,1.2389
92.8000,1.2405
92.8030,1.2503
92.8030,1.3045
92.8030,1.4185
92.8030,1.5488
92.8105,1.9684
92.8105,2.0222
92.8105,1.9397
92.8105,1.6411
92.8105,1.4985
92.8167,1.3795
92.8167,1.2792
92.8167,1.2379
92.8167,1.2398
92.8238,1.2405
92.8240,1.2486
92.8240,1.4406
92.8240,1.5653
92.8240,1.8074
92.8301,1.9739
92.8301,2.0162
92.8301,1.8077
92.8301,1.6703
92.8301,1.5263
92.8361,1.2923
92.8361,1.2405
92.8371,1.2379
92.8371,1.2396
92.8439,1.2469
92.8439,1.2945
92.8439,1.4466
92.8439,1.5666
92.8439,1.9802
92.8506,2.0783
92.8506,1.9902
92.8506,1.8074
92.8506,1.5597
92.8577,1.3954
92.8577,1.294
92.8577,1.2387
92.8577,1.2405
92.8577,1.2409
92.8638,1.2479
92.8638,1.4162
92.8638,1.5415
92.8638,1.7747
92.8709,1.948
92.8711,2.0226
92.8711,1.8126
92.8711,1.711
92.8711,1.5447
92.8773,1.3069
92.8773,1.2407
92.8773,1.2385
92.8773,1.2402
92.8773,1.2452
92.8833,1.2869
92.8843,1.4234
92.8843,1.5387
92.8843,1.942
92.8913,2.0474
92.8913,1.9677
92.8913,1.6969
92.8913,1.5419
92.8921,1.4114
92.8978,1.3099
92.8978,1.239
92.8984,1.2407
92.8984,1.2407
92.9067,1.2426
92.9076,1.4061
92.9086,1.5422
92.9086,1.7399
92.9086,1.9298
92.9112,1.9759
92.9112,1.8383
92.9117,1.6675
92.9117,1.5359
92.9183,1.3169
92.9183,1.2422
92.9183,1.239
92.9183,1.2402
92.9183,1.2449
92.9242,1.2805
92.9242,1.408
92.9242,1.5139
92.9242,1.9264
92.9242,2.062
92.9312,2.0174
92.9312,1.8428
92.9312,1.567
92.9312,1.4256
92.9385,1.3313
92.9385,1.239
92.9385,1.2415
92.9385,1.2413
92.9385,1.246
92.9451,1.4061
92.9451,1.5104
92.9451,1.7363
92.9451,1.9587
92.9523,2.0316
92.9523,1.8653
92.9523,1.7099
92.9523,1.5764
92.9523,1.3397
92.9582,1.2464
92.9582,1.239
92.9582,1.2415
92.9582,1.2465
92.9657,1.2934
92.9658,1.4149
92.9658,1.7243
92.9658,1.9191
92.9658,2.0547
92.9719,2.041
92.9719,1.7459
92.9719,1.5899
92.9719,1.4406
92.9719,1.3493
92.9780,1.2394
92.9790,1.2417
92.9790,1.2411
92.9790,1.2484
92.9860,1.4087
92.9860,1.5364
92.9860,1.7121
92.9860,1.9347
92.9860,2.0521
92.9926,1.9054
92.9926,1.7528
92.9926,1.4697
92.9926,1.3654
92.9995,1.2509
92.9995,1.239
92.9995,1.2409
92.9995,1.2462
92.9995,1.2711
93.0059,1.3845
93.0059,1.7252
93.0059,1.945
93.0059,2.0402
93.0132,2.0444
93.0134,1.7582
93.0134,1.6238
93.0134,1.4804
93.0134,1.2522
93.0196,1.2385
93.0196,1.2445
93.0196,1.2445
93.0196,1.2672
93.0196,1.3913
93.0257,1.5162
93.0257,1.6551
93.0267,2.0553
93.0267,2.0207
93.0346,1.9028
93.0365,1.7539
93.0365,1.4702
93.0365,1.3607
93.0365,1.255
93.0399,1.2426
93.0399,1.2435
93.0399,1.2424
93.0399,1.2617
93.0473,1.5072
93.0473,1.6744
93.0473,1.9017
93.0473,2.047
93.0473,1.9199
93.0525,1.7622
93.0525,1.6405
93.0536,1.4817
93.0536,1.2565
93.0604,1.2389
93.0604,1.2419
93.0604,1.2449
93.0604,1.2732
93.0604,1.3737
93.0668,1.5042
93.0668,1.8962
93.0668,2.0449
93.0668,2.0764
93.0668,1.9664
93.0729,1.6337
93.0739,1.5004
93.0739,1.3827
93.0739,1.2653
93.0813,1.2398
93.0813,1.2437
93.0813,1.2435
93.0813,1.2683
93.0813,1.5122
93.0876,1.6622
93.0876,1.9026
93.0876,2.0573
93.0876,1.9564
93.0947,1.7976
93.0947,1.6504
93.0947,1.4069
93.0947,1.2846
93.0947,1.2411
93.1009,1.2413
93.1009,1.2456
93.1009,1.2662
93.1009,1.3915
93.1078,1.5364
93.1078,1.8805
93.1078,2.0547
93.1078,2.0995
93.1078,1.7965
93.1145,1.6396
93.1145,1.5203
93.1145,1.4031
93.1152,1.2409
93.1152,1.2396
93.1203,1.2419
93.1213,1.2434
93.1213,1.3716
93.1213,1.5171
93.1289,1.6343
93.1289,1.8916
93.1289,2.0826
93.1289,1.9964
93.1289,1.8106
93.1350,1.5434
93.1350,1.4342
93.1350,1.3056
93.1350,1.242
93.1416,1.2432
93.1437,1.2441
93.1477,1.2612
93.1488,1.3367
93.1488,1.6508
93.1498,1.8966
93.1498,2.0206
93.1498,2.0806
93.1498,1.8271
93.1557,1.6902
93.1557,1.5426
93.1557,1.4046
93.1557,1.2417
93.1557,1.243
93.1618,1.246
93.1618,1.2642
93.1618,1.3455
93.1618,1.4965
93.1618,1.6217
93.1679,2.0399
93.1689,2.0918
93.1689,1.9851
93.1689,1.822
93.1763,1.5411
93.1763,1.416
93.1763,1.2953
93.1763,1.2396
93.1763,1.2443
93.1825,1.2428
93.1825,1.251
93.1825,1.4999
93.1825,1.5959
93.1894,1.8218
93.1894,2.0256
93.1894,2.0146
93.1894,1.7937
93.1894,1.6898
93.1959,1.557
93.1959,1.3035
93.1959,1.2413
93.1959,1.2389
93.2026,1.2426
93.2030,1.2552
93.2032,1.3395
93.2032,1.4768
93.2032,1.8394
93.2094,1.9917
93.2094,2.101
93.2094,2.0252
93.2094,1.6883
93.2094,1.5533
93.2155,1.4265
93.2155,1.3347
93.2165,1.2389
93.2165,1.2411
93.2237,1.2437
93.2241,1.2559
93.2241,1.4817
93.2241,1.6176
93.2241,1.8482
93.2296,2.0065
93.2296,2.0532
93.2296,1.8512
93.2296,1.7211
93.2370,1.432
93.2370,1.3371
93.2370,1.2441
93.2370,1.2409
93.2377,1.2449
93.2435,1.2554
93.2435,1.3418
93.2435,1.4987
93.2435,1.798
93.2507,2.0172
93.2510,2.1233
93.2510,2.0434
93.2510,1.75
93.2510,1.6
93.2574,1.4689
93.2584,1.2484
93.2584,1.2398
93.2594,1.2417
93.2594,1.2428
93.2635,1.3264
93.2635,1.4807
93.2635,1.6052
93.2635,1.8349
93.2711,2.1046
93.2711,2.0262
93.2711,1.8745
93.2711,1.7528
93.2720,1.4685
93.2776,1.3506
93.2776,1.248
93.2776,1.2424
93.2776,1.2434
93.2844,1.2533
93.2844,1.3319
93.2844,1.5902
93.2844,1.8366
93.2851,2.0054
93.2907,2.1299
93.2907,1.9022
93.2907,1.7665
93.2907,1.6159
93.2979,1.479
93.2979,1.2542
93.2979,1.2405
93.2979,1.2452
93.2979,1.2464
93.3044,1.323
93.3044,1.467
93.3044,1.5947
93.3044,1.9894
93.3044,2.1151
93.3105,2.0706
93.3105,1.8887
93.3105,1.629
93.3115,1.4886
93.3186,1.3508
93.3186,1.2516
93.3186,1.2417
93.3186,1.2432
93.3186,1.2499
93.3249,1.3064
93.3249,1.588
93.3249,1.7747
93.3249,1.9731
93.3320,2.1042
93.3322,1.9109
93.3322,1.7624
93.3322,1.6172
93.3322,1.3703
93.3375,1.2539
93.3386,1.2407
93.3386,1.2435
93.3386,1.254
93.3454,1.2947
93.3454,1.419
93.3454,1.5696
93.3464,1.9641
93.3464,2.1111
93.3516,2.0888
93.3527,1.9347
93.3527,1.6253
93.3537,1.5021
93.3537,1.4016
93.3586,1.2407
93.3586,1.248
93.3596,1.2479
93.3596,1.2495
93.3666,1.449
93.3786,1.582
93.3806,1.7549
93.3806,1.9637
93.3806,2.0594
93.3816,1.9246
93.3816,1.7982
93.3816,1.6647
93.3816,1.3924
93.3816,1.2582
93.3826,1.2407
93.3826,1.2507
93.3826,1.2966
93.3826,1.4481
93.3871,1.7346
93.3871,1.9667
93.3876,2.1306
93.3876,2.0944
93.3942,1.8004
93.3942,1.6538
93.3942,1.5218
93.3942,1.2636
93.3942,1.2413
93.4008,1.2465
93.4008,1.246
93.4008,1.3079
93.4008,1.429
93.4008,1.5561
93.4068,1.7204
93.4078,2.0701
93.4078,2.083
93.4078,1.9752
93.4143,1.8209
93.4143,1.5379
93.4153,1.4247
93.4153,1.2705
93.4153,1.2402
93.4212,1.2462
93.4212,1.2469
93.4212,1.2869
93.4220,1.5591
93.4286,1.6956
93.4286,1.9289
93.4286,2.092
93.4286,1.9772
93.4286,1.8074
93.4350,1.6964
93.4350,1.5218
93.4350,1.2719
93.4350,1.2413
93.4419,1.243
93.4419,1.2527
93.4419,1.2747
93.4419,1.4087
93.4419,1.5666
93.4485,1.9452
93.4485,2.1023
93.4485,2.1087
93.4485,1.9988
93.4485,1.6919
93.4546,1.5505
93.4546,1.4303
93.4546,1.2835
93.4556,1.243
93.4627,1.2435
93.4627,1.2464
93.4627,1.293
93.4627,1.5456
93.4627,1.6883
93.4690,1.9506
93.4690,2.116
93.4690,2.0052
93.4690,1.8237
93.4758,1.7318
93.4829,1.4286
93.4829,1.2932
93.4839,1.2415
93.4849,1.242
93.4849,1.2501
93.4849,1.2863
93.4849,1.3915
93.4849,1.5248
93.4895,1.9469
93.4895,2.1108
93.4895,2.0939
93.4895,1.9936
93.4895,1.7234
93.4958,1.5842
93.4958,1.4504
93.4958,1.2435
93.4958,1.2437
93.4958,1.2501
93.5017,1.2484
93.5027,1.4024
93.5027,1.545
93.5027,1.6808
93.5090,1.9302
93.5101,2.1031
93.5101,2.0371
93.5101,1.8557
93.5101,1.7264
93.5157,1.4496
93.5157,1.3208
93.5157,1.2424
93.5164,1.2432
93.5231,1.2467
93.5231,1.2741
93.5231,1.3932
93.5231,1.5398
93.5231,1.8953
93.5294,2.0532
93.5294,2.1166
93.5294,2.0161
93.5294,1.7296
93.5358,1.5833
93.5358,1.4528
93.5369,1.2428
93.5369,1.2435
93.5369,1.2456
93.5427,1.2454
93.5431,1.3701
93.5431,1.5154
93.5431,1.6564
93.5431,1.9176
93.5491,2.1156
93.5491,2.0496
93.5501,1.864
93.5501,1.7262
93.5570,1.4605
93.5570,1.3414
93.5574,1.246
93.5574,1.2411
93.5574,1.248
93.5632,1.2702
93.5632,1.3754
93.5632,1.522
93.5632,1.8852
93.5704,2.0607
93.5704,2.1618
93.5704,1.8548
93.5704,1.7232
93.5704,1.6047
93.5767,1.4648
93.5767,1.2443
93.5767,1.2432
93.5767,1.2484
93.5829,1.2484
93.5829,1.3485
93.5839,1.5049
93.5839,1.6352
93.5839,1.8674
93.5909,2.1276
93.5919,2.0378
93.5919,1.8775
93.5919,1.7371
93.5919,1.4744
93.5969,1.3457
93.5969,1.245
93.5969,1.2411
93.5969,1.2499
93.6045,1.2715
93.6045,1.3785
93.6045,1.5098
93.6045,1.8512
93.6045,2.0359
93.6108,2.1421
93.6108,1.8657
93.6108,1.7498
93.6108,1.6169
93.6177,1.4871
93.6177,1.2479
93.6177,1.2405
93.6177,1.2445
93.6177,1.2462
93.6241,1.3476
93.6241,1.4779
93.6241,1.6062
93.6241,1.8467
93.6309,2.1426
93.6309,2.0853
93.6309,1.9006
93.6309,1.7571
93.6309,1.4834
93.6375,1.3523
93.6375,1.2475
93.6375,1.2413
93.6375,1.2479
93.6375,1.2591
93.6435,1.3401
93.6445,1.4685
93.6445,1.8126
93.6445,2.0277
93.6510,2.1051
93.6510,1.9017
93.6521,1.786
93.6521,1.6397
93.6521,1.4652
93.6576,1.2456
93.6576,1.2415
93.6576,1.245
93.6584,1.245
93.6651,1.3281
93.6651,1.4712
93.6651,1.5914
93.6651,1.7997
93.6651,2.1417
93.6714,2.0744
93.6714,1.8736
93.6714,1.7744
93.6722,1.483
93.6779,1.377
93.6786,1.2531
93.6786,1.2428
93.6786,1.2434
93.6786,1.2494
93.6839,1.317
93.6849,1.575
93.6849,1.7781
93.6849,1.9887
93.6849,2.1177
93.6911,1.9199
93.6911,1.7804
93.6921,1.615
93.6921,1.4864
93.7036,1.252
93.7046,1.2402
93.7056,1.243
93.7056,1.2531
93.7056,1.3047
93.7056,1.4586
93.7056,1.585
93.7066,1.9979
93.7067,2.1164
93.7124,2.0523
93.7124,1.9094
93.7124,1.6551
93.7124,1.5115
93.7124,1.414
93.7188,1.2595
93.7188,1.245
93.7198,1.2443
93.7198,1.2533
93.7261,1.4719
93.7261,1.5867
93.7261,1.7582
93.7261,1.9767
93.7261,2.0943
93.7325,1.9463
93.7325,1.8141
93.7325,1.6733
93.7325,1.4054
93.7335,1.2662
93.7385,1.2422
93.7395,1.2497
93.7395,1.2585
93.7395,1.3225
93.7464,1.446
93.7464,1.765
93.7464,1.9956
93.7472,2.1258
93.7472,2.1143
93.7527,1.8257
93.7527,1.6889
93.7527,1.5201
93.7527,1.4069
93.7598,1.2411
93.7598,1.2432
93.7598,1.2471
93.7598,1.248
93.7598,1.4588
93.7665,1.5756
93.7670,1.7309
93.7670,2.1261
93.7670,2.0901
93.7736,1.9617
93.7736,1.8152
93.7736,1.5405
93.7736,1.453
93.7744,1.2878
93.7797,1.2402
93.7797,1.2454
93.7797,1.2499
93.7797,1.2936
93.7797,1.4355
93.7867,1.7536
93.7867,1.951
93.7867,2.1001
93.7867,1.942
93.7943,1.8014
93.7943,1.6823
93.7943,1.5334
93.7943,1.2724
93.7943,1.2405
93.8007,1.2479
93.8007,1.2554
93.8007,1.2865
93.8007,1.4333
93.8078,1.554
