156.5824,2.0971
156.5952,2.1175
156.5961,2.1299
156.5961,2.1109
156.5971,2.0997
156.5981,2.0939
156.5981,2.0513
156.5981,2.0189
156.5991,2.0123
156.6215,2.0027
156.6225,2.0226
156.6431,2.0447
156.6516,2.0652
156.6551,2.1046
156.6561,2.1346
156.6561,2.1483
156.6573,2.1483
156.6833,2.1141
156.7034,2.0944
156.7111,2.0787
156.7154,2.0639
156.7234,2.0221
156.7403,2.0177
156.7554,2.0271
156.7563,2.0271
156.7563,2.0776
156.7632,2.0986
156.7652,2.1243
156.7662,2.1597
156.7672,2.1619
156.7682,2.1376
156.7692,2.1181
156.7704,2.0832
156.7712,2.0502
156.7712,2.0266
156.7722,2.0239
156.7732,2.0149
156.7732,2.0273
156.7742,2.0491
156.7753,2.0725
156.7762,2.1179
156.7762,2.1415
156.7772,2.1529
156.7782,2.164
156.7782,2.1261
156.7792,2.1121
156.7792,2.0854
156.7802,2.0401
156.7812,2.0222
156.7822,2.0196
156.7832,2.0162
156.7832,2.0506
156.7842,2.077
156.7859,2.0956
156.7872,2.1136
156.7883,2.1736
156.7883,2.1711
156.7892,2.1516
156.7892,2.1276
156.7902,2.0749
156.7902,2.0603
156.7912,2.0449
156.7912,2.0374
156.7922,2.0474
156.7932,2.0618
156.7932,2.0781
156.7942,2.1184
156.7952,2.1505
156.7963,2.1858
156.7971,2.2083
156.7981,2.1861
156.7981,2.1511
156.7991,2.1085
156.8001,2.0408
156.8011,1.8863
156.8031,1.819
156.8041,1.7856
156.8051,1.7485
156.8051,1.7172
156.8061,1.7142
156.8061,1.7245
156.8071,1.8469
156.8071,2.0474
156.8081,2.2699
156.8081,2.3691
156.8091,2.2767
156.8091,2.2191
156.8101,2.2051
156.8101,2.2456
156.8111,2.4494
156.8111,2.6123
156.8111,2.6129
156.8121,2.6172
156.8121,2.5986
156.8131,2.5754
156.8131,2.5945
156.8141,2.6007
156.8141,2.5911
156.8151,2.5591
156.8151,2.4983
156.8161,2.3858
156.8161,2.3183
156.8171,2.2694
156.8181,2.1983
156.8186,2.2008
156.8191,2.1996
156.8203,2.1826
156.8212,2.1709
156.8212,2.1863
156.8221,2.1888
156.8225,2.1822
156.8231,2.1344
156.8231,2.1177
156.8241,2.0931
156.8241,2.0699
156.8241,2.0166
156.8251,2.0121
156.8251,2.0095
156.8261,2.0288
156.8261,2.0554
156.8271,2.0796
156.8271,2.0978
156.8281,2.143
156.8340,2.1434
156.8510,2.1226
156.8530,2.1044
156.8660,2.0487
156.8670,2.0269
156.8799,1.996
156.8809,1.9651
156.8820,1.9673
156.8820,1.9776
156.8820,1.9977
156.8830,2.0524
156.8830,2.0736
156.8840,2.1027
156.8840,2.1282
156.8854,2.1046
156.8859,2.0858
156.8870,2.0644
156.8880,2.0363
156.8880,1.9816
156.8889,1.9591
156.8889,1.9454
156.8889,1.9694
156.8899,1.9926
156.8899,2.0172
156.8910,2.0438
156.8919,2.0958
156.8929,2.1164
156.8929,2.1156
156.8939,2.1023
156.8939,2.0584
156.8949,2.0326
156.8949,2.0012
156.8949,1.9454
156.8959,1.9364
156.8959,1.9401
156.8971,1.9471
156.8979,2.0097
156.8989,2.0344
156.8989,2.0571
156.8999,2.0804
156.8999,2.101
156.9009,2.0806
156.9009,2.0633
156.9019,2.0414
156.9024,1.9881
156.9029,1.9647
156.9039,1.9517
156.9039,1.9405
156.9049,1.9536
156.9049,1.9776
156.9059,2.0089
156.9059,2.0556
156.9069,2.0864
156.9069,2.1031
156.9069,2.1042
156.9079,2.0759
156.9079,2.0545
156.9089,2.0194
156.9089,1.9562
156.9099,1.9294
156.9099,1.9171
156.9109,1.9229
156.9109,1.9547
156.9119,1.9801
156.9119,2.0078
156.9119,2.0387
156.9129,2.0781
156.9129,2.0905
156.9139,2.0864
156.9139,2.0695
156.9149,2.0136
156.9149,1.9787
156.9159,1.9514
156.9159,1.9287
156.9169,1.9172
156.9169,1.9255
156.9179,1.9441
156.9185,1.9971
156.9188,2.0153
156.9188,2.038
156.9198,2.0599
156.9203,2.0508
156.9209,2.0217
156.9209,2.0009
156.9219,1.9675
156.9219,1.912
156.9219,1.8781
156.9229,1.8631
156.9229,1.8666
156.9239,1.8992
156.9248,1.9191
156.9248,1.9426
156.9258,1.9626
156.9258,2.0014
156.9268,2.0069
156.9268,1.9887
156.9268,1.9328
156.9278,1.9024
156.9278,1.8747
156.9288,1.8441
156.9298,1.8031
156.9308,1.8002
156.9308,1.8062
156.9318,1.8229
156.9318,1.8601
156.9328,1.8814
156.9328,1.9084
156.9328,1.9277
156.9338,1.9214
156.9338,1.8974
156.9348,1.8751
156.9358,1.8512
156.9359,1.7914
156.9368,1.771
156.9368,1.7487
156.9378,1.7547
156.9378,1.7819
156.9388,1.8111
156.9388,1.8377
156.9398,1.8932
156.9438,1.915
156.9609,1.9277
156.9760,1.9201
156.9787,1.8762
156.9836,1.8554
156.9836,1.8319
156.9846,1.8104
156.9856,1.7671
156.9866,1.7714
156.9877,1.7864
156.9877,1.8181
156.9887,1.8876
156.9887,1.9187
156.9897,1.957
156.9897,2.0016
156.9897,1.999
156.9907,1.9842
156.9907,1.9712
156.9917,1.942
156.9917,1.915
156.9928,1.8998
156.9928,1.8904
156.9937,1.9264
156.9937,1.9523
156.9947,1.9847
156.9947,2.0196
156.9947,2.0873
156.9957,2.1175
156.9957,2.1385
156.9967,2.1389
156.9967,2.107
156.9977,2.0875
156.9977,2.0605
156.9986,2.0367
156.9986,2.0112
156.9996,2.0082
156.9996,2.0243
156.9996,2.0869
157.0007,2.1216
157.0007,2.1438
157.0016,2.1833
157.0016,2.2096
157.0036,2.2116
157.0036,2.1981
157.0046,2.1792
157.0047,2.1325
157.0047,2.1132
157.0056,2.0986
157.0056,2.0854
157.0066,2.0967
157.0066,2.1243
157.0076,2.1548
157.0076,2.1882
157.0086,2.2452
157.0087,2.2675
157.0096,2.2808
157.0096,2.2459
157.0106,2.2251
157.0106,2.2021
157.0106,2.179
157.0119,2.1314
157.0119,2.1239
157.0126,2.1248
157.0126,2.1205
157.0136,2.1629
157.0136,2.188
157.0146,2.2152
157.0146,2.245
157.0187,2.2748
157.0196,2.2746
157.0196,2.2617
157.0206,2.2416
157.0206,2.1873
157.0257,2.1633
157.0257,2.1372
157.0267,2.1228
157.0267,2.1246
157.0321,2.1428
157.0330,2.1621
157.0330,2.2159
157.0340,2.2486
157.0340,2.2701
157.0391,2.2803
157.0400,2.257
157.0400,2.2264
157.0400,2.2034
157.0476,2.1814
157.0619,2.1186
157.0629,2.1083
157.0819,2.1113
157.0859,2.1109
157.0919,2.1573
157.0939,2.1886
157.0948,2.2146
157.0948,2.2491
157.0959,2.2806
157.0959,2.2769
157.0969,2.2579
157.0969,2.2165
157.0979,2.1901
157.0979,2.1612
157.0989,2.1366
157.0989,2.1134
157.0999,2.1177
157.0999,2.1378
157.0999,2.1633
157.1009,2.2096
157.1018,2.2375
157.1025,2.2645
157.1028,2.2724
157.1028,2.2564
157.1039,2.2294
157.1050,2.2092
157.1050,2.1822
157.1059,2.1295
157.1059,2.1154
157.1069,2.1196
157.1069,2.1301
157.1079,2.1533
157.1079,2.1818
157.1079,2.2124
157.1089,2.2654
157.1089,2.2786
157.1099,2.2803
157.1099,2.2585
157.1109,2.2212
157.1109,2.1946
157.1118,2.1734
157.1118,2.1438
157.1118,2.1301
157.1128,2.1278
157.1138,2.1443
157.1138,2.1606
157.1148,2.2107
157.1148,2.2429
157.1148,2.2686
157.1159,2.2823
157.1205,2.266
157.1215,2.2418
157.1225,2.2173
157.1225,2.167
157.1267,2.1297
157.1277,2.1181
157.1277,2.1243
157.1287,2.1323
157.1287,2.1576
157.1337,2.1884
157.1337,2.2133
157.1347,2.2692
157.1357,2.2799
157.1410,2.2816
157.1410,2.2669
157.1420,2.227
157.1420,2.2058
157.1430,2.1841
157.1471,2.1479
157.1482,2.1331
157.1482,2.1325
157.1482,2.1496
157.1492,2.2026
157.1601,2.2218
157.1741,2.2491
157.1741,2.2722
157.1894,2.29
157.1933,2.2741
157.1980,2.257
157.1980,2.2341
157.1990,2.1811
157.1990,2.1529
157.2000,2.1336
157.2000,2.1402
157.2010,2.1531
157.2025,2.1726
157.2031,2.1953
157.2040,2.2216
157.2040,2.2767
157.2050,2.2945
157.2050,2.2954
157.2060,2.2501
157.2061,2.2276
157.2070,2.2094
157.2070,2.1944
157.2081,2.146
157.2081,2.1396
157.2090,2.1396
157.2090,2.1569
157.2090,2.2124
157.2100,2.227
157.2100,2.2602
157.2110,2.2833
157.2110,2.2876
157.2120,2.2613
157.2120,2.2398
157.2130,2.2094
157.2130,2.1636
157.2130,2.1342
157.2140,2.1128
157.2140,2.1008
157.2150,2.1254
157.2150,2.1409
157.2160,2.1593
157.2160,2.2041
157.2170,2.2182
157.2179,2.2392
157.2179,2.2388
157.2220,2.2083
157.2229,2.1799
157.2229,2.1513
157.2239,2.1389
157.2239,2.0952
157.2282,2.0924
157.2289,2.1003
157.2289,2.1156
157.2300,2.1629
157.2354,2.1938
157.2361,2.227
157.2370,2.2825
157.2380,2.2864
157.2380,2.2709
157.2416,2.2514
157.2416,2.1994
157.2426,2.1749
157.2426,2.1505
157.2436,2.1299
157.2486,2.1235
157.2486,2.1338
157.2496,2.1563
157.2496,2.1854
157.2576,2.2317
157.2576,2.2604
157.2586,2.2795
157.2586,2.2364
157.2596,2.2159
157.2640,2.1912
157.2649,2.1366
157.2649,2.1186
157.2659,2.1166
157.2713,2.1256
157.2790,2.1434
157.2912,2.1721
157.3100,2.1918
157.3183,2.2362
157.3252,2.2549
157.3494,2.2668
157.3536,2.2473
157.3551,2.197
157.3557,2.1713
157.3557,2.1385
157.3566,2.1121
157.3566,2.0841
157.3566,2.0868
157.3576,2.107
157.3576,2.1588
157.3586,2.1882
157.3586,2.2161
157.3597,2.2369
157.3597,2.2548
157.3607,2.239
157.3608,2.2203
157.3608,2.1936
157.3618,2.1469
157.3618,2.1177
157.3628,2.0973
157.3628,2.086
157.3638,2.0959
157.3638,2.113
157.3638,2.1434
157.3648,2.1921
157.3658,2.2156
157.3662,2.2373
157.3671,2.2386
157.3671,2.1993
157.3671,2.1709
157.3686,2.1432
157.3690,2.1198
157.3700,2.0866
157.3700,2.0845
157.3711,2.0858
157.3713,2.0888
157.3713,2.1003
157.3723,2.1228
157.3723,2.1567
157.3733,2.2126
157.3733,2.2201
157.3743,2.1897
157.3743,2.1411
157.3743,2.011
157.3753,1.9191
157.3753,1.8214
157.3765,1.7582
157.3765,1.648
157.3776,1.6135
157.3776,1.5977
157.3786,1.6392
157.3786,1.6394
157.3786,1.7192
157.3796,1.8685
157.3796,2.3026
157.3847,2.3026
157.3936,2.2208
157.4168,2.1833
157.4209,2.2767
157.4247,2.338
157.4257,2.4951
157.4259,2.6071
157.4259,2.6131
157.4270,2.6305
157.4270,2.5994
157.4279,2.611
157.4279,2.6067
157.4289,2.609
157.4289,2.6114
157.4299,2.5364
157.4299,2.4807
157.4309,2.4207
157.4309,2.3568
157.4319,2.2913
157.4322,2.2463
157.4322,2.2283
157.4332,2.2114
157.4332,2.1781
157.4342,2.1822
157.4342,2.2045
157.4352,2.215
157.4361,2.1978
157.4371,2.1818
157.4371,2.1631
157.4384,2.0954
157.4384,2.0669
157.4384,2.0517
157.4395,2.0356
157.4395,2.0369
157.4404,2.0496
157.4404,2.0686
157.4415,2.0899
157.4415,2.1325
157.4427,2.1417
157.4427,2.1454
157.4436,2.1278
157.4437,2.0851
157.4437,2.0577
157.4447,2.0322
157.4447,2.0069
157.4457,1.9654
157.4457,1.9677
157.4467,1.9823
157.4467,2.0176
157.4467,2.0387
157.4477,2.0643
157.4477,2.0922
157.4489,2.1171
157.4489,2.1063
157.4489,2.0826
157.4499,2.062
157.4499,2.0123
157.4509,1.9868
157.4509,1.9637
157.4519,1.9501
157.4519,1.9607
157.4530,1.9832
157.4539,2.0059
157.4539,2.0284
157.4550,2.0798
157.4551,2.1053
157.4551,2.1072
157.4611,2.0772
157.4611,2.0543
157.4621,2.0296
157.4621,2.0076
157.4631,1.9514
157.4673,1.942
157.4681,1.9416
157.4691,1.9519
157.4691,1.996
157.4747,2.0191
157.4747,2.0444
157.4757,2.0646
157.4757,2.1025
157.4769,2.0841
157.4809,2.0639
157.4822,2.0432
157.4822,1.9849
157.4833,1.9606
157.4833,1.9362
157.4874,1.9276
157.4885,1.9375
157.4885,1.96
157.4895,1.9801
157.4961,2.0219
157.5098,2.0455
157.5239,2.0673
157.5309,2.0779
157.5319,2.0453
157.5319,2.0196
157.5329,1.9954
157.5329,1.9737
157.5341,1.9251
157.5341,1.9171
157.5353,1.9141
157.5369,1.9221
157.5371,1.9562
157.5381,1.9883
157.5381,2.0127
157.5391,2.062
157.5391,2.0757
157.5391,2.0658
157.5401,2.0492
157.5411,1.9924
157.5421,1.9669
157.5431,1.9367
157.5431,1.9112
157.5441,1.8983
157.5451,1.9094
157.5461,1.9225
157.5461,1.945
157.5471,1.9939
157.5481,2.0226
157.5491,2.0466
157.5491,2.0378
157.5501,2.0209
157.5511,1.9996
157.5517,1.9748
157.5521,1.9251
157.5531,1.8904
157.5533,1.873
157.5541,1.8679
157.5541,1.8852
157.5551,1.9069
157.5551,1.9319
157.5561,1.9836
157.5561,2.0052
157.5571,2.0099
157.5571,1.9958
157.5581,1.9442
157.5627,1.9184
157.5627,1.8895
157.5637,1.8565
157.5637,1.8137
157.5696,1.8126
157.5696,1.8154
157.5706,1.825
157.5706,1.8604
157.5718,1.8856
157.5763,1.9126
157.5773,1.9328
157.5785,1.9382
157.5794,1.9193
157.5804,1.8955
157.5824,1.8419
157.5837,1.8167
157.5837,1.7862
157.5847,1.7729
157.5902,1.7776
157.5902,1.7956
157.5962,1.8126
157.6115,1.8377
157.6263,1.885
157.6291,1.9021
157.6331,1.9124
157.6341,1.903
157.6341,1.8572
157.6351,1.8332
157.6361,1.8079
157.6361,1.7819
157.6374,1.7391
157.6381,1.7408
157.6381,1.7476
157.6391,1.7939
157.6391,1.8241
157.6401,1.8541
157.6401,1.8826
157.6401,1.9257
157.6411,1.9244
157.6411,1.9112
157.6421,1.9006
157.6421,1.8548
157.6433,1.8353
157.6433,1.8117
157.6444,1.8062
157.6444,1.8107
157.6454,1.8327
157.6454,1.8587
157.6463,1.8904
157.6463,1.9517
157.6473,1.978
157.6473,1.9951
157.6483,1.9791
157.6483,1.9643
157.6483,1.9463
157.6496,1.9242
157.6496,1.8749
157.6506,1.8649
157.6506,1.8691
157.6516,1.8745
157.6516,1.9221
157.6526,1.9476
157.6526,1.9707
157.6526,2.0029
157.6571,2.0275
157.6571,2.0335
157.6579,2.0204
157.6579,2.0001
157.6644,1.9592
157.6644,1.9322
157.6655,1.909
157.6655,1.8972
157.6655,1.8989
157.6707,1.9148
157.6707,1.9424
157.6707,1.9896
157.6717,2.0194
157.6717,2.0457
157.6769,2.0614
157.6779,2.0333
157.6779,2.0172
157.6779,1.9926
157.6850,1.966
157.6850,1.9109
157.6859,1.8959
157.6859,1.8968
157.6859,1.8979
157.6913,1.9315
157.6913,1.9551
157.6923,1.9795
157.6923,2.0309
157.6987,2.0397
157.7028,2.0359
157.7114,2.0267
157.7215,1.9716
157.7255,1.9489
157.7255,1.9231
157.7264,1.8974
157.7264,1.8801
157.7264,1.8737
157.7264,1.8874
157.7277,1.9094
157.7277,1.9566
157.7277,1.9889
157.7287,2.0102
157.7287,2.014
157.7287,1.9997
157.7287,1.9825
157.7297,1.9532
157.7297,1.9206
157.7297,1.8679
157.7307,1.8601
157.7307,1.8578
157.7307,1.8655
157.7317,1.8886
157.7326,1.912
157.7326,1.9324
157.7326,1.9761
157.7338,1.9891
157.7387,1.9874
157.7387,1.9765
157.7398,1.9349
157.7398,1.9047
157.7453,1.8775
157.7453,1.8518
157.7463,1.8366
157.7463,1.8368
157.7463,1.8565
157.7516,1.8942
157.7532,1.9208
157.7536,1.9495
157.7536,1.9712
157.7592,1.9857
157.7592,1.9692
157.7603,1.9497
157.7603,1.924
157.7614,1.8769
157.7655,1.8421
157.7663,1.8387
157.7663,1.8409
157.7675,1.8475
157.7686,1.8653
157.7725,1.8925
157.7725,1.9135
157.7738,1.9671
157.7738,1.9737
157.7800,1.9696
157.7800,1.9384
157.7810,1.9127
157.7810,1.8842
157.7820,1.8597
157.7864,1.8218
157.7874,1.8121
157.7874,1.8151
157.7874,1.8267
157.7932,1.8691
157.7939,1.8976
157.7939,1.9294
157.7949,1.9542
157.7949,1.9696
157.7996,1.9606
157.8006,1.9343
157.8006,1.8827
157.8017,1.8574
157.8065,1.8329
157.8065,1.8158
157.8088,1.8151
157.8155,1.8293
157.8290,1.8527
157.8437,1.8771
157.8508,1.9291
157.8508,1.9506
157.8528,1.9684
157.8538,1.9628
157.8548,1.9272
157.8548,1.8983
157.8558,1.876
157.8560,1.8542
157.8560,1.8053
157.8570,1.8014
157.8570,1.8001
157.8581,1.8325
157.8581,1.8619
157.8590,1.888
157.8590,1.9129
157.8600,1.9561
157.8600,1.9549
157.8600,1.9433
157.8612,1.9225
157.8612,1.8711
157.8612,1.8407
157.8623,1.8151
157.8623,1.7961
157.8633,1.7914
157.8633,1.8102
157.8643,1.8272
157.8643,1.8511
157.8653,1.8944
157.8653,1.9187
157.8653,1.9339
157.8662,1.9332
157.8673,1.8976
157.8674,1.8859
157.8674,1.8631
157.8684,1.8072
157.8698,1.7926
157.8704,1.7946
157.8704,1.7935
157.8714,1.8214
157.8714,1.8464
157.8746,1.8736
157.8746,1.8979
157.8756,1.9379
157.8756,1.9317
157.8766,1.9171
157.8808,1.8916
157.8818,1.8312
157.8818,1.8096
157.8828,1.7727
157.8881,1.7391
157.8881,1.7335
157.8891,1.7397
157.8891,1.7609
157.8901,1.8061
157.8944,1.8291
157.8954,1.8512
157.8954,1.8668
157.8954,1.8499
157.9011,1.8325
157.9021,1.8083
157.9021,1.7884
157.9034,1.7371
157.9034,1.7262
157.9081,1.7202
157.9081,1.7207
157.9094,1.7519
157.9094,1.7794
157.9104,1.8113
157.9146,1.87
157.9146,1.8859
157.9156,1.8929
157.9156,1.8803
157.9221,1.8421
157.9371,1.813
157.9526,1.7873
157.9576,1.7629
157.9576,1.7423
157.9586,1.7421
157.9586,1.7509
157.9598,1.7731
157.9598,1.8194
157.9598,1.8501
157.9609,1.8758
157.9609,1.8938
157.9619,1.8799
157.9619,1.8608
157.9630,1.8359
157.9630,1.7901
157.9639,1.7626
157.9639,1.7462
157.9639,1.7404
157.9651,1.7515
157.9651,1.7731
157.9661,1.7954
157.9661,1.8467
157.9661,1.8711
157.9671,1.8889
157.9671,1.8895
157.9681,1.8662
157.9691,1.8379
157.9700,1.8154
157.9700,1.7916
157.9713,1.7459
157.9713,1.7402
157.9723,1.7389
157.9723,1.7494
157.9723,1.7899
157.9733,1.8203
157.9733,1.8458
157.9761,1.8831
157.9771,1.8822
157.9774,1.8719
157.9774,1.8574
157.9850,1.8092
157.9857,1.7864
157.9857,1.7571
157.9869,1.7314
157.9878,1.7271
157.9920,1.7543
157.9920,1.8059
157.9930,1.8347
157.9940,1.8591
157.9982,1.8794
157.9982,1.8691
157.9992,1.8426
157.9992,1.8209
158.0002,1.7969
158.0045,1.7483
158.0045,1.7309
158.0055,1.7279
158.0055,1.7414
158.0065,1.7626
158.0118,1.7822
158.0118,1.7937
158.0118,1.8321
158.0130,1.8511
158.0186,1.8616
158.0186,1.8593
158.0197,1.8001
158.0197,1.7507
158.0207,1.6906
158.0272,1.6067
158.0334,1.4494
158.0469,1.3924
158.0650,1.3585
158.0700,1.2934
158.0711,1.2891
158.0711,1.278
158.0711,1.3159
158.0721,1.3405
158.0721,1.437
158.0730,1.7069
158.0730,1.8871
158.0743,1.8372
158.0743,1.7974
158.0743,1.7956
158.0753,1.9242
158.0753,2.1865
158.0763,2.3779
158.0763,2.4329
158.0773,2.4355
158.0773,2.4316
158.0773,2.4286
158.0783,2.4145
158.0783,2.3834
158.0792,2.272
158.0792,2.2178
158.0804,2.1588
158.0815,2.0432
158.0815,1.9969
158.0824,1.984
158.0824,1.972
158.0834,1.9469
158.0844,1.936
158.0854,1.9277
158.0864,1.9052
158.0874,1.8861
158.0884,1.8732
158.0894,1.8443
158.0894,1.8077
158.0904,1.7468
158.0914,1.7215
158.0924,1.6956
158.0924,1.6825
158.0934,1.6996
158.0934,1.7102
158.0944,1.7271
158.0944,1.7599
158.0954,1.7798
158.0954,1.7882
158.0964,1.7918
158.0996,1.7629
158.1006,1.7382
158.1006,1.7129
158.1019,1.6881
158.1033,1.6381
158.1059,1.6307
158.1069,1.621
158.1069,1.6304
158.1080,1.6652
158.1135,1.6939
158.1135,1.714
158.1146,1.7515
158.1146,1.7584
158.1155,1.7521
158.1198,1.7326
158.1205,1.6847
158.1215,1.6577
158.1215,1.632
158.1272,1.6148
158.1272,1.6002
158.1282,1.6092
158.1282,1.6266
158.1292,1.6727
158.1335,1.6997
158.1345,1.7262
158.1355,1.7386
158.1355,1.7335
158.1405,1.7136
158.1405,1.6921
158.1416,1.6696
158.1416,1.6092
158.1427,1.5953
158.1469,1.5865
158.1528,1.594
158.1682,1.6077
158.1833,1.6309
158.1907,1.6549
158.1914,1.7119
158.1918,1.7333
158.1918,1.7378
158.1928,1.7299
158.1928,1.6836
158.1938,1.6592
158.1938,1.6356
158.1948,1.6009
158.1948,1.5696
158.1957,1.5728
158.1957,1.5784
158.1957,1.6187
158.1967,1.6427
158.1967,1.6701
158.1978,1.7029
158.1978,1.7174
158.1987,1.7059
158.1987,1.6836
158.1998,1.663
158.1999,1.6148
158.1999,1.5921
158.2010,1.5764
158.2010,1.5664
158.2019,1.5705
158.2031,1.5891
158.2039,1.606
158.2039,1.6577
158.2049,1.6784
158.2049,1.6984
158.2049,1.7037
158.2062,1.6731
158.2062,1.6602
158.2072,1.6272
158.2072,1.5987
158.2082,1.545
158.2082,1.5383
158.2092,1.53
158.2092,1.5567
158.2104,1.5756
158.2104,1.6039
158.2112,1.6259
158.2152,1.6641
158.2162,1.6786
158.2162,1.6647
158.2172,1.6457
158.2225,1.6058
158.2225,1.5782
158.2235,1.5447
158.2235,1.5222
158.2247,1.4972
158.2287,1.5053
158.2297,1.5233
158.2297,1.5578
158.2310,1.5784
158.2357,1.6052
158.2357,1.6204
158.2370,1.6174
158.2370,1.5944
158.2381,1.5675
158.2423,1.5389
158.2426,1.4837
158.2426,1.4513
158.2436,1.435
158.2436,1.4279
158.2488,1.4414
158.2498,1.462
158.2498,1.4832
158.2508,1.5257
158.2558,1.543
158.2638,1.5615
158.2803,1.5407
158.2925,1.4937
158.2958,1.4646
158.3006,1.4415
158.3010,1.3911
158.3020,1.3733
158.3029,1.384
158.3039,1.3879
158.3039,1.4256
158.3049,1.4487
158.3049,1.476
158.3062,1.5055
158.3062,1.5325
158.3072,1.5263
158.3072,1.5132
158.3083,1.4937
158.3083,1.4517
158.3092,1.4258
158.3092,1.4055
158.3102,1.3902
158.3102,1.4005
158.3112,1.41
158.3114,1.4399
158.3114,1.4895
158.3125,1.5188
158.3125,1.545
158.3135,1.5602
158.3135,1.5435
158.3145,1.5362
158.3145,1.5137
158.3145,1.497
158.3155,1.4575
158.3155,1.449
158.3167,1.4618
158.3167,1.4719
158.3177,1.5199
158.3187,1.5477
158.3198,1.5773
158.3198,1.6155
158.3207,1.6527
158.3207,1.6585
158.3217,1.6452
158.3217,1.6185
158.3229,1.5977
158.3235,1.5756
158.3239,1.5621
158.3239,1.5597
158.3249,1.5615
158.3309,1.5842
158.3309,1.6124
158.3320,1.6651
158.3320,1.6992
158.3330,1.7277
158.3371,1.7446
158.3382,1.717
158.3382,1.6981
158.3382,1.6757
158.3392,1.6555
158.3444,1.6045
158.3444,1.5957
158.3444,1.6045
158.3456,1.6268
158.3518,1.642
158.3518,1.6696
158.3528,1.7001
158.3528,1.7423
158.3538,1.759
158.3575,1.7489
158.3585,1.7318
158.3585,1.6874
158.3585,1.6677
158.3653,1.6433
158.3720,1.6127
158.3862,1.5981
158.4008,1.6026
158.4047,1.6217
158.4090,1.6675
158.4100,1.6917
158.4100,1.7243
158.4110,1.7476
158.4110,1.7502
158.4120,1.7337
158.4120,1.7116
158.4120,1.6866
158.4130,1.6379
158.4130,1.6152
158.4142,1.5981
158.4142,1.6002
158.4152,1.6165
158.4152,1.6379
158.4162,1.6677
158.4162,1.6919
158.4172,1.7397
158.4172,1.7562
158.4182,1.7566
158.4184,1.7221
158.4200,1.6996
158.4206,1.6787
158.4212,1.6555
158.4212,1.6101
158.4222,1.6082
158.4222,1.6129
158.4232,1.6289
158.4232,1.6763
158.4242,1.7029
158.4242,1.7378
158.4242,1.7547
158.4252,1.7693
158.4252,1.7504
158.4266,1.732
158.4272,1.6846
158.4272,1.6598
158.4282,1.6304
158.4282,1.6159
158.4292,1.6154
158.4292,1.6309
158.4302,1.6523
158.4322,1.6746
158.4325,1.7269
158.4325,1.7479
158.4335,1.7676
158.4335,1.7682
158.4388,1.7314
158.4398,1.7048
158.4398,1.6804
158.4398,1.6562
158.4457,1.6197
158.4468,1.6174
158.4468,1.6191
158.4468,1.6362
158.4478,1.6834
158.4526,1.7136
158.4526,1.7395
158.4536,1.7839
158.4536,1.7841
158.4598,1.7618
158.4598,1.7485
158.4610,1.6982
158.4611,1.6759
158.4611,1.6531
158.4655,1.6382
158.4668,1.6382
158.4668,1.6553
158.4678,1.6784
158.4727,1.7082
158.4727,1.7614
158.4737,1.7877
158.4737,1.7961
158.4757,1.7995
158.4823,1.7667
158.4961,1.744
158.5116,1.7196
158.5169,1.6934
158.5178,1.6589
158.5186,1.66
158.5196,1.6649
158.5206,1.6951
158.5206,1.7196
158.5216,1.7453
158.5216,1.7732
158.5226,1.8016
158.5226,1.8001
158.5226,1.7909
158.5238,1.7744
158.5238,1.7344
158.5248,1.7104
158.5248,1.6831
158.5258,1.6741
158.5258,1.6699
158.5268,1.6855
158.5268,1.7076
158.5278,1.7552
158.5278,1.7856
158.5288,1.8079
158.5288,1.8227
158.5288,1.8102
158.5300,1.7884
158.5300,1.7676
158.5310,1.7431
158.5310,1.6958
158.5320,1.6801
158.5320,1.6808
158.5330,1.6789
158.5330,1.7099
158.5340,1.7376
158.5340,1.7656
158.5350,1.7956
158.5360,1.8338
158.5370,1.8366
158.5370,1.8261
158.5410,1.8106
158.5410,1.7605
158.5422,1.7404
158.5423,1.714
158.5433,1.6945
158.5475,1.7035
158.5478,1.7194
158.5478,1.7393
158.5488,1.7866
158.5543,1.8117
158.5543,1.8347
158.5553,1.8548
158.5553,1.8396
158.5563,1.8182
158.5605,1.7963
158.5616,1.7654
158.5616,1.7016
158.5616,1.6825
158.5676,1.6744
158.5680,1.6765
158.5690,1.7005
158.5690,1.7209
158.5690,1.747
158.5740,1.792
158.5750,1.8038
158.5750,1.8042
158.5750,1.7927
158.5762,1.7513
158.5813,1.7266
158.5814,1.7076
158.5814,1.6832
158.5825,1.6651
158.5907,1.6703
158.6194,1.6898
158.6228,1.7101
158.6266,1.7663
158.6282,1.795
158.6282,1.8182
158.6292,1.8344
158.6292,1.8377
158.6302,1.8227
158.6302,1.8031
158.6302,1.7792
158.6312,1.7318
158.6312,1.7215
158.6322,1.7157
158.6322,1.7269
158.6333,1.7483
158.6333,1.7738
158.6333,1.8001
158.6344,1.8511
158.6354,1.8655
158.6354,1.8696
158.6363,1.8587
158.6374,1.8141
158.6374,1.7931
158.6374,1.7746
158.6386,1.7489
158.6386,1.7414
158.6396,1.7341
158.6396,1.7481
158.6396,1.768
158.6406,1.8169
158.6406,1.8443
158.6416,1.8694
158.6416,1.8852
158.6426,1.8754
158.6426,1.8574
158.6438,1.8362
158.6438,1.7941
158.6445,1.7665
158.6445,1.7526
158.6456,1.7459
158.6492,1.7567
158.6492,1.7761
158.6503,1.801
158.6503,1.8239
158.6513,1.8756
158.6559,1.8972
158.6559,1.8974
158.6569,1.8899
158.6569,1.8492
158.6624,1.8263
158.6624,1.8001
158.6635,1.759
158.6635,1.7554
158.6645,1.7539
158.6688,1.7674
158.6688,1.8173
158.6698,1.8402
158.6698,1.8651
158.6708,1.8908
158.6760,1.9064
158.6760,1.8991
158.6770,1.8816
158.6770,1.8601
158.6835,1.8156
158.6835,1.7845
158.6845,1.7738
158.6845,1.7689
158.6855,1.7871
158.6889,1.8087
158.6900,1.8361
158.6900,1.8636
158.6910,1.8824
158.6961,1.9069
158.7030,1.9148
158.7126,1.8996
158.7272,1.8766
158.7341,1.8392
158.7361,1.7922
158.7371,1.6521
158.7371,1.5788
158.7382,1.5047
158.7391,1.4697
158.7401,1.3992
158.7411,1.372
158.7421,1.3545
158.7431,1.3632
158.7431,1.3724
158.7441,1.4112
158.7451,1.9684
158.7461,1.9439
158.7461,1.8647
158.7471,1.8383
158.7481,2.0236
158.7491,2.1481
158.7500,2.3733
158.7500,2.5469
158.7510,2.5488
158.7519,2.5336
158.7520,2.5233
158.7531,2.4756
158.7540,2.422
158.7540,2.3639
158.7551,2.3123
158.7551,2.1978
158.7561,2.1494
158.7561,2.1004
158.7571,2.0695
158.7571,2.0584
158.7581,2.0476
158.7581,2.0423
158.7591,2.0189
158.7591,1.9922
158.7591,1.9707
158.7601,1.9566
158.7601,1.9002
158.7614,1.8642
158.7614,1.843
158.7624,1.8154
158.7656,1.7794
158.7656,1.7783
158.7669,1.7922
158.7669,1.8081
158.7682,1.8473
158.7722,1.8706
158.7732,1.8906
158.7732,1.9022
158.7732,1.8884
158.7795,1.8677
158.7795,1.8479
158.7807,1.7918
158.7815,1.7637
158.7825,1.7449
158.7857,1.7387
158.7867,1.7455
158.7867,1.7614
158.7877,1.7862
158.7930,1.8068
158.7941,1.8556
158.7941,1.8751
158.7941,1.8754
158.7954,1.8732
158.8023,1.8235
158.8168,1.8062
158.8321,1.7839
158.8363,1.7537
158.8410,1.726
158.8420,1.7267
158.8420,1.7335
158.8430,1.7751
158.8430,1.7952
158.8430,1.8284
158.8440,1.8574
158.8440,1.8775
158.8450,1.8713
158.8450,1.8554
158.8460,1.8329
158.8460,1.7851
158.8470,1.7586
158.8470,1.7476
158.8480,1.7416
158.8480,1.7446
158.8480,1.7631
158.8490,1.7852
158.8490,1.8351
158.8500,1.8601
158.8500,1.8749
158.8510,1.8951
158.8510,1.8582
158.8522,1.8374
158.8530,1.8136
158.8539,1.7935
158.8539,1.7434
158.8539,1.7367
158.8549,1.738
158.8549,1.7588
158.8559,1.7794
158.8559,1.8062
158.8569,1.8336
158.8569,1.8683
158.8579,1.8897
158.8579,1.8749
158.8589,1.855
158.8604,1.8126
158.8604,1.7927
158.8615,1.7755
158.8615,1.7485
158.8625,1.7472
158.8674,1.7534
158.8684,1.7734
158.8694,1.816
158.8704,1.8473
158.8746,1.8741
158.8754,1.8966
158.8754,1.8962
158.8764,1.8777
158.8764,1.8629
158.8812,1.8385
158.8862,1.7862
158.8872,1.7674
158.8872,1.7547
158.8882,1.7556
158.8882,1.7682
158.8892,1.7839
158.8892,1.8117
158.8892,1.8584
158.8945,1.8801
158.8955,1.8728
158.8955,1.8662
158.8965,1.8287
158.9015,1.8016
158.9020,1.7774
158.9020,1.7239
158.9033,1.7116
158.9043,1.7065
158.9103,1.7076
158.9246,1.7341
158.9419,1.7552
158.9470,1.7791
158.9480,1.7987
158.9480,1.8117
158.9490,1.8036
158.9490,1.7849
158.9500,1.7322
158.9500,1.7104
158.9500,1.6847
158.9509,1.6568
158.9522,1.6315
158.9534,1.6324
158.9539,1.6457
158.9539,1.6544
158.9549,1.7044
158.9555,1.7305
158.9559,1.7417
158.9559,1.7536
158.9569,1.7254
158.9569,1.708
158.9569,1.6855
158.9582,1.6202
158.9582,1.5974
158.9592,1.5927
158.9592,1.5902
158.9602,1.614
158.9602,1.6396
158.9612,1.6589
158.9612,1.6829
158.9612,1.7356
158.9622,1.7425
158.9622,1.7447
158.9632,1.7014
158.9632,1.684
158.9644,1.6649
158.9644,1.6388
158.9654,1.5996
158.9654,1.6013
158.9664,1.6073
158.9704,1.6249
158.9704,1.6692
158.9714,1.6971
158.9714,1.7307
158.9724,1.7665
158.9764,1.7669
158.9775,1.7573
158.9775,1.7429
158.9785,1.7078
158.9833,1.6885
158.9837,1.6799
158.9847,1.6634
158.9847,1.6699
158.9859,1.6971
158.9899,1.723
158.9909,1.7502
158.9909,1.8091
158.9922,1.8355
158.9964,1.8554
158.9977,1.8349
158.9977,1.8139
158.9987,1.8066
158.9987,1.7879
159.0032,1.75
159.0032,1.7462
159.0042,1.7472
159.0042,1.7532
159.0052,1.7926
159.0104,1.8241
159.0104,1.8481
159.0115,1.9103
159.0115,1.9201
159.0188,1.9221
159.0344,1.9094
159.0489,1.8593
159.0577,1.8409
159.0580,1.8212
159.0588,1.8034
159.0588,1.7899
159.0601,1.7912
159.0601,1.8106
159.0611,1.8317
159.0611,1.8852
159.0621,1.9169
159.0621,1.933
159.0631,1.9448
159.0631,1.9262
159.0631,1.9105
159.0641,1.8904
159.0641,1.8346
159.0651,1.8121
159.0651,1.792
159.0664,1.7912
159.0664,1.816
159.0674,1.8304
159.0674,1.8646
159.0687,1.8886
159.0694,1.9307
159.0704,1.9416
159.0704,1.9405
159.0714,1.9217
159.0714,1.8728
159.0726,1.8537
159.0726,1.8256
159.0736,1.8062
159.0736,1.7897
159.0746,1.7965
159.0746,1.8077
159.0746,1.8574
159.0756,1.8848
159.0756,1.9142
159.0766,1.9356
159.0766,1.9394
159.0788,1.9279
159.0796,1.8992
159.0796,1.8812
159.0806,1.8329
159.0806,1.8076
159.0849,1.7957
159.0859,1.7933
159.0869,1.8019
159.0879,1.8229
159.0912,1.8454
159.0925,1.8704
159.0932,1.9234
159.0932,1.9292
159.0942,1.9317
159.0975,1.9187
159.0984,1.8769
159.0984,1.8582
159.0994,1.8287
159.1004,1.7959
159.1054,1.7956
159.1054,1.7909
159.1064,1.8068
159.1064,1.8533
159.1125,1.8687
159.1125,1.9049
159.1135,1.9292
159.1135,1.9379
159.1148,1.9214
159.1193,1.8989
159.1193,1.8792
159.1213,1.8317
159.1213,1.8047
159.1258,1.7952
159.1335,1.7834
159.1547,1.7969
159.1614,1.8203
159.1689,1.8437
159.1699,1.9054
159.1709,1.9197
159.1709,1.9362
159.1721,1.9347
159.1721,1.9026
159.1731,1.8715
159.1731,1.8471
159.1731,1.8224
159.1741,1.7864
159.1741,1.7894
159.1751,1.7841
159.1751,1.7937
159.1761,1.8482
159.1761,1.8647
159.1771,1.8964
159.1773,1.9268
159.1773,1.9394
159.1783,1.9234
159.1783,1.9101
159.1793,1.8606
159.1793,1.8353
159.1793,1.807
159.1803,1.7948
159.1803,1.7839
159.1813,1.7873
159.1813,1.8233
159.1825,1.8488
159.1825,1.8891
159.1825,1.9174
159.1836,1.9396
159.1836,1.9287
159.1846,1.9208
159.1855,1.8811
159.1876,1.8565
159.1878,1.8392
159.1886,1.7841
159.1886,1.7777
159.1896,1.7809
159.1896,1.7858
159.1905,1.843
159.1905,1.8685
159.1931,1.8844
159.1939,1.9157
159.1939,1.9214
159.1939,1.9152
159.1949,1.8989
159.2001,1.8522
159.2001,1.8302
159.2001,1.8091
159.2012,1.7965
159.2067,1.7836
159.2077,1.7933
159.2077,1.8122
159.2077,1.8332
159.2087,1.8833
159.2135,1.903
159.2146,1.9161
159.2146,1.8887
159.2146,1.8796
159.2208,1.8522
159.2211,1.8319
159.2211,1.7772
159.2222,1.7616
159.2222,1.7515
159.2269,1.7462
159.2269,1.7687
159.2279,1.789
159.2279,1.813
159.2342,1.8349
159.2394,1.8514
159.2641,1.8601
159.2716,1.8484
159.2716,1.8162
159.2726,1.7764
159.2726,1.7605
159.2740,1.7305
159.2740,1.7144
159.2746,1.7189
159.2746,1.7284
159.2756,1.7492
159.2756,1.8014
159.2766,1.8452
159.2766,1.87
159.2779,1.8876
159.2779,1.882
159.2790,1.8625
159.2790,1.8389
159.2790,1.8059
159.2800,1.7569
159.2800,1.7447
159.2810,1.7406
159.2810,1.7412
159.2820,1.777
159.2820,1.8021
159.2831,1.8287
159.2832,1.8854
159.2832,1.8968
159.2842,1.9028
159.2852,1.8938
159.2862,1.8516
159.2865,1.8319
159.2872,1.8001
159.2872,1.7856
159.2884,1.7537
159.2884,1.7597
159.2895,1.7744
159.2895,1.7952
159.2895,1.8376
159.2905,1.8593
159.2905,1.8859
159.2947,1.9062
159.2947,1.897
159.2957,1.8715
159.2957,1.864
159.3017,1.8016
159.3024,1.7742
159.3034,1.7644
159.3045,1.7611
159.3047,1.7644
159.3084,1.7837
159.3094,1.8121
159.3094,1.8413
159.3094,1.8829
159.3160,1.9058
159.3160,1.9094
159.3170,1.8992
159.3170,1.8548
159.3180,1.825
159.3215,1.8117
159.3226,1.7862
159.3226,1.7507
159.3236,1.7462
159.3287,1.7791
159.3287,1.8092
159.3297,1.84
159.3297,1.8691
159.3307,1.8934
159.3347,1.9019
159.3358,1.8865
159.3358,1.8668
159.3368,1.8526
159.3368,1.8059
159.3473,1.7699
159.3615,1.7554
159.3767,1.7575
159.3817,1.7648
159.3856,1.7869
159.3871,1.8107
159.3877,1.8396
159.3877,1.8854
159.3887,1.8878
159.3887,1.8842
159.3897,1.8683
159.3897,1.8473
159.3897,1.843
159.3907,1.8012
159.3907,1.7237
159.3917,1.6973
159.3917,1.6459
159.3929,1.6011
159.3929,1.5353
159.3929,1.5449
159.3939,1.5445
159.3939,1.5212
159.3949,1.4856
159.3949,1.4648
159.3959,1.5008
159.3959,1.5342
159.3959,1.933
159.3969,1.9862
159.3969,1.9195
159.3981,1.8437
159.3981,1.9045
159.3981,1.9771
159.3991,2.1156
159.3991,2.4766
159.4001,2.5081
159.4001,2.492
159.4011,2.4353
159.4020,2.3127
159.4030,2.2861
159.4030,2.2519
159.4043,2.2309
159.4043,2.1398
159.4054,2.0821
159.4054,2.059
159.4064,2.038
159.4099,2.0037
159.4099,1.9971
159.4109,2.0014
159.4109,1.9831
159.4119,1.933
159.4164,1.8927
159.4175,1.8642
159.4175,1.7787
159.4184,1.7532
159.4236,1.7071
159.4236,1.6877
159.4247,1.6917
159.4247,1.7016
159.4257,1.7176
159.4301,1.7386
159.4301,1.7785
159.4311,1.8089
159.4311,1.8121
159.4324,1.7995
159.4364,1.7832
159.4376,1.7526
159.4376,1.7239
159.4376,1.6729
159.4457,1.6493
159.4457,1.6414
159.4467,1.6349
159.4467,1.6596
159.4477,1.7136
159.4551,1.7532
159.4690,1.7736
159.4825,1.7854
159.4857,1.771
159.4900,1.7282
159.4910,1.7041
159.4910,1.6765
159.4920,1.6454
159.4920,1.618
159.4930,1.6155
159.4930,1.6215
159.4940,1.6643
159.4940,1.6855
159.4940,1.7102
159.4952,1.7419
159.4952,1.7618
159.4962,1.7536
159.4962,1.7288
159.4973,1.7123
159.4973,1.6649
159.4973,1.6356
159.4983,1.6146
159.4983,1.6114
159.4992,1.6125
159.4992,1.6249
159.5004,1.6497
159.5004,1.6967
159.5014,1.7185
159.5016,1.7395
159.5024,1.7408
159.5035,1.7157
159.5035,1.6937
159.5044,1.6675
159.5044,1.6531
159.5057,1.6022
159.5057,1.5981
159.5067,1.5895
159.5067,1.6154
159.5077,1.6317
159.5077,1.6596
159.5087,1.6804
159.5131,1.7226
159.5142,1.7299
159.5144,1.7204
159.5152,1.7037
159.5196,1.6574
159.5206,1.6274
159.5206,1.6062
159.5216,1.5899
159.5216,1.5647
159.5261,1.5722
159.5271,1.5927
159.5281,1.6437
159.5283,1.6688
159.5283,1.6951
159.5335,1.7102
159.5335,1.7106
159.5346,1.6862
159.5346,1.672
159.5409,1.6433
159.5420,1.587
159.5420,1.5719
159.5429,1.5572
159.5429,1.5597
159.5472,1.5719
159.5482,1.5968
159.5482,1.6047
159.5492,1.6521
159.5544,1.6731
159.5544,1.6816
159.5555,1.6694
159.5555,1.6289
159.5568,1.6049
159.5648,1.5771
159.5802,1.5413
159.5927,1.5032
159.5980,1.5044
159.5989,1.5111
159.5989,1.5477
159.5999,1.5677
159.5999,1.5927
159.6009,1.6157
159.6009,1.635
159.6021,1.6232
159.6031,1.6034
159.6031,1.5803
159.6040,1.5233
159.6040,1.4946
159.6049,1.4685
159.6049,1.4496
159.6059,1.4359
159.6059,1.4543
159.6069,1.4687
159.6069,1.4912
159.6079,1.5267
159.6079,1.5467
159.6079,1.5548
159.6091,1.5364
159.6091,1.4952
159.6102,1.4674
159.6102,1.4417
159.6112,1.3894
159.6112,1.3733
159.6112,1.371
159.6122,1.3789
159.6122,1.4149
159.6132,1.4367
159.6132,1.4594
159.6143,1.4835
159.6150,1.5143
159.6150,1.5034
159.6160,1.485
159.6160,1.4639
159.6170,1.4217
159.6216,1.4003
159.6216,1.3855
159.6226,1.3785
159.6226,1.3823
159.6236,1.396
159.6279,1.429
159.6290,1.4571
159.6290,1.5094
159.6300,1.5325
159.6357,1.5503
159.6357,1.5494
159.6370,1.5203
159.6370,1.5038
159.6380,1.4942
159.6423,1.461
159.6423,1.4515
159.6434,1.4659
159.6434,1.4738
159.6489,1.5269
159.6497,1.5569
159.6497,1.5872
159.6507,1.6238
159.6517,1.6724
159.6555,1.6681
159.6565,1.6639
159.6565,1.6501
159.6575,1.6118
159.6627,1.6004
159.6627,1.5852
159.6637,1.5788
159.6637,1.588
159.6648,1.6112
159.6712,1.6313
159.6864,1.6898
159.7006,1.7181
159.7037,1.7438
159.7079,1.7626
159.7089,1.7432
159.7099,1.7286
159.7099,1.7108
159.7099,1.6907
159.7109,1.6465
159.7109,1.6388
159.7120,1.6373
159.7120,1.6405
159.7131,1.6902
159.7131,1.7029
159.7141,1.7363
159.7141,1.7828
159.7151,1.7924
159.7151,1.7896
159.7161,1.7744
159.7161,1.7277
159.7171,1.7041
159.7171,1.6804
159.7181,1.6615
159.7190,1.6487
159.7201,1.6532
159.7201,1.6688
159.7211,1.6943
159.7211,1.7318
159.7221,1.7656
159.7221,1.7792
159.7231,1.7886
159.7231,1.7626
159.7241,1.7423
159.7243,1.72
159.7243,1.6716
159.7253,1.6456
159.7253,1.6379
159.7263,1.6347
159.7263,1.6495
159.7263,1.6739
159.7306,1.6956
159.7306,1.7176
159.7317,1.7639
159.7317,1.7747
159.7327,1.7657
159.7369,1.7532
159.7369,1.7057
159.7379,1.6802
159.7379,1.6564
159.7439,1.6302
159.7439,1.6139
159.7450,1.618
159.7450,1.6349
159.7462,1.6759
159.7504,1.7033
159.7518,1.7277
159.7523,1.7464
159.7523,1.7498
159.7574,1.7339
159.7577,1.7071
159.7587,1.6832
159.7587,1.6285
159.7597,1.6015
159.7637,1.59
159.7648,1.576
159.7648,1.5974
159.7648,1.6219
159.7658,1.6463
159.7710,1.693
159.7710,1.7213
159.7720,1.7299
159.7720,1.7307
159.7784,1.6909
159.7784,1.6658
159.7797,1.6382
159.7797,1.5895
159.7807,1.5794
159.7850,1.576
159.7857,1.576
159.7857,1.6092
159.7867,1.6352
159.7948,1.666
159.7997,1.6934
159.8232,1.7206
159.8274,1.7322
159.8317,1.7142
159.8326,1.6696
159.8326,1.6471
159.8336,1.6285
159.8336,1.599
159.8346,1.5782
159.8354,1.5792
159.8356,1.599
159.8369,1.6232
159.8369,1.6789
159.8379,1.7065
159.8379,1.7284
159.8389,1.7423
159.8389,1.7226
159.8399,1.7007
159.8399,1.6802
159.8409,1.6257
159.8409,1.6052
159.8409,1.5925
159.8421,1.5897
159.8421,1.6095
159.8431,1.6262
159.8431,1.6512
159.8431,1.672
159.8441,1.7239
159.8441,1.7387
159.8451,1.7384
159.8451,1.7031
159.8461,1.6896
159.8461,1.6679
159.8471,1.6463
159.8473,1.602
159.8473,1.5974
159.8483,1.5938
159.8483,1.6084
159.8493,1.6491
159.8493,1.6726
159.8527,1.6996
159.8533,1.7209
159.8543,1.7305
159.8543,1.7168
159.8553,1.6941
159.8590,1.6489
159.8590,1.6298
159.8600,1.6017
159.8600,1.5799
159.8610,1.5644
159.8663,1.5765
159.8663,1.5944
159.8673,1.6176
159.8683,1.6634
159.8735,1.6799
159.8735,1.6939
159.8746,1.6594
159.8746,1.6358
159.8758,1.6169
159.8798,1.5878
159.8811,1.5381
159.8811,1.5207
159.8822,1.5192
159.8866,1.5297
159.8906,1.5696
159.8918,1.593
159.8918,1.6214
159.8929,1.6789
159.8929,1.6952
159.8939,1.7007
159.8939,1.6872
159.8949,1.6516
159.9032,1.6326
159.9088,1.6187
159.9227,1.5919
159.9377,1.5704
159.9437,1.5672
159.9447,1.5884
159.9447,1.6125
159.9457,1.6523
159.9457,1.6842
159.9467,1.7104
159.9467,1.7228
159.9479,1.7091
159.9479,1.6984
159.9487,1.6765
159.9487,1.6283
159.9487,1.5981
159.9497,1.5835
159.9497,1.5859
159.9507,1.5934
159.9517,1.6161
159.9517,1.6381
159.9528,1.6876
159.9537,1.7159
159.9542,1.7322
159.9547,1.732
159.9547,1.696
159.9557,1.6735
159.9557,1.6549
159.9567,1.629
159.9567,1.5839
159.9576,1.5865
159.9576,1.5833
159.9586,1.6169
159.9586,1.6403
159.9586,1.6718
159.9596,1.6971
159.9596,1.7311
159.9606,1.7329
159.9606,1.726
159.9616,1.7084
159.9616,1.6607
159.9627,1.6373
159.9627,1.6067
159.9636,1.597
159.9636,1.5846
159.9646,1.5981
159.9686,1.6139
159.9700,1.6566
159.9700,1.6767
159.9706,1.7041
159.9706,1.7138
159.9757,1.7149
159.9757,1.6937
159.9768,1.6759
159.9768,1.6514
159.9824,1.6017
159.9824,1.5884
159.9834,1.5863
159.9834,1.5908
159.9844,1.6064
159.9885,1.6341
159.9895,1.6572
159.9895,1.7177
159.9905,1.7384
159.9983,1.7474
160.0138,1.7408
160.0278,1.681
160.0349,1.6491
160.0359,1.6277
160.0368,1.6041
160.0368,1.5874
160.0378,1.5848
160.0378,1.5809
160.0388,1.5762
160.0388,1.5587
160.0398,1.5265
160.0398,1.4796
160.0398,1.4067
160.0408,1.3748
160.0408,1.3052
160.0418,1.2629
160.0418,1.236
160.0428,1.2334
160.0428,1.2368
160.0438,1.5585
160.0438,1.7607
160.0448,1.7935
160.0448,1.7588
160.0448,1.7974
160.0458,1.8874
160.0458,2.0011
160.0468,2.1754
160.0468,2.3654
160.0478,2.3089
160.0478,2.2317
160.0478,2.146
160.0488,2.0815
160.0488,2.0539
160.0498,2.0506
160.0498,2.0335
160.0508,2.0217
160.0515,2.0281
160.0527,2.0226
160.0527,1.9834
160.0537,1.9667
160.0537,1.9418
160.0567,1.8901
160.0567,1.7646
160.0577,1.7082
160.0577,1.6594
160.0640,1.6232
160.0650,1.578
160.0650,1.5854
160.0660,1.6056
160.0660,1.6508
160.0699,1.6718
160.0709,1.699
160.0709,1.7121
160.0720,1.7067
160.0774,1.6859
160.0822,1.6587
160.0822,1.6311
160.0832,1.5674
160.0832,1.5396
160.0846,1.5287
160.0851,1.5422
160.0851,1.5529
160.0851,1.5807
160.0903,1.6032
160.0913,1.6516
160.0913,1.6671
160.0923,1.6772
160.0933,1.6622
160.0973,1.6212
160.0973,1.5974
160.0983,1.5765
160.0993,1.5488
160.1003,1.5239
160.1043,1.5231
160.1053,1.5407
160.1053,1.5786
160.1063,1.6034
160.1113,1.6283
160.1123,1.6478
160.1123,1.6765
160.1123,1.6639
160.1133,1.6452
160.1216,1.6257
160.1265,1.5715
160.1492,1.5484
160.1574,1.5312
160.1624,1.5169
160.1624,1.5289
160.1634,1.5435
160.1634,1.5655
160.1634,1.6088
160.1648,1.6339
160.1654,1.6555
160.1654,1.6666
160.1654,1.6375
160.1664,1.6178
160.1664,1.5972
160.1674,1.5456
160.1684,1.5227
160.1694,1.5134
160.1704,1.5149
160.1704,1.542
160.1704,1.5629
160.1714,1.5869
160.1714,1.6082
160.1724,1.654
160.1734,1.6587
160.1734,1.6534
160.1744,1.6339
160.1744,1.5902
160.1744,1.5694
160.1754,1.5435
160.1754,1.5068
160.1764,1.5104
160.1764,1.5199
160.1774,1.5359
160.1774,1.5769
160.1784,1.6071
160.1784,1.636
160.1794,1.6506
160.1794,1.6424
160.1805,1.6255
160.1805,1.6073
160.1814,1.5559
160.1814,1.5285
160.1814,1.5068
160.1824,1.5064
160.1878,1.5197
160.1886,1.5405
160.1886,1.5906
160.1896,1.6167
160.1896,1.6399
160.1946,1.6437
160.1956,1.6217
160.1967,1.6013
160.1967,1.5779
160.1977,1.5512
160.2016,1.5021
160.2016,1.4813
160.2016,1.4802
160.2027,1.4852
160.2087,1.5182
160.2087,1.5387
160.2099,1.5625
160.2099,1.6064
160.2108,1.6133
160.2146,1.6007
160.2157,1.5754
160.2157,1.5295
160.2167,1.504
160.2220,1.4751
160.2220,1.4489
160.2230,1.431
160.2230,1.4355
160.2240,1.4494
160.2299,1.4706
160.2439,1.5083
160.2589,1.5304
160.2619,1.5443
160.2668,1.5413
160.2668,1.519
160.2681,1.4963
160.2688,1.4753
160.2698,1.4142
160.2698,1.3904
160.2708,1.3821
160.2708,1.3739
160.2708,1.3887
160.2718,1.41
160.2718,1.4355
160.2728,1.4856
160.2728,1.5042
160.2738,1.5109
160.2738,1.4985
160.2748,1.4624
160.2748,1.4421
160.2758,1.4194
160.2758,1.3894
160.2768,1.353
160.2778,1.3519
160.2778,1.3555
160.2778,1.371
160.2788,1.4099
160.2788,1.4359
160.2798,1.4616
160.2798,1.4789
160.2808,1.4867
160.2808,1.473
160.2818,1.4614
160.2818,1.4202
160.2828,1.3932
160.2828,1.3784
160.2828,1.3694
160.2838,1.377
160.2846,1.3984
160.2848,1.4239
160.2891,1.4565
160.2900,1.5229
160.2900,1.5456
160.2910,1.5604
160.2910,1.5638
160.2959,1.5355
160.2959,1.5209
160.2969,1.5014
160.2979,1.4804
160.3034,1.4667
160.3042,1.465
160.3042,1.477
160.3053,1.5171
160.3053,1.5439
160.3095,1.575
160.3105,1.6079
160.3105,1.6422
160.3115,1.6469
160.3165,1.6384
160.3165,1.6163
160.3176,1.5797
160.3176,1.557
160.3185,1.5355
160.3236,1.525
160.3236,1.5317
160.3247,1.5492
160.3247,1.5737
160.3303,1.6022
160.3303,1.6547
160.3314,1.6799
160.3314,1.6921
160.3324,1.6742
160.3393,1.6546
160.3533,1.6337
160.3703,1.6084
160.3742,1.5649
160.3742,1.5537
160.3752,1.5473
160.3752,1.5539
160.3762,1.5825
160.3762,1.6065
160.3772,1.6362
160.3772,1.6555
160.3782,1.6812
160.3782,1.6806
160.3792,1.6654
160.3792,1.6459
160.3792,1.5957
160.3802,1.5694
160.3802,1.5445
160.3813,1.5325
160.3813,1.5347
160.3822,1.5497
160.3822,1.572
160.3832,1.6195
160.3832,1.645
160.3842,1.6632
160.3852,1.6716
160.3863,1.6549
160.3872,1.632
160.3872,1.6084
160.3882,1.5831
160.3882,1.5389
160.3892,1.525
160.3892,1.5182
160.3892,1.5194
160.3902,1.5518
160.3902,1.5745
160.3912,1.5972
160.3912,1.6444
160.3922,1.6532
160.3922,1.6512
160.3932,1.635
160.3984,1.5906
160.3993,1.5698
160.3993,1.5458
160.3993,1.5169
160.4003,1.4982
160.4044,1.5012
160.4053,1.5192
160.4053,1.539
160.4063,1.5846
160.4119,1.6133
160.4119,1.63
160.4129,1.6411
160.4129,1.6324
160.4139,1.6129
160.4179,1.5846
160.4189,1.5394
160.4189,1.5173
160.4199,1.5089
160.4251,1.51
160.4251,1.5195
160.4261,1.5447
160.4272,1.5724
160.4272,1.5927
160.4313,1.6365
160.4324,1.6527
160.4324,1.6499
160.4324,1.6345
160.4333,1.5872
160.4383,1.5677
160.4383,1.54
160.4393,1.4957
160.4393,1.491
160.4463,1.5012
160.4613,1.5203
160.4752,1.5642
160.4783,1.5829
160.4822,1.6122
160.4822,1.6358
160.4832,1.6504
160.4832,1.633
160.4842,1.6197
160.4853,1.5966
160.4862,1.5447
160.4872,1.5201
160.4872,1.5074
160.4882,1.507
160.4882,1.5214
160.4892,1.5458
160.4892,1.5707
160.4892,1.6163
160.4902,1.6364
160.4902,1.6525
160.4911,1.6463
160.4911,1.6191
160.4921,1.593
160.4921,1.5741
160.4931,1.5544
160.4931,1.5044
160.4941,1.5081
160.4941,1.5143
160.4941,1.5295
160.4951,1.5764
160.4951,1.6049
160.4961,1.627
160.4961,1.66
160.4971,1.6581
160.4971,1.6431
160.4981,1.6264
160.4981,1.5829
160.4993,1.5563
160.5002,1.5321
160.5002,1.5167
160.5012,1.512
160.5064,1.5272
160.5074,1.5477
160.5074,1.5972
160.5084,1.6259
160.5084,1.6469
160.5126,1.6591
160.5136,1.648
160.5136,1.6328
160.5146,1.6129
160.5201,1.5848
160.5209,1.5248
160.5209,1.5045
160.5219,1.5109
160.5219,1.5254
160.5264,1.5473
160.5273,1.5696
160.5273,1.5902
160.5283,1.6386
160.5283,1.6531
160.5333,1.6517
160.5343,1.639
160.5343,1.6022
160.5343,1.5825
160.5409,1.5642
160.5416,1.5135
160.5416,1.516
160.5426,1.5154
160.5426,1.5265
160.5467,1.5657
160.5476,1.59
160.5476,1.612
160.5486,1.6277
160.5552,1.6307
160.5705,1.6122
160.5855,1.5938
160.5889,1.569
160.5934,1.5126
160.5934,1.4841
160.5945,1.4646
160.5945,1.4547
160.5954,1.4702
160.5954,1.485
160.5964,1.5098
160.5964,1.5614
160.5974,1.5872
160.5974,1.6058
160.5974,1.6069
160.5984,1.5872
160.5984,1.5666
160.5994,1.5479
160.5994,1.5252
160.6004,1.4867
160.6004,1.4912
160.6025,1.4775
160.6025,1.4972
160.6035,1.5518
160.6035,1.5784
160.6045,1.606
160.6045,1.6379
160.6055,1.6386
160.6055,1.6319
160.6064,1.6169
160.6064,1.5698
160.6074,1.549
160.6074,1.5265
160.6084,1.5126
160.6084,1.5055
160.6084,1.5229
160.6094,1.5434
160.6094,1.5619
160.6104,1.6107
160.6104,1.6379
160.6114,1.6516
160.6155,1.6426
160.6155,1.6264
160.6165,1.6069
160.6165,1.5812
160.6175,1.5293
160.6215,1.5092
160.6215,1.509
160.6225,1.51
160.6225,1.5422
160.6235,1.5692
160.6285,1.5906
160.6285,1.6264
160.6295,1.6591
160.6295,1.6636
160.6356,1.6549
160.6366,1.6364
160.6366,1.5949
160.6366,1.5724
160.6376,1.5456
160.6426,1.5295
160.6426,1.5162
160.6436,1.5319
160.6436,1.5482
160.6493,1.5949
160.6493,1.6234
160.6503,1.6478
160.6512,1.6613
160.6513,1.6568
160.6558,1.635
160.6558,1.6157
160.6568,1.5938
160.6568,1.5389
160.6626,1.525
160.6658,1.5197
160.6798,1.5195
160.6963,1.5473
160.7007,1.5715
160.7019,1.6024
160.7027,1.623
160.7037,1.6544
160.7037,1.6634
160.7047,1.6559
160.7047,1.6304
160.7057,1.6064
160.7057,1.5839
160.7067,1.5507
160.7067,1.4931
160.7067,1.495
160.7077,1.5149
160.7077,1.5345
160.7087,1.5758
160.7087,1.5818
160.7097,1.5799
160.7097,1.5482
160.7106,1.4085
160.7106,1.3172
160.7116,1.2674
160.7116,1.2381
160.7116,1.2231
160.7126,1.2218
160.7126,1.2216
160.7136,1.2216
160.7136,1.2242
160.7146,1.26
160.7146,1.5186
160.7156,1.6941
160.7156,1.7014
160.7166,1.7035
160.7166,1.7871
160.7166,1.9591
160.7176,2.1033
160.7186,2.2066
160.7189,2.1959
160.7196,2.1359
160.7231,2.1093
160.7236,2.0956
160.7236,2.0995
160.7246,2.0539
160.7302,2.0682
160.7302,2.0665
160.7313,2.0508
160.7313,1.9718
160.7323,1.9321
160.7364,1.8854
160.7372,1.8361
160.7372,1.7138
160.7382,1.6602
160.7441,1.6182
160.7441,1.5674
160.7451,1.5865
160.7451,1.6034
160.7464,1.6133
160.7503,1.6486
160.7513,1.6621
160.7513,1.663
160.7526,1.6517
160.7566,1.6064
160.7580,1.5822
160.7580,1.5585
160.7590,1.5317
160.7590,1.488
160.7635,1.4811
160.7635,1.4886
160.7645,1.5214
160.7645,1.5383
160.7655,1.5625
160.7755,1.587
160.7908,1.605
160.8069,1.5979
160.8112,1.5797
160.8122,1.555
160.8122,1.5111
160.8132,1.4802
160.8132,1.4642
160.8142,1.4594
160.8142,1.4627
160.8152,1.4834
160.8154,1.5047
160.8154,1.5244
160.8164,1.5687
160.8164,1.5882
160.8174,1.5936
160.8184,1.5627
160.8194,1.5462
160.8204,1.5225
160.8204,1.4909
160.8204,1.4492
160.8216,1.4434
160.8216,1.4382
160.8227,1.4481
160.8227,1.4873
160.8237,1.5134
160.8237,1.5415
160.8247,1.5608
160.8247,1.59
160.8247,1.5758
160.8257,1.5621
160.8257,1.5398
160.8269,1.494
160.8269,1.4635
160.8279,1.4436
160.8279,1.4397
160.8289,1.4468
160.8289,1.4652
160.8289,1.4903
160.8299,1.5368
160.8299,1.5651
160.8319,1.5857
160.8319,1.5878
160.8329,1.5692
160.8332,1.548
160.8387,1.5179
160.8387,1.4957
160.8397,1.4415
160.8397,1.437
160.8407,1.431
160.8447,1.4449
160.8458,1.4843
160.8467,1.51
160.8467,1.5372
160.8518,1.5846
160.8518,1.5885
160.8529,1.5857
160.8529,1.5675
160.8539,1.5214
160.8584,1.495
160.8595,1.4745
160.8595,1.4528
160.8604,1.4427
160.8606,1.4507
160.8647,1.4684
160.8659,1.4871
160.8659,1.5289
160.8669,1.554
160.8726,1.5728
160.8736,1.5777
160.8736,1.5619
160.8746,1.5329
160.8746,1.5113
160.8830,1.4609
160.8972,1.4354
160.9191,1.4301
160.9260,1.4215
160.9260,1.4494
160.9270,1.4657
160.9270,1.4901
160.9280,1.5141
160.9280,1.5584
160.9290,1.5602
160.9290,1.5512
160.9300,1.5293
160.9300,1.4847
160.9310,1.4526
160.9310,1.423
160.9310,1.4014
160.9320,1.378
160.9320,1.3814
160.9330,1.3937
160.9330,1.4147
160.9340,1.4554
160.9350,1.4775
160.9353,1.4847
160.9361,1.4667
160.9361,1.4468
160.9370,1.4207
160.9370,1.3652
160.9382,1.3395
160.9382,1.3311
160.9391,1.3247
160.9391,1.342
160.9401,1.3615
160.9401,1.3844
160.9410,1.4354
160.9410,1.4468
160.9410,1.4588
160.9420,1.4564
160.9420,1.4123
160.9430,1.3894
160.9430,1.3664
160.9440,1.3414
160.9440,1.309
160.9450,1.303
160.9450,1.3125
160.9450,1.3292
160.9484,1.3746
160.9484,1.3937
160.9495,1.4177
160.9495,1.4385
160.9504,1.4462
160.9546,1.431
160.9546,1.4144
160.9557,1.3864
160.9557,1.3444
160.9567,1.3251
160.9616,1.3182
160.9616,1.3214
160.9627,1.3429
160.9627,1.3662
160.9688,1.3958
160.9688,1.4567
160.9697,1.4837
160.9697,1.5012
160.9707,1.4972
160.9751,1.4712
160.9760,1.4515
160.9760,1.4412
160.9771,1.4222
160.9823,1.3977
160.9832,1.398
160.9832,1.4115
160.9842,1.4247
160.9892,1.4807
161.0042,1.5122
161.0181,1.5424
161.0241,1.5705
161.0251,1.5825
161.0251,1.5687
161.0261,1.558
161.0261,1.5184
161.0271,1.4877
161.0271,1.4661
161.0281,1.4547
161.0283,1.4654
161.0283,1.4775
161.0294,1.5053
161.0294,1.5315
161.0304,1.5899
161.0304,1.6109
161.0304,1.621
161.0314,1.6195
161.0314,1.582
161.0324,1.5668
161.0324,1.5469
161.0335,1.4955
161.0335,1.4865
161.0345,1.4762
161.0355,1.4768
161.0365,1.5177
161.0365,1.5417
161.0375,1.5674
161.0375,1.5981
161.0385,1.6377
161.0385,1.6296
161.0385,1.6139
161.0398,1.5936
161.0398,1.5437
161.0408,1.5197
161.0408,1.4993
161.0428,1.471
161.0428,1.4835
161.0438,1.5045
161.0438,1.5209
161.0448,1.5698
161.0490,1.5966
161.0500,1.6174
161.0500,1.6289
161.0510,1.6067
161.0520,1.5899
161.0570,1.569
161.0570,1.5216
161.0582,1.4991
161.0582,1.4792
161.0637,1.4742
161.0637,1.4929
161.0647,1.519
161.0647,1.5351
161.0657,1.558
161.0702,1.6099
161.0712,1.6242
161.0712,1.6184
161.0723,1.5974
161.0776,1.5602
161.0776,1.5347
161.0785,1.5117
161.0785,1.465
161.0795,1.4678
161.0835,1.4719
161.0845,1.4856
161.0845,1.527
161.0858,1.5495
161.0909,1.5773
161.0911,1.5998
161.0921,1.6054
161.0921,1.5951
161.0931,1.578
161.0991,1.542
161.1207,1.5066
161.1364,1.4886
161.1436,1.4742
161.1436,1.4725
161.1448,1.4871
161.1448,1.5079
161.1458,1.5317
161.1458,1.5765
161.1468,1.5964
161.1468,1.6146
161.1478,1.6131
161.1478,1.5745
161.1488,1.5514
161.1488,1.5276
161.1488,1.4822
161.1500,1.468
161.1500,1.4655
161.1510,1.4684
161.1520,1.5049
161.1531,1.5306
161.1531,1.5499
161.1540,1.5816
161.1540,1.611
161.1551,1.6116
161.1562,1.5998
161.1562,1.5852
161.1572,1.5308
161.1572,1.5135
161.1582,1.4884
161.1582,1.4612
161.1592,1.4633
161.1592,1.4817
161.1602,1.5032
161.1602,1.5542
161.1612,1.5809
161.1612,1.6028
161.1612,1.6208
161.1625,1.6034
161.1625,1.5884
161.1635,1.5632
161.1635,1.5372
161.1645,1.492
161.1645,1.4807
161.1654,1.467
161.1654,1.4894
161.1664,1.5094
161.1664,1.5355
161.1664,1.5587
161.1674,1.6054
161.1725,1.6155
161.1736,1.6199
161.1736,1.6062
161.1746,1.5687
161.1748,1.5454
161.1789,1.5184
161.1802,1.4708
161.1802,1.467
161.1812,1.4727
161.1855,1.4864
161.1865,1.5291
161.1865,1.5467
161.1875,1.5754
161.1875,1.5977
161.1925,1.6193
161.1925,1.5987
161.1935,1.5837
161.1935,1.5389
161.1945,1.5156
161.1988,1.4959
161.1998,1.4749
161.1998,1.4755
161.2011,1.4854
161.2081,1.5066
161.2212,1.534
161.2354,1.5825
161.2416,1.609
161.2427,1.6223
161.2437,1.6212
161.2437,1.59
161.2447,1.5608
161.2447,1.5405
161.2447,1.5252
161.2457,1.4787
161.2457,1.4721
161.2469,1.471
161.2469,1.5014
161.2480,1.5265
161.2480,1.5512
161.2489,1.5807
161.2489,1.6204
161.2499,1.6253
161.2499,1.6133
161.2499,1.594
161.2513,1.5464
161.2528,1.5248
161.2528,1.4985
161.2538,1.4755
161.2538,1.4547
161.2548,1.4682
161.2548,1.4819
161.2558,1.5162
161.2558,1.5407
161.2558,1.563
161.2568,1.5839
161.2568,1.567
161.2578,1.5462
161.2578,1.5169
161.2590,1.4963
161.2590,1.4436
161.2604,1.4226
161.2614,1.4232
161.2614,1.4228
161.2623,1.4616
161.2678,1.491
161.2684,1.5167
161.2693,1.5411
161.2693,1.5908
161.2705,1.5987
161.2739,1.5857
161.2739,1.5479
161.2749,1.5272
161.2759,1.5102
161.2808,1.4895
161.2808,1.4657
161.2821,1.467
161.2821,1.4835
161.2831,1.5036
161.2871,1.5518
161.2871,1.5756
161.2883,1.6054
161.2883,1.6255
161.2893,1.6101
161.2945,1.5975
161.2945,1.579
161.2955,1.5495
161.2955,1.4955
161.3010,1.4852
161.3021,1.4736
161.3021,1.477
161.3021,1.5134
161.3031,1.5405
161.3077,1.5612
161.3087,1.609
161.3087,1.6268
161.3087,1.6305
161.3147,1.6214
161.3310,1.5782
161.3471,1.5495
161.3520,1.5364
161.3530,1.5096
161.3530,1.4849
161.3540,1.4828
161.3549,1.5021
161.3550,1.5207
161.3550,1.5679
161.3560,1.5977
161.3560,1.6275
161.3573,1.6437
161.3573,1.6292
161.3583,1.6155
161.3583,1.5906
161.3593,1.5441
161.3593,1.5186
161.3603,1.5012
161.3603,1.491
161.3603,1.5047
161.3613,1.5265
161.3613,1.5501
161.3625,1.573
161.3625,1.6313
161.3625,1.6469
161.3635,1.6469
161.3635,1.6397
161.3645,1.6002
161.3645,1.5735
161.3655,1.5527
161.3655,1.5276
161.3665,1.498
161.3665,1.4914
161.3665,1.507
161.3675,1.5561
161.3685,1.5809
161.3695,1.6112
161.3705,1.6407
161.3705,1.6574
161.3715,1.6296
161.3755,1.6
161.3755,1.5709
161.3766,1.539
161.3766,1.5154
161.3776,1.5096
161.3820,1.4955
161.3830,1.4477
161.3830,1.4095
161.3840,1.3664
161.3843,1.3232
161.3883,1.2728
161.3895,1.251
161.3895,1.2342
161.3905,1.2282
161.3963,1.224
161.3963,1.2225
161.3974,1.2222
161.3974,1.2246
161.3984,1.5094
161.4022,1.6058
161.4030,1.5807
161.4030,1.567
161.4040,1.7712
161.4094,1.8876
161.4094,2.0667
161.4105,2.3367
161.4105,2.3187
161.4117,2.2778
161.4158,2.2169
161.4170,2.1228
161.4171,2.0744
161.4171,2.0042
161.4234,1.9774
161.4273,1.9178
161.4408,1.9079
161.4556,1.891
161.4584,1.8831
161.4625,1.894
161.4634,1.8807
161.4634,1.8507
161.4644,1.7451
161.4644,1.6827
161.4654,1.6268
161.4654,1.5964
161.4664,1.5351
161.4674,1.5169
161.4684,1.5092
161.4684,1.5162
161.4704,1.5484
161.4704,1.5705
161.4714,1.6019
161.4714,1.6304
161.4724,1.6377
161.4724,1.6187
161.4734,1.5975
161.4740,1.5734
161.4746,1.5145
161.4756,1.4849
161.4766,1.4633
161.4776,1.4487
161.4776,1.4573
161.4786,1.4689
161.4786,1.491
161.4798,1.5439
161.4809,1.5567
161.4809,1.5863
161.4818,1.5874
161.4828,1.5561
161.4828,1.5349
161.4838,1.5096
161.4838,1.4901
161.4854,1.4357
161.4858,1.4265
161.4868,1.4249
161.4868,1.4327
161.4878,1.4768
161.4878,1.4905
161.4888,1.5164
161.4910,1.5456
161.4910,1.576
161.4920,1.5636
161.4920,1.5411
161.4930,1.5015
161.4973,1.474
161.4974,1.4532
161.4983,1.4275
161.4983,1.4164
161.5041,1.4241
161.5046,1.4419
161.5046,1.4691
161.5056,1.5175
161.5056,1.5465
161.5099,1.5674
161.5108,1.5709
161.5108,1.5435
161.5118,1.5242
161.5171,1.5055
161.5181,1.4882
161.5191,1.4228
161.5201,1.416
161.5201,1.4157
161.5231,1.4402
161.5241,1.4618
161.5241,1.4858
161.5253,1.5094
161.5260,1.5557
161.5400,1.5615
161.5649,1.5617
161.5813,1.5469
161.5908,1.4961
161.5916,1.4723
161.5918,1.4487
161.5918,1.4277
161.5928,1.4159
161.5928,1.4226
161.5938,1.4414
161.5938,1.4618
161.5948,1.5154
161.5948,1.539
161.5960,1.549
161.5960,1.5499
161.5970,1.5314
161.5970,1.5139
161.5980,1.4954
161.5980,1.4361
161.5990,1.422
161.5990,1.4196
161.6000,1.4082
161.6000,1.4307
161.6010,1.455
161.6030,1.477
161.6030,1.5006
161.6040,1.5415
161.6050,1.5405
161.6050,1.5317
161.6061,1.5173
161.6061,1.471
161.6070,1.4466
161.6070,1.4183
161.6080,1.3988
161.6080,1.3834
161.6090,1.3849
161.6090,1.4012
161.6100,1.4395
161.6100,1.4607
161.6110,1.489
161.6110,1.5042
161.6120,1.498
161.6120,1.48
161.6130,1.4577
161.6130,1.4294
161.6140,1.3626
161.6140,1.3418
161.6150,1.3354
161.6150,1.3277
161.6160,1.3429
161.6160,1.3622
161.6160,1.3825
161.6170,1.402
161.6183,1.4397
161.6189,1.4438
161.6199,1.437
161.6199,1.4194
161.6209,1.3594
161.6209,1.3386
161.6221,1.3122
161.6221,1.2974
161.6229,1.2842
161.6229,1.281
161.6239,1.2945
161.6254,1.3099
161.6259,1.348
161.6259,1.3776
161.6269,1.3977
161.6328,1.3995
161.6328,1.3832
161.6338,1.3619
161.6344,1.338
161.6348,1.2945
161.6429,1.279
161.6579,1.2689
161.6727,1.2863
161.6776,1.3041
161.6787,1.3253
161.6787,1.3819
161.6797,1.3971
161.6797,1.4104
161.6797,1.402
161.6807,1.3731
161.6807,1.3549
161.6816,1.3414
161.6816,1.3167
161.6827,1.2912
161.6827,1.2932
161.6837,1.3045
161.6837,1.323
161.6846,1.3785
161.6856,1.4039
161.6866,1.4376
161.6866,1.4635
161.6878,1.4734
161.6878,1.4627
161.6886,1.446
161.6886,1.4286
161.6896,1.4025
161.6896,1.3739
161.6906,1.3694
161.6906,1.3729
161.6906,1.3958
161.6916,1.4224
161.6916,1.4552
161.6926,1.5126
161.6926,1.5379
161.6936,1.5494
161.6936,1.5482
161.6946,1.5179
161.6956,1.4995
161.6956,1.4762
161.6966,1.4556
161.6966,1.4192
161.7012,1.423
161.7020,1.4294
161.7030,1.4652
161.7030,1.4918
161.7080,1.5201
161.7090,1.5482
161.7100,1.5715
161.7100,1.5713
161.7110,1.5645
161.7152,1.539
161.7152,1.4931
161.7162,1.4697
161.7162,1.447
161.7172,1.4354
161.7222,1.429
161.7222,1.4444
161.7222,1.4629
161.7232,1.5075
161.7294,1.5353
161.7294,1.5593
161.7305,1.5705
161.7305,1.5467
161.7315,1.5246
161.7355,1.5062
161.7365,1.4811
161.7365,1.4294
161.7375,1.4159
161.7427,1.4117
161.7427,1.4301
161.7438,1.4442
161.7438,1.4674
161.7448,1.4922
161.7508,1.5377
161.7657,1.5449
161.7797,1.539
161.7828,1.5261
161.7877,1.486
161.7887,1.4601
161.7887,1.4342
161.7898,1.4115
161.7898,1.3973
161.7907,1.396
161.7907,1.4003
161.7917,1.4196
161.7917,1.4717
161.7927,1.4991
161.7927,1.5145
161.7937,1.5287
161.7937,1.5083
161.7937,1.488
161.7947,1.4644
161.7947,1.4099
161.7957,1.3883
161.7957,1.3733
161.7967,1.3673
161.7967,1.3862
161.7977,1.4046
161.7977,1.4267
161.7987,1.4479
161.7987,1.4942
161.7987,1.5062
161.7997,1.5004
161.7997,1.4865
161.8007,1.4421
161.8017,1.4074
161.8026,1.3885
161.8036,1.365
161.8036,1.3467
161.8036,1.344
161.8046,1.36
161.8046,1.3784
161.8056,1.4273
161.8056,1.4472
161.8100,1.4704
161.8100,1.4832
161.8110,1.4629
161.8110,1.4515
161.8120,1.4198
161.8160,1.3742
161.8170,1.3504
161.8179,1.3394
161.8179,1.3279
161.8239,1.3482
161.8239,1.3671
161.8249,1.3855
161.8249,1.4104
161.8259,1.4554
161.8301,1.459
161.8311,1.4603
161.8311,1.4492
161.8321,1.4067
161.8372,1.3851
161.8372,1.3602
161.8382,1.336
161.8382,1.3154
161.8392,1.3114
161.8435,1.3279
161.8442,1.3482
161.8442,1.3909
161.8453,1.417
161.8506,1.4382
161.8510,1.4573
161.8516,1.4372
161.8516,1.4168
161.8526,1.3917
161.8597,1.3694
161.8736,1.3204
161.8888,1.3054
161.8926,1.3013
161.8966,1.3232
161.8966,1.3352
161.8976,1.3579
161.8976,1.3819
161.8986,1.4245
161.8986,1.4395
161.8996,1.44
161.8996,1.4189
161.9006,1.3767
161.9019,1.3544
161.9025,1.3307
161.9025,1.3101
161.9038,1.2852
161.9045,1.287
161.9045,1.2987
161.9045,1.3169
161.9055,1.3568
161.9105,1.3815
161.9115,1.405
161.9115,1.4127
161.9125,1.3958
161.9125,1.3785
161.9125,1.3585
161.9135,1.3349
161.9135,1.2932
161.9145,1.2805
161.9145,1.2741
161.9155,1.2749
161.9155,1.3034
161.9165,1.318
161.9165,1.3369
161.9176,1.3634
161.9185,1.3999
161.9185,1.3952
161.9195,1.3827
161.9195,1.3656
161.9205,1.3174
161.9205,1.2964
161.9215,1.2756
161.9215,1.2612
161.9225,1.2587
161.9225,1.2675
161.9244,1.2818
161.9255,1.303
161.9255,1.3536
161.9265,1.3739
161.9315,1.3823
161.9315,1.3622
161.9326,1.3386
161.9326,1.3215
161.9335,1.2983
161.9378,1.264
161.9388,1.2555
161.9388,1.2544
161.9388,1.2531
161.9449,1.2675
161.9449,1.2814
161.9459,1.3011
161.9459,1.3214
161.9469,1.3439
161.9512,1.3339
161.9512,1.3122
161.9522,1.2904
161.9522,1.2559
161.9532,1.2458
161.9582,1.24
161.9582,1.2366
161.9592,1.2336
161.9592,1.236
161.9676,1.2398
161.9714,1.245
161.9875,1.263
162.0053,1.2786
162.0103,1.2846
162.0113,1.2857
162.0123,1.267
162.0123,1.2595
162.0133,1.2507
162.0143,1.2381
162.0143,1.2357
162.0143,1.2355
162.0153,1.2349
162.0153,1.2441
162.0163,1.2537
162.0163,1.2655
162.0178,1.2867
162.0183,1.3174
162.0193,1.3142
162.0203,1.3028
162.0213,1.2902
162.0213,1.2615
162.0213,1.2492
162.0223,1.2424
162.0223,1.2402
162.0233,1.2381
162.0233,1.239
162.0243,1.2447
162.0243,1.2524
162.0252,1.2795
162.0252,1.2974
162.0263,1.3073
162.0273,1.2964
162.0273,1.2794
162.0283,1.2674
162.0283,1.2546
162.0292,1.2392
162.0292,1.236
162.0302,1.2353
162.0302,1.2355
162.0312,1.2419
162.0312,1.2492
162.0322,1.2597
162.0322,1.2764
162.0332,1.3019
162.0332,1.3041
162.0342,1.2934
162.0342,1.2795
162.0352,1.2533
162.0363,1.2443
162.0392,1.2387
162.0392,1.2355
162.0402,1.2342
162.0402,1.2379
162.0412,1.2394
162.0454,1.2548
162.0462,1.2679
162.0462,1.2859
162.0462,1.2998
162.0472,1.2934
162.0525,1.2754
162.0532,1.263
162.0532,1.2516
162.0542,1.237
162.0604,1.2327
162.0604,1.2332
162.0614,1.2332
162.0614,1.2387
162.0614,1.2439
162.0656,1.2524
162.0667,1.2664
162.0676,1.2897
162.0676,1.2884
162.0736,1.2846
162.0795,1.2743
162.0935,1.2544
162.1084,1.2473
162.1184,1.2394
162.1204,1.2329
162.1214,1.2308
162.1214,1.2327
162.1224,1.2372
162.1224,1.2529
162.1234,1.2578
162.1244,1.2563
162.1244,1.2494
162.1254,1.2263
162.1254,1.2223
162.1264,1.2212
162.1273,1.2207
162.1273,1.2205
162.1283,1.2205
162.1293,1.2207
162.1303,1.2205
162.1303,1.2205
162.1313,1.2205
162.1323,1.234
162.1333,1.3185
162.1333,1.3215
162.1345,1.3219
162.1353,1.365
162.1363,1.4832
162.1363,1.7491
162.1374,1.8767
162.1374,1.8604
162.1384,1.7706
162.1384,1.7397
162.1384,1.7267
162.1394,1.729
162.1394,1.6954
162.1403,1.6934
162.1403,1.6883
162.1414,1.6757
162.1414,1.5837
162.1424,1.5389
162.1424,1.509
162.1424,1.3965
162.1434,1.338
162.1434,1.294
162.1443,1.263
162.1443,1.2456
162.1453,1.2454
162.1453,1.2544
162.1463,1.2599
162.1473,1.2792
162.1473,1.2927
162.1483,1.3049
162.1483,1.2884
162.1545,1.2608
162.1556,1.2497
162.1556,1.2415
162.1556,1.2351
162.1566,1.2295
162.1609,1.2289
162.1618,1.2302
162.1618,1.2317
162.1628,1.236
162.1678,1.2432
162.1687,1.2518
162.1687,1.2595
162.1698,1.2542
162.1698,1.2465
162.1742,1.2405
162.1752,1.2327
162.1752,1.2298
162.1752,1.228
162.1814,1.2274
162.1814,1.2274
162.1864,1.2287
162.2017,1.2315
162.2153,1.2342
162.2233,1.245
162.2243,1.2524
162.2254,1.2529
162.2264,1.2479
162.2274,1.2377
162.2274,1.233
162.2284,1.2308
162.2284,1.2278
162.2294,1.2269
162.2294,1.2265
162.2304,1.227
162.2304,1.2285
162.2314,1.2345
162.2314,1.24
162.2314,1.2477
162.2324,1.2546
162.2324,1.2497
162.2333,1.2454
162.2333,1.2419
162.2347,1.2329
162.2353,1.2297
162.2353,1.2278
162.2363,1.228
162.2363,1.2272
162.2373,1.2285
162.2383,1.2315
162.2383,1.2359
162.2383,1.2497
162.2393,1.2552
162.2393,1.2612
162.2403,1.255
162.2403,1.2392
162.2413,1.2353
162.2413,1.2321
162.2423,1.2293
162.2423,1.228
162.2423,1.2274
162.2433,1.2278
162.2433,1.2297
162.2445,1.2355
162.2445,1.2404
162.2491,1.2505
162.2491,1.2634
162.2501,1.2563
162.2511,1.2486
162.2511,1.2439
162.2555,1.2344
162.2563,1.2308
162.2563,1.2283
162.2574,1.2282
162.2625,1.2283
162.2633,1.2293
162.2633,1.2334
162.2643,1.2366
162.2643,1.2507
162.2688,1.257
162.2698,1.2632
162.2698,1.2574
162.2698,1.2402
162.2759,1.2359
162.2766,1.2338
162.2776,1.2298
162.2776,1.2269
162.2786,1.2267
162.2824,1.227
162.2824,1.2312
162.2834,1.234
162.2844,1.2366
162.2844,1.2413
162.2894,1.254
162.2894,1.2458
162.2904,1.2402
162.2904,1.2353
162.2964,1.2285
162.3103,1.2265
162.3248,1.2252
162.3312,1.224
162.3324,1.2242
162.3324,1.225
162.3333,1.2263
162.3333,1.2274
162.3345,1.2325
162.3359,1.2347
162.3362,1.236
162.3373,1.2349
162.3373,1.2278
162.3383,1.2265
162.3393,1.2248
162.3393,1.2233
162.3393,1.2227
162.3403,1.2225
162.3403,1.2225
162.3413,1.2238
162.3413,1.2248
162.3423,1.2263
162.3423,1.2287
162.3432,1.231
162.3432,1.2298
162.3432,1.2285
162.3443,1.227
162.3443,1.2242
162.3453,1.2227
162.3453,1.2225
162.3463,1.2229
162.3463,1.2225
162.3473,1.2231
162.3473,1.224
162.3473,1.2255
162.3483,1.2293
162.3483,1.2323
162.3492,1.2359
162.3502,1.2327
162.3512,1.2291
162.3512,1.227
162.3563,1.2259
162.3572,1.2248
162.3572,1.2233
162.3582,1.2233
162.3582,1.2242
162.3646,1.2257
162.3656,1.2306
162.3656,1.2345
162.3666,1.242
162.3718,1.2561
162.3718,1.2505
162.3729,1.2495
162.3729,1.2411
162.3739,1.2366
162.3780,1.2334
162.3789,1.233
162.3789,1.2366
162.3799,1.2409
162.3799,1.2497
162.3848,1.2638
162.3848,1.3125
162.3858,1.3358
162.3858,1.3547
162.3923,1.3551
162.3923,1.3274
162.3934,1.3052
162.3934,1.2932
162.3943,1.2777
162.3984,1.2655
162.3995,1.2689
162.3995,1.2782
162.4006,1.2974
162.4064,1.3392
162.4194,1.3673
162.4345,1.4005
162.4375,1.4247
162.4425,1.4314
162.4425,1.4185
162.4433,1.4048
162.4433,1.3559
162.4443,1.338
162.4443,1.3253
162.4453,1.314
162.4453,1.3172
162.4463,1.3382
162.4463,1.3589
162.4473,1.3864
162.4473,1.4361
162.4473,1.4601
162.4483,1.4783
162.4493,1.4695
162.4493,1.4277
162.4503,1.4063
162.4503,1.3915
162.4516,1.3622
162.4516,1.3317
162.4524,1.3283
162.4533,1.3386
162.4533,1.3821
162.4543,1.4054
162.4543,1.4301
162.4553,1.462
162.4553,1.4987
162.4563,1.4927
162.4563,1.4764
162.4573,1.4554
162.4573,1.4042
162.4583,1.3755
162.4583,1.3574
162.4593,1.3499
162.4593,1.3536
162.4603,1.3806
162.4603,1.3984
162.4663,1.4245
162.4663,1.4805
162.4674,1.4976
162.4686,1.5107
162.4696,1.4925
162.4728,1.47
162.4739,1.4477
162.4739,1.4247
162.4749,1.3853
162.4749,1.3615
162.4800,1.3632
162.4800,1.3664
162.4809,1.4123
162.4809,1.4322
162.4865,1.4565
162.4874,1.4946
162.4874,1.5349
162.4884,1.5195
162.4884,1.5036
162.4934,1.4867
162.4944,1.4474
162.4944,1.4247
162.4954,1.3999
162.5009,1.3894
162.5015,1.3939
162.5015,1.4153
162.5015,1.4357
162.5028,1.4543
162.5062,1.5173
162.5072,1.536
162.5072,1.5477
162.5083,1.5347
162.5151,1.512
162.5301,1.4875
162.5461,1.4693
162.5540,1.4209
162.5550,1.4136
162.5550,1.4089
162.5561,1.4198
162.5561,1.4629
162.5571,1.4865
162.5571,1.509
162.5581,1.537
162.5581,1.5782
162.5581,1.5728
162.5591,1.5524
162.5591,1.5368
162.5601,1.4922
162.5601,1.4689
162.5610,1.4468
162.5610,1.4419
162.5621,1.4402
162.5621,1.4571
162.5621,1.4822
162.5631,1.5372
162.5631,1.566
162.5641,1.5945
162.5641,1.6002
162.5651,1.5885
162.5651,1.567
162.5661,1.5424
162.5661,1.5194
162.5661,1.4766
162.5671,1.4631
162.5682,1.4661
162.5690,1.4642
162.5700,1.5023
162.5700,1.5312
162.5700,1.5569
162.5710,1.6125
162.5710,1.6221
162.5720,1.6244
162.5720,1.6094
162.5730,1.5666
162.5743,1.536
162.5750,1.5111
162.5750,1.4877
162.5760,1.4828
162.5812,1.4845
162.5823,1.5008
162.5823,1.5246
162.5833,1.5696
162.5833,1.6064
162.5882,1.6334
162.5892,1.6358
162.5892,1.6245
162.5892,1.5987
162.5952,1.5773
162.5962,1.5299
162.5962,1.5087
162.5973,1.4989
162.5974,1.506
162.6017,1.521
162.6017,1.5458
162.6029,1.5756
162.6029,1.5925
162.6084,1.6454
162.6084,1.6589
162.6095,1.6636
162.6095,1.645
162.6105,1.606
162.6148,1.5812
162.6157,1.5539
162.6157,1.5291
162.6168,1.5201
162.6168,1.5201
162.6270,1.5319
162.6412,1.5694
162.6567,1.5979
162.6620,1.6127
162.6627,1.6416
162.6627,1.6454
162.6637,1.623
162.6637,1.6026
162.6637,1.5683
162.6649,1.524
162.6649,1.4969
162.6659,1.4899
162.6659,1.4871
162.6669,1.4976
162.6669,1.5209
162.6682,1.5495
162.6689,1.5719
162.6689,1.6334
162.6701,1.6493
162.6701,1.6497
162.6712,1.6349
162.6712,1.6028
162.6722,1.5846
162.6722,1.5689
162.6722,1.5349
162.6732,1.546
162.6732,1.5355
162.6742,1.5584
162.6742,1.6097
162.6754,1.6253
162.6754,1.6636
162.6754,1.6832
162.6764,1.6952
162.6764,1.6814
162.6774,1.6718
162.6774,1.6279
162.6784,1.6052
162.6784,1.5788
162.6794,1.5629
162.6794,1.5659
162.6804,1.5788
162.6826,1.5972
162.6836,1.6281
162.6836,1.681
162.6846,1.7086
162.6901,1.7266
162.6901,1.7039
162.6912,1.6853
162.6912,1.6589
162.6924,1.633
162.6961,1.5949
162.6972,1.5773
162.6972,1.5769
162.6984,1.5805
162.7037,1.62
162.7041,1.642
162.7041,1.6666
162.7051,1.7191
162.7051,1.7249
162.7099,1.7282
162.7099,1.7189
162.7109,1.6836
162.7109,1.6589
162.7119,1.6414
162.7171,1.6097
162.7175,1.5908
162.7181,1.5908
162.7181,1.6026
162.7243,1.6538
162.7243,1.6786
162.7254,1.714
162.7254,1.7296
162.7266,1.7477
162.7343,1.7326
162.7488,1.7134
162.7640,1.6825
162.7683,1.6386
162.7725,1.6094
162.7725,1.6007
162.7736,1.6009
162.7736,1.6197
162.7746,1.6377
162.7746,1.6619
162.7755,1.7196
162.7755,1.7389
162.7765,1.7637
162.7765,1.7746
162.7775,1.7444
162.7777,1.7217
162.7777,1.7011
162.7788,1.6686
162.7788,1.6125
162.7798,1.6163
162.7798,1.6157
162.7808,1.6566
162.7808,1.6727
162.7808,1.6782
162.7818,1.6917
162.7818,1.6538
162.7829,1.6127
162.7829,1.5411
162.7829,1.4847
162.7840,1.3857
162.7849,1.3335
162.7859,1.2891
162.7870,1.2705
162.7870,1.3275
162.7870,1.4464
162.7882,1.7297
162.7882,1.9142
162.7882,1.9253
162.7892,1.9343
162.7892,1.9358
162.7902,2.0633
162.7915,2.1993
162.7922,2.3481
162.7922,2.3929
162.7934,2.2977
162.7988,2.2045
162.7989,2.128
162.8000,2.1136
162.8000,2.1171
162.8009,2.1479
162.8053,2.1588
162.8053,2.1211
162.8063,2.1019
162.8063,2.0635
162.8074,2.0206
162.8121,1.9112
162.8126,1.8751
162.8126,1.8256
162.8136,1.7543
162.8196,1.6772
162.8196,1.6536
162.8205,1.6527
162.8205,1.6617
162.8217,1.6966
162.8257,1.7273
162.8257,1.7511
162.8270,1.7663
162.8270,1.7483
162.8328,1.7384
162.8328,1.7127
162.8341,1.6536
162.8341,1.6229
162.8348,1.6049
162.8434,1.5912
162.8579,1.597
162.8733,1.6127
162.8803,1.6375
162.8806,1.6842
162.8813,1.699
162.8813,1.7267
162.8826,1.7359
162.8826,1.6917
162.8836,1.6641
162.8846,1.6493
162.8848,1.6234
162.8856,1.5764
162.8856,1.5674
162.8866,1.5722
162.8866,1.5809
162.8876,1.6242
162.8876,1.6471
162.8888,1.6746
162.8888,1.7196
162.8898,1.7267
162.8898,1.6997
162.8908,1.6954
162.8908,1.6502
162.8918,1.615
162.8918,1.5865
162.8928,1.5617
162.8928,1.569
162.8938,1.5822
162.8938,1.5921
162.8948,1.6427
162.8950,1.6682
162.8950,1.6964
162.8960,1.7106
162.8960,1.7048
162.8970,1.6926
162.8970,1.6714
162.8980,1.6416
162.8980,1.5962
162.8990,1.5726
162.8990,1.5675
162.9001,1.5645
162.9012,1.5949
162.9012,1.6172
162.9022,1.6429
162.9022,1.6716
162.9074,1.7041
162.9074,1.7072
162.9085,1.7011
162.9085,1.66
162.9146,1.6371
162.9208,1.6105
162.9208,1.5833
162.9218,1.5576
162.9218,1.5599
162.9228,1.5615
162.9228,1.5837
162.9238,1.6287
162.9238,1.6566
162.9279,1.6814
162.9279,1.7072
162.9290,1.6973
162.9290,1.6737
162.9300,1.6547
162.9340,1.6065
162.9350,1.5762
162.9350,1.5529
162.9360,1.5445
162.9418,1.5507
162.9418,1.5724
162.9428,1.5989
162.9428,1.6403
162.9438,1.6652
162.9518,1.6844
162.9667,1.6876
162.9837,1.6585
162.9877,1.6345
162.9887,1.6124
162.9887,1.5884
162.9897,1.5428
162.9897,1.5284
162.9907,1.5207
162.9907,1.5501
162.9917,1.5698
162.9917,1.5912
162.9927,1.6095
162.9927,1.6467
162.9937,1.6542
162.9937,1.6409
162.9937,1.6217
162.9947,1.5674
162.9955,1.5392
162.9956,1.5105
162.9956,1.4864
162.9967,1.465
162.9967,1.4729
162.9977,1.4879
162.9977,1.5289
162.9977,1.5477
162.9987,1.5726
162.9987,1.5872
162.9997,1.57
162.9997,1.5499
163.0007,1.5231
163.0016,1.495
163.0026,1.4432
163.0037,1.4112
163.0037,1.4007
163.0037,1.405
163.0047,1.4211
163.0047,1.4402
163.0056,1.462
163.0056,1.5156
163.0066,1.5357
163.0099,1.5437
163.0099,1.5321
163.0109,1.4849
163.0109,1.4607
163.0119,1.4374
163.0159,1.3823
163.0169,1.3802
163.0179,1.3815
163.0179,1.3943
163.0234,1.441
163.0234,1.4682
163.0245,1.5012
163.0245,1.5287
163.0255,1.5505
163.0297,1.5539
163.0305,1.5375
163.0316,1.5231
163.0316,1.4783
163.0368,1.4554
163.0368,1.4447
163.0378,1.4408
163.0378,1.4552
163.0388,1.4828
163.0431,1.5165
163.0439,1.5854
163.0439,1.6204
163.0450,1.6504
163.0450,1.6682
163.0508,1.6621
163.0509,1.6456
163.0509,1.6279
163.0519,1.612
163.0609,1.579
163.0758,1.5771
163.0908,1.5807
163.0943,1.6229
163.0987,1.6491
163.0988,1.6838
163.0998,1.7162
163.0998,1.7693
163.1008,1.7941
163.1009,1.7971
163.1028,1.7811
163.1028,1.7414
163.1037,1.7222
163.1037,1.6994
163.1047,1.6729
163.1047,1.6776
163.1047,1.6926
163.1057,1.7161
163.1057,1.7714
163.1067,1.7971
163.1067,1.8282
163.1077,1.8503
163.1077,1.8572
163.1087,1.8381
163.1087,1.8188
163.1087,1.7762
163.1097,1.7519
163.1097,1.7286
163.1107,1.7151
163.1107,1.741
163.1117,1.7695
163.1117,1.8149
163.1127,1.8419
163.1127,1.8646
163.1127,1.8769
163.1137,1.8441
163.1137,1.8244
163.1147,1.7993
163.1147,1.7783
163.1157,1.7277
163.1157,1.7132
163.1197,1.7147
163.1207,1.72
163.1207,1.7605
163.1217,1.7815
163.1227,1.8034
163.1267,1.855
163.1277,1.8584
163.1277,1.8539
163.1287,1.8329
163.1337,1.7864
163.1347,1.762
163.1359,1.7389
163.1369,1.7097
163.1379,1.6934
163.1400,1.7018
163.1409,1.7198
163.1409,1.7676
163.1409,1.7884
163.1422,1.8226
163.1471,1.8437
163.1471,1.8385
163.1484,1.8205
163.1484,1.8008
163.1545,1.7717
163.1545,1.7228
163.1556,1.6934
163.1556,1.6846
163.1566,1.6876
163.1606,1.7125
163.1616,1.7344
163.1616,1.7627
163.1626,1.7777
163.1674,1.8265
163.1684,1.8301
163.1684,1.8254
163.1696,1.7896
163.1704,1.7637
163.1738,1.7367
163.1749,1.708
163.1749,1.6757
163.1749,1.6742
163.1827,1.6793
163.1867,1.6937
163.2012,1.7365
163.2190,1.7607
163.2243,1.7935
163.2243,1.8111
163.2253,1.8083
163.2253,1.7948
163.2263,1.7761
163.2263,1.7509
163.2273,1.7012
163.2273,1.6767
163.2283,1.6682
163.2286,1.669
163.2286,1.6885
163.2296,1.7114
163.2296,1.7374
163.2306,1.7946
163.2306,1.8156
163.2316,1.8267
163.2316,1.8229
163.2326,1.7821
163.2326,1.7581
163.2326,1.7363
163.2338,1.711
163.2348,1.6737
163.2358,1.6748
163.2358,1.6763
163.2368,1.7056
163.2368,1.7303
163.2378,1.756
163.2378,1.7897
163.2388,1.8194
163.2388,1.8117
163.2388,1.7969
163.2400,1.7785
163.2400,1.7344
163.2411,1.7084
163.2411,1.6861
163.2420,1.6787
163.2420,1.6786
163.2430,1.6975
163.2430,1.7177
163.2440,1.7656
163.2440,1.7946
163.2440,1.8132
163.2497,1.8145
163.2497,1.8016
163.2508,1.7847
163.2517,1.7624
163.2527,1.7174
163.2565,1.6896
163.2565,1.6754
163.2578,1.6671
163.2578,1.6913
163.2633,1.7102
163.2633,1.7363
163.2643,1.7599
163.2643,1.8117
163.2653,1.8188
163.2692,1.8091
163.2702,1.7719
163.2702,1.7502
163.2712,1.7196
163.2757,1.6937
163.2767,1.6536
163.2777,1.6495
163.2777,1.6506
163.2777,1.6639
163.2830,1.7042
163.2841,1.7217
163.2841,1.7476
163.2850,1.7654
163.2850,1.7686
163.2955,1.7498
163.3239,1.7297
163.3274,1.6759
163.3322,1.6497
163.3332,1.6247
163.3332,1.6088
163.3342,1.6129
163.3348,1.6317
163.3352,1.66
163.3362,1.6857
163.3362,1.7449
163.3372,1.7751
163.3382,1.7924
163.3382,1.7687
163.3391,1.7509
163.3402,1.7361
163.3402,1.7183
163.3402,1.6684
163.3412,1.6469
163.3412,1.6471
163.3422,1.6546
163.3422,1.6939
163.3433,1.7181
163.3433,1.7442
163.3433,1.7762
163.3444,1.8156
163.3444,1.8106
163.3454,1.7965
163.3454,1.7496
163.3464,1.7243
163.3464,1.7014
163.3464,1.6731
163.3474,1.6564
163.3474,1.6562
163.3486,1.6741
163.3486,1.6952
163.3486,1.7492
163.3496,1.7753
163.3508,1.7984
163.3516,1.8092
163.3526,1.7824
163.3526,1.7661
163.3538,1.7447
163.3538,1.6967
163.3549,1.672
163.3582,1.6574
163.3592,1.6564
163.3592,1.6718
163.3602,1.6975
163.3602,1.7282
163.3642,1.7506
163.3653,1.8061
163.3662,1.819
163.3674,1.8111
163.3711,1.7971
163.3721,1.756
163.3731,1.7217
163.3731,1.702
163.3741,1.6546
163.3781,1.6538
163.3791,1.6577
163.3791,1.6765
163.3801,1.7189
163.3811,1.7429
163.3851,1.7716
163.3861,1.795
163.3871,1.8038
163.3881,1.7888
163.3921,1.7708
163.3931,1.7296
163.3941,1.7046
163.3941,1.6784
163.3951,1.6643
163.4070,1.6577
163.4250,1.6741
163.4495,1.6937
163.4589,1.7153
163.4599,1.7815
163.4599,1.8072
163.4610,1.8293
163.4619,1.8284
163.4619,1.7674
163.4629,1.7404
163.4639,1.7189
163.4649,1.6679
163.4649,1.6662
163.4659,1.6619
163.4659,1.6315
163.4669,1.6217
163.4679,1.5876
163.4689,1.5432
163.4699,1.5094
163.4709,1.4779
163.4719,1.4269
163.4729,1.3635
163.4739,1.3092
163.4749,1.2645
163.4759,1.2593
163.4759,1.266
163.4769,1.4629
163.4779,1.8304
163.4789,1.8076
163.4799,1.792
163.4809,1.7984
163.4818,1.9801
163.4818,2.1366
163.4828,2.3526
163.4838,2.4378
163.4838,2.3755
163.4851,2.29
163.4858,2.2289
163.4858,2.1471
163.4868,2.1113
163.4868,2.1089
163.4878,2.0871
163.4878,2.0614
163.4888,2.0586
163.4898,2.0489
163.4898,2.0378
163.4908,2.0311
163.4908,2.0003
163.4918,1.9429
163.4918,1.8871
163.4928,1.7723
163.4931,1.7309
163.4931,1.6797
163.4938,1.6469
163.4938,1.6362
163.4948,1.648
163.4948,1.6609
163.4958,1.7037
163.4958,1.7335
163.4958,1.7558
163.4968,1.7682
163.4968,1.7401
163.4978,1.7174
163.4978,1.6934
163.4988,1.6675
163.4988,1.6058
163.4988,1.5829
163.4988,1.5743
163.4998,1.575
163.5008,1.6022
163.5008,1.6275
163.5008,1.6521
163.5018,1.6999
163.5058,1.7174
163.5068,1.7172
163.5068,1.7076
163.5078,1.6637
163.5148,1.6365
163.5251,1.611
163.5387,1.5775
163.5397,1.5595
163.5407,1.558
163.5407,1.5724
163.5407,1.5897
163.5417,1.6362
163.5417,1.6647
163.5427,1.6892
163.5427,1.6967
163.5447,1.6889
163.5477,1.6709
163.5487,1.6484
163.5487,1.5949
163.5487,1.5674
163.5497,1.548
163.5497,1.5379
163.5507,1.5522
163.5507,1.5709
163.5517,1.5979
163.5517,1.6232
163.5527,1.6774
163.5527,1.6936
163.5527,1.6952
163.5537,1.6842
163.5537,1.6388
163.5537,1.6152
163.5546,1.587
163.5546,1.5602
163.5546,1.5321
163.5556,1.5302
163.5606,1.5458
163.5606,1.5653
163.5616,1.6142
163.5616,1.6403
163.5616,1.6677
163.5666,1.6913
163.5676,1.6744
163.5682,1.6559
163.5686,1.6341
163.5686,1.587
163.5746,1.5524
163.5746,1.5345
163.5746,1.5242
163.5746,1.5456
163.5816,1.5621
163.5816,1.5874
163.5816,1.6077
163.5816,1.6592
163.5826,1.6793
163.5876,1.6823
163.5876,1.6697
163.5886,1.6274
163.5886,1.6
163.5945,1.5767
163.5945,1.5452
163.5955,1.5173
163.5955,1.5143
163.5955,1.5291
163.6012,1.5713
163.6015,1.5942
163.6015,1.6229
163.6025,1.6497
163.6075,1.6622
163.6085,1.6471
163.6085,1.6319
163.6095,1.6114
163.6095,1.5572
163.6145,1.5284
163.6145,1.5074
163.6145,1.5042
163.6155,1.5111
163.6155,1.5254
163.6225,1.5507
163.6308,1.5985
163.6374,1.621
163.6424,1.6386
163.6454,1.6379
163.6454,1.6034
163.6464,1.5773
163.6464,1.5531
163.6464,1.5304
163.6464,1.4674
163.6474,1.4547
163.6474,1.4475
163.6474,1.4541
163.6474,1.4867
163.6484,1.5066
163.6484,1.5342
163.6484,1.5599
163.6484,1.5685
163.6494,1.5595
163.6494,1.5405
163.6494,1.4837
163.6504,1.4575
163.6558,1.4235
163.6558,1.4033
163.6564,1.3979
163.6564,1.3988
163.6564,1.4155
163.6614,1.4374
163.6624,1.4927
163.6624,1.5194
163.6624,1.5374
163.6634,1.5409
163.6693,1.512
163.6693,1.4877
163.6693,1.4571
163.6693,1.4348
163.6763,1.3894
163.6763,1.377
163.6763,1.3735
163.6773,1.3802
163.6773,1.4286
163.6823,1.4485
163.6823,1.4755
163.6833,1.5224
163.6833,1.5269
163.6893,1.5218
163.6893,1.506
163.6903,1.4693
163.6903,1.4466
163.6903,1.4232
163.6953,1.4072
163.6963,1.4048
163.6963,1.4237
163.6963,1.4455
163.7023,1.4736
163.7033,1.5402
163.7033,1.5734
163.7033,1.6009
163.7042,1.6116
163.7092,1.5923
163.7092,1.5762
163.7102,1.5585
163.7102,1.5164
163.7102,1.5008
163.7165,1.4935
163.7172,1.4974
163.7172,1.5405
163.7172,1.5666
163.7236,1.5979
163.7236,1.6277
163.7242,1.687
163.7242,1.6971
163.7242,1.6909
163.7312,1.6746
163.7402,1.636
163.7481,1.6165
163.7501,1.5925
163.7531,1.5745
163.7531,1.5644
163.7541,1.5741
163.7541,1.5934
163.7541,1.6392
163.7551,1.6632
163.7551,1.6939
163.7551,1.7136
163.7561,1.7151
163.7561,1.6992
163.7561,1.6821
163.7571,1.6609
163.7571,1.6084
163.7571,1.5895
163.7581,1.585
163.7581,1.5818
163.7581,1.5994
163.7591,1.6202
163.7591,1.6435
163.7641,1.6705
163.7641,1.7146
163.7641,1.7207
163.7650,1.7183
163.7711,1.6752
163.7711,1.648
163.7711,1.624
163.7721,1.5947
163.7721,1.557
163.7771,1.552
163.7771,1.5653
163.7781,1.5825
163.7781,1.6285
163.7843,1.6607
163.7850,1.684
163.7850,1.7016
163.7860,1.7037
163.7860,1.6902
163.7902,1.6645
163.7912,1.6169
163.7912,1.5859
163.7912,1.563
163.7973,1.5486
163.7983,1.5569
163.7983,1.575
163.7983,1.6013
163.7993,1.6304
163.8043,1.6761
163.8043,1.6986
163.8043,1.7093
163.8053,1.6997
163.8053,1.66
163.8111,1.6334
163.8111,1.6086
163.8121,1.5779
163.8121,1.5394
163.8182,1.537
163.8182,1.5486
163.8192,1.5659
163.8196,1.62
163.8196,1.6407
163.8263,1.6675
163.8263,1.6962
163.8273,1.6851
163.8273,1.6478
163.8332,1.6007
163.8342,1.5765
163.8342,1.5512
163.8342,1.5413
163.8352,1.546
163.8403,1.5599
163.8442,1.5852
163.8483,1.6356
163.8552,1.666
163.8638,1.6917
163.8655,1.6988
163.8674,1.6709
163.8681,1.6467
163.8681,1.6268
163.8691,1.5735
163.8691,1.5482
163.8691,1.5353
163.8701,1.5364
163.8701,1.5529
163.8701,1.576
163.8701,1.5989
163.8701,1.6268
163.8711,1.6782
163.8711,1.6861
163.8711,1.6831
163.8721,1.645
163.8721,1.6191
163.8721,1.596
163.8741,1.5702
163.8741,1.5344
163.8741,1.5351
163.8751,1.5409
163.8809,1.5578
163.8819,1.6032
163.8819,1.6328
163.8819,1.663
163.8819,1.6832
163.8870,1.6847
163.8879,1.6669
163.8879,1.6504
163.8889,1.59
163.8939,1.5687
163.8949,1.5505
163.8949,1.5407
163.8959,1.5381
163.8959,1.5535
163.9011,1.5788
163.9011,1.6067
163.9019,1.657
163.9029,1.6746
163.9029,1.6898
163.9079,1.6656
163.9088,1.6431
163.9088,1.6223
163.9098,1.596
163.9148,1.5465
163.9158,1.5285
163.9158,1.5235
163.9158,1.5402
163.9168,1.5739
163.9218,1.5979
163.9248,1.6236
163.9248,1.6493
163.9258,1.6808
163.9288,1.6741
163.9288,1.66
163.9288,1.624
163.9298,1.5985
163.9298,1.5713
163.9349,1.5441
163.9349,1.5317
163.9359,1.5385
163.9359,1.5552
163.9359,1.5767
163.9359,1.6221
163.9359,1.6531
163.9359,1.6784
163.9359,1.6936
163.9450,1.6622
163.9450,1.6388
163.9450,1.614
163.9450,1.5848
163.9450,1.522
163.9577,1.5047
163.9587,1.5034
163.9587,1.5137
163.9587,1.5323
163.9662,1.5563
163.9752,1.5835
163.9772,1.635
163.9791,1.642
163.9799,1.6414
163.9801,1.6193
163.9801,1.5794
163.9801,1.5501
163.9801,1.5274
163.9811,1.5021
163.9811,1.48
163.9811,1.4862
163.9811,1.5027
163.9821,1.5287
163.9825,1.5852
163.9825,1.6184
163.9831,1.6381
163.9831,1.6527
163.9891,1.6409
163.9901,1.6305
163.9901,1.6139
163.9901,1.561
163.9911,1.5323
163.9961,1.5233
163.9961,1.5197
163.9961,1.5404
163.9961,1.5621
163.9971,1.591
164.0031,1.6157
164.0031,1.6611
164.0031,1.6778
164.0041,1.6799
164.0101,1.6396
164.0101,1.6139
164.0111,1.5932
164.0111,1.5707
164.0111,1.5282
164.0165,1.5248
164.0170,1.525
164.0170,1.5432
164.0170,1.5893
164.0230,1.6125
164.0240,1.6465
164.0240,1.6727
164.0240,1.6861
164.0250,1.6699
164.0301,1.6529
164.0301,1.6317
164.0301,1.5805
164.0310,1.5569
164.0370,1.5443
164.0370,1.5405
164.0370,1.554
164.0380,1.5795
164.0380,1.6043
164.0434,1.657
164.0434,1.6844
164.0440,1.6988
164.0440,1.6979
164.0440,1.6673
164.0506,1.642
164.0510,1.6184
164.0510,1.5914
164.0510,1.5415
164.0569,1.5349
164.0579,1.5435
164.0579,1.584
164.0579,1.5987
164.0589,1.6302
164.0652,1.6534
164.0669,1.6954
164.0749,1.6919
164.0829,1.6834
164.0849,1.6649
164.0869,1.6097
164.0869,1.5929
164.0879,1.5705
164.0879,1.5499
164.0879,1.5494
164.0879,1.5687
164.0879,1.594
164.0889,1.6184
164.0889,1.6703
164.0889,1.6834
164.0889,1.6857
164.0889,1.6677
164.0889,1.6544
164.0909,1.6294
164.0909,1.6107
164.0909,1.5246
164.0909,1.474
164.0909,1.4363
164.0978,1.3703
164.0978,1.2786
164.0978,1.2657
164.0978,1.2539
164.1050,1.2409
164.1050,1.2349
164.1058,1.2351
164.1058,1.2317
164.1058,1.2287
164.1113,1.348
164.1118,1.5947
164.1118,1.6726
164.1118,1.6411
164.1182,1.5855
164.1192,1.7243
164.1192,1.831
164.1192,1.9832
164.1192,2.3123
164.1242,2.3369
164.1252,2.3433
164.1252,2.2686
164.1252,2.2311
164.1313,2.1974
164.1323,2.122
164.1323,2.0162
164.1333,1.9767
164.1333,1.9525
164.1383,1.9105
164.1383,1.8827
164.1393,1.8893
164.1393,1.8796
164.1393,1.8726
164.1453,1.8379
164.1463,1.8008
164.1463,1.7554
164.1463,1.7022
164.1523,1.6666
164.1533,1.6315
164.1533,1.591
164.1533,1.5627
164.1543,1.5602
164.1593,1.5782
164.1593,1.5987
164.1593,1.6394
164.1602,1.6658
164.1660,1.6829
164.1663,1.6907
164.1663,1.6675
164.1673,1.6457
164.1673,1.623
164.1723,1.5647
164.1723,1.5394
164.1723,1.5248
164.1723,1.5143
164.1804,1.5235
164.1884,1.5454
164.1964,1.5662
164.1984,1.6199
164.2014,1.6441
164.2024,1.6634
164.2024,1.6641
164.2024,1.6219
164.2034,1.5972
164.2034,1.5756
164.2034,1.5501
164.2044,1.4991
164.2044,1.4959
164.2044,1.494
164.2044,1.5132
164.2054,1.5529
164.2054,1.5782
164.2054,1.609
164.2064,1.6435
164.2064,1.6471
164.2064,1.6347
164.2074,1.6176
164.2074,1.5675
164.2133,1.5428
164.2133,1.5107
164.2143,1.4965
164.2143,1.4895
164.2143,1.5055
164.2200,1.5218
164.2203,1.5713
164.2203,1.6011
164.2203,1.6302
164.2263,1.6478
164.2273,1.6375
164.2273,1.6174
164.2273,1.6004
164.2283,1.5756
164.2333,1.5227
164.2338,1.5079
164.2343,1.5075
164.2343,1.4995
164.2353,1.5315
164.2406,1.554
164.2406,1.5801
164.2413,1.632
164.2413,1.6474
164.2472,1.6559
164.2482,1.6427
164.2482,1.6035
164.2482,1.5786
164.2482,1.5574
164.2542,1.5265
164.2542,1.5042
164.2542,1.5032
164.2552,1.5192
164.2612,1.558
164.2612,1.5829
164.2612,1.614
164.2622,1.6403
164.2622,1.6504
164.2676,1.6396
164.2682,1.6272
164.2682,1.6028
164.2692,1.5599
164.2748,1.5239
164.2752,1.5105
164.2752,1.5006
164.2752,1.5126
164.2762,1.5276
164.2812,1.5555
164.2812,1.6
164.2812,1.6266
164.2822,1.6471
164.2822,1.6476
164.2901,1.6094
164.2940,1.5861
164.3002,1.5584
164.3368,1.5374
164.3368,1.4847
164.3368,1.4736
164.3368,1.4742
164.3368,1.5062
164.3368,1.5207
164.3368,1.546
164.3368,1.5722
164.3368,1.612
164.3368,1.6137
164.3368,1.5998
164.3368,1.5784
164.3368,1.5248
164.3368,1.4985
164.3368,1.4663
164.3368,1.431
164.3368,1.4267
164.3368,1.4325
164.3368,1.4457
164.3368,1.4899
164.3368,1.5143
164.3368,1.5404
164.3368,1.5567
164.3368,1.5464
164.3368,1.5299
164.3368,1.5038
164.3368,1.4759
164.3368,1.4164
164.3368,1.4007
164.3368,1.3954
164.3368,1.3965
164.3505,1.4157
164.3505,1.4374
164.3505,1.4625
164.3505,1.5117
164.3505,1.5242
164.3515,1.53
164.3515,1.5239
164.3515,1.4852
164.3515,1.4631
164.3515,1.4397
164.3515,1.3904
164.3515,1.381
164.3515,1.3787
164.3515,1.3907
164.3515,1.4314
164.3515,1.462
164.3515,1.4924
164.3515,1.5154
164.3515,1.5434
164.3515,1.536
164.3671,1.5248
164.3671,1.5107
164.3671,1.4685
164.3671,1.4492
164.3671,1.437
164.3671,1.4333
164.3671,1.4496
164.3671,1.4768
164.3671,1.507
164.3671,1.5679
164.3831,1.5983
164.3831,1.6245
164.3841,1.6411
164.3863,1.6191
164.3863,1.6034
164.3863,1.588
164.3863,1.5634
164.3863,1.5227
164.3863,1.5158
164.3975,1.5218
164.3986,1.5623
164.3986,1.5882
164.3986,1.6144
164.4051,1.6426
164.4131,1.6994
164.4170,1.7041
164.4188,1.6988
164.4218,1.6836
164.4218,1.6401
164.4228,1.6169
164.4228,1.594
164.4228,1.5615
164.4228,1.567
164.4238,1.5779
164.4240,1.5998
164.4240,1.6514
164.4240,1.6801
164.4247,1.7084
164.4247,1.7269
164.4247,1.7213
164.4257,1.7046
164.4257,1.6842
164.4311,1.6311
164.4311,1.6084
164.4317,1.5839
164.4317,1.5771
164.4377,1.5882
164.4387,1.6035
164.4387,1.6309
164.4387,1.6531
164.4397,1.7087
164.4447,1.7311
164.4447,1.7341
164.4447,1.7296
164.4457,1.6864
164.4517,1.6613
164.4517,1.636
164.4517,1.5842
164.4527,1.5762
164.4527,1.5818
164.4577,1.5854
164.4587,1.6281
164.4587,1.6534
164.4587,1.6804
164.4646,1.7108
164.4656,1.7296
164.4656,1.7247
164.4656,1.7056
164.4666,1.6529
164.4716,1.6285
164.4716,1.6058
164.4726,1.5842
164.4726,1.57
164.4736,1.5801
164.4786,1.5979
164.4786,1.6229
164.4786,1.6709
164.4796,1.6996
164.4856,1.7249
164.4856,1.7241
164.4866,1.7067
164.4866,1.6816
164.4866,1.6587
164.4926,1.6054
164.4926,1.5824
164.4926,1.5702
164.4936,1.5689
164.4996,1.5925
164.4996,1.6133
164.4996,1.6441
164.5006,1.6966
164.5006,1.7204
164.5055,1.7281
164.5055,1.7204
164.5065,1.6831
164.5065,1.6585
164.5125,1.6322
164.5185,1.6047
164.5285,1.5715
164.5305,1.5728
164.5315,1.5809
164.5315,1.6208
164.5315,1.6484
164.5325,1.6748
164.5325,1.7016
164.5325,1.735
164.5325,1.7168
164.5335,1.699
164.5335,1.6804
164.5339,1.6302
164.5345,1.6039
164.5345,1.5874
164.5345,1.5724
164.5355,1.5786
164.5355,1.5994
164.5394,1.6199
164.5404,1.669
164.5404,1.6962
164.5404,1.7181
164.5464,1.7279
164.5474,1.7097
164.5474,1.6911
164.5484,1.6679
164.5484,1.6501
164.5535,1.591
164.5535,1.5818
164.5544,1.5809
164.5544,1.6024
164.5624,1.6259
164.5624,1.6557
164.5624,1.7342
164.5624,1.7479
164.5634,1.7444
164.5684,1.708
164.5684,1.6847
164.5694,1.6585
164.5694,1.6296
164.5694,1.5899
164.5753,1.5925
164.5753,1.599
164.5763,1.611
164.5763,1.6579
164.5823,1.6838
164.5833,1.7112
164.5838,1.7536
164.5838,1.7511
164.5843,1.7316
164.5893,1.7132
164.5893,1.6636
164.5893,1.6341
164.5903,1.6144
164.5963,1.597
164.5963,1.6077
164.5963,1.6229
164.5973,1.6491
164.5973,1.6722
164.6027,1.7245
164.6033,1.7537
164.6033,1.7566
164.6033,1.7356
164.6093,1.7136
164.6103,1.6906
164.6103,1.6718
164.6103,1.6257
164.6103,1.6077
164.6162,1.6005
164.6182,1.6022
164.6268,1.6437
164.6352,1.6759
164.6372,1.6971
164.6392,1.7297
164.6402,1.7596
164.6402,1.7605
164.6402,1.747
164.6402,1.7007
164.6412,1.6748
164.6412,1.6433
164.6412,1.6165
164.6412,1.594
164.6422,1.5878
164.6422,1.6017
164.6422,1.6157
164.6422,1.6574
164.6435,1.6827
164.6442,1.7046
164.6442,1.7213
164.6442,1.7035
164.6442,1.6786
164.6502,1.6502
164.6502,1.6244
164.6512,1.5694
164.6512,1.56
164.6571,1.5595
164.6571,1.5752
164.6581,1.6028
164.6581,1.6335
164.6581,1.6587
164.6631,1.7228
164.6641,1.7326
164.6641,1.735
164.6641,1.7211
164.6641,1.6834
164.6701,1.6585
164.6711,1.6371
164.6711,1.6206
164.6711,1.5998
164.6781,1.606
164.6781,1.6234
164.6781,1.669
164.6781,1.6889
164.6791,1.7191
164.6841,1.7502
164.6841,1.7676
164.6851,1.7554
164.6851,1.7316
164.6915,1.7074
164.6915,1.6542
164.6920,1.6311
164.6920,1.6122
164.6920,1.6195
164.6980,1.6317
164.6980,1.6574
164.6980,1.6831
164.6980,1.7348
164.7050,1.7579
164.7050,1.774
164.7050,1.7697
164.7050,1.7363
164.7060,1.7134
164.7113,1.687
164.7113,1.6349
164.7120,1.6174
164.7120,1.6161
164.7130,1.6199
164.7180,1.6591
164.7190,1.6847
164.7190,1.714
164.7190,1.7414
164.7269,1.7785
164.7289,1.7751
164.7373,1.762
164.7459,1.7425
164.7475,1.6928
164.7499,1.6712
164.7499,1.6441
164.7505,1.6313
164.7509,1.626
164.7509,1.6448
164.7509,1.6673
164.7519,1.7164
164.7519,1.7421
164.7519,1.7648
164.7519,1.7738
164.7529,1.7605
164.7529,1.7408
164.7529,1.7189
164.7539,1.675
164.7539,1.6512
164.7539,1.6433
164.7539,1.6384
164.7549,1.6493
164.7590,1.6729
164.7590,1.6977
164.7590,1.7249
164.7599,1.7911
164.7599,1.8147
164.7658,1.8036
164.7658,1.7813
164.7668,1.7136
164.7671,1.6928
164.7733,1.6759
164.7738,1.6452
164.7738,1.6302
164.7738,1.6165
164.7748,1.6026
164.7798,1.5351
164.7798,1.4871
164.7798,1.4445
164.7808,1.4258
164.7868,1.3112
164.7868,1.2696
164.7868,1.2443
164.7876,1.2381
164.7876,1.2278
164.7930,1.2338
164.7930,1.3236
164.7930,1.7179
164.7940,1.7241
164.8000,1.7084
164.8004,1.7228
164.8010,1.9954
164.8010,2.1535
164.8010,2.3571
164.8060,2.4498
164.8060,2.4004
164.8070,2.3433
164.8070,2.2891
164.8070,2.2429
164.8129,2.1325
164.8139,2.0991
164.8139,2.0802
164.8139,2.0568
164.8209,2.0446
164.8209,2.035
164.8209,2.0457
164.8219,2.0427
164.8219,2.0011
164.8269,1.9576
164.8269,1.8998
164.8279,1.7732
164.8279,1.7316
164.8343,1.7016
164.8370,1.663
164.8389,1.6504
164.8479,1.6643
164.8568,1.687
164.8589,1.7266
164.8611,1.7543
164.8611,1.7776
164.8618,1.7882
164.8618,1.762
164.8618,1.7372
164.8618,1.7093
164.8628,1.6782
164.8628,1.6159
164.8628,1.5945
164.8628,1.5929
164.8638,1.5994
164.8638,1.6172
164.8638,1.6442
164.8638,1.6682
164.8648,1.717
164.8648,1.7299
164.8648,1.7337
164.8678,1.7185
164.8688,1.6722
164.8688,1.6486
164.8688,1.6195
164.8688,1.5869
164.8748,1.5709
164.8748,1.5668
164.8748,1.5794
164.8748,1.6022
164.8818,1.6469
164.8818,1.6761
164.8818,1.7027
164.8828,1.7288
164.8828,1.7099
164.8877,1.6924
164.8877,1.6692
164.8887,1.6223
164.8887,1.594
164.8947,1.5775
164.8947,1.5722
164.8957,1.5848
164.8957,1.6026
164.8957,1.6257
164.9007,1.6499
164.9017,1.7042
164.9017,1.7305
164.9017,1.7305
164.9027,1.7161
164.9087,1.6759
164.9087,1.6516
164.9087,1.629
164.9087,1.5825
164.9157,1.5698
164.9157,1.5666
164.9157,1.5844
164.9167,1.6311
164.9171,1.6531
164.9217,1.6821
164.9227,1.7093
164.9227,1.7341
164.9227,1.7172
164.9286,1.7031
164.9316,1.6712
164.9326,1.6208
164.9326,1.5974
164.9326,1.5777
164.9356,1.572
164.9356,1.5831
164.9356,1.6022
164.9356,1.6247
164.9416,1.6806
164.9426,1.7065
164.9426,1.7226
164.9436,1.7228
164.9436,1.693
164.9516,1.6718
164.9576,1.6427
164.9645,1.617
164.9668,1.563
164.9695,1.5614
164.9695,1.56
164.9695,1.572
164.9705,1.6142
164.9705,1.6367
164.9705,1.6694
164.9705,1.6971
164.9715,1.7177
164.9715,1.7063
164.9715,1.6876
164.9715,1.6561
164.9725,1.6054
164.9725,1.5715
164.9725,1.5501
164.9765,1.5477
164.9765,1.5572
164.9765,1.5764
164.9765,1.5977
164.9775,1.6411
164.9825,1.6621
164.9825,1.6746
164.9835,1.6744
164.9838,1.6463
164.9895,1.6189
164.9895,1.5921
164.9905,1.5672
164.9905,1.5032
164.9905,1.4955
164.9955,1.4976
164.9965,1.5032
164.9965,1.5387
164.9965,1.5614
164.9975,1.5824
165.0034,1.6154
165.0034,1.6195
165.0034,1.6037
165.0044,1.5827
165.0104,1.5291
165.0104,1.5002
165.0104,1.4706
165.0114,1.4513
165.0114,1.4352
165.0164,1.4489
165.0174,1.4614
165.0174,1.477
165.0174,1.5312
165.0234,1.5644
165.0234,1.5944
165.0244,1.596
165.0244,1.5599
165.0254,1.5375
165.0304,1.5117
165.0304,1.4573
165.0304,1.4327
165.0314,1.426
165.0373,1.4249
165.0373,1.4524
165.0373,1.4768
165.0373,1.5023
165.0383,1.5342
165.0433,1.5891
165.0433,1.5897
165.0443,1.5844
165.0443,1.567
165.0443,1.5244
165.0533,1.506
165.0593,1.48
165.0663,1.4639
165.0683,1.4654
165.0712,1.4849
165.0713,1.5122
165.0713,1.5679
165.0713,1.5979
165.0722,1.6394
165.0722,1.6615
165.0722,1.6652
165.0732,1.6559
165.0732,1.6377
165.0732,1.6244
165.0732,1.5765
165.0742,1.5546
165.0742,1.557
165.0742,1.5629
165.0772,1.5979
165.0772,1.6255
165.0782,1.6534
165.0782,1.6883
165.0842,1.7427
165.0852,1.7502
165.0852,1.7489
165.0852,1.7185
165.0862,1.7012
165.0902,1.6885
165.0912,1.6553
165.0912,1.6262
165.0912,1.6232
165.0922,1.6343
165.0982,1.6538
165.0982,1.7067
165.0982,1.7365
165.0982,1.7691
165.1052,1.7836
165.1052,1.7792
165.1062,1.7648
165.1062,1.7502
165.1062,1.7252
165.1111,1.6649
165.1111,1.6465
165.1121,1.6412
165.1121,1.6459
165.1186,1.6585
165.1186,1.6821
165.1191,1.7084
165.1191,1.7609
165.1191,1.7759
165.1251,1.7869
165.1251,1.7815
165.1251,1.7442
165.1251,1.7207
165.1321,1.6981
165.1321,1.6724
165.1321,1.6412
165.1331,1.6322
165.1331,1.642
165.1381,1.6585
165.1381,1.7059
165.1391,1.7301
165.1391,1.7571
165.1391,1.7905
165.1451,1.7811
165.1451,1.7676
165.1461,1.7507
165.1461,1.7041
165.1550,1.66
165.1570,1.6403
165.1660,1.6326
165.1743,1.6264
165.1760,1.6403
165.1784,1.6652
165.1790,1.6904
165.1790,1.744
165.1790,1.7676
165.1790,1.7783
165.1800,1.7665
165.1800,1.7269
165.1800,1.7024
165.1800,1.6831
165.1810,1.6313
165.1810,1.6155
165.1810,1.6142
165.1820,1.6244
165.1820,1.6634
165.1820,1.6913
165.1820,1.7166
165.1830,1.747
165.1830,1.7727
165.1850,1.7646
165.1859,1.7462
165.1859,1.7256
165.1859,1.6741
165.1869,1.6454
165.1929,1.6279
165.1929,1.6144
165.1929,1.6154
165.1939,1.6349
165.2000,1.6534
165.2000,1.708
165.2000,1.7369
165.2010,1.7607
165.2019,1.7669
165.2062,1.7446
165.2062,1.7162
165.2062,1.696
165.2072,1.6787
165.2135,1.6223
165.2135,1.6154
165.2143,1.6152
165.2143,1.6167
165.2143,1.6562
165.2197,1.6838
165.2203,1.7087
165.2203,1.7356
165.2203,1.7657
165.2263,1.7656
165.2263,1.7447
165.2273,1.7026
165.2273,1.6801
165.2273,1.6487
165.2333,1.6305
165.2337,1.6105
165.2337,1.6199
165.2337,1.6429
165.2343,1.6649
165.2403,1.7155
165.2403,1.744
165.2403,1.7689
165.2413,1.7821
165.2473,1.7522
165.2473,1.7318
165.2473,1.7082
165.2482,1.66
165.2482,1.635
165.2532,1.6232
165.2542,1.6195
165.2542,1.6476
165.2542,1.6679
165.2612,1.6921
165.2642,1.7131
165.2722,1.7663
165.2767,1.7796
165.2822,1.7686
165.2852,1.7547
165.2861,1.7095
165.2861,1.6887
165.2861,1.6592
165.2871,1.6317
165.2871,1.6262
165.2871,1.627
165.2871,1.6426
165.2871,1.6973
165.2881,1.7114
165.2881,1.7476
165.2881,1.7706
165.2881,1.7712
165.2891,1.7551
165.2891,1.7397
165.2891,1.7136
165.2891,1.6585
165.2901,1.6236
165.2961,1.6219
165.2971,1.6422
165.2971,1.669
165.2971,1.6898
165.2981,1.7453
165.3031,1.7721
165.3031,1.7828
165.3031,1.7789
165.3031,1.7421
165.3101,1.726
165.3101,1.6994
165.3101,1.6495
165.3101,1.6337
165.3111,1.632
165.3161,1.6352
165.3161,1.6714
165.3171,1.6956
165.3171,1.7221
165.3230,1.7481
165.3230,1.7869
165.3240,1.7907
165.3240,1.7744
165.3240,1.7522
165.3298,1.6988
165.3300,1.6737
165.3300,1.6538
165.3300,1.632
165.3300,1.639
165.3370,1.6587
165.3370,1.6832
165.3370,1.7311
165.3380,1.7566
165.3442,1.7774
165.3442,1.7971
165.3442,1.7633
165.3450,1.7354
165.3450,1.7057
165.3505,1.6489
165.3510,1.6139
165.3510,1.597
165.3510,1.585
165.3570,1.6122
165.3580,1.6379
165.3580,1.6532
165.3580,1.6748
165.3590,1.7241
165.3640,1.7399
165.3640,1.7297
165.3649,1.6966
165.3649,1.6739
165.3709,1.6489
165.3719,1.6229
165.3799,1.5827
165.3889,1.5874
165.3906,1.5942
165.3929,1.6172
165.3929,1.6651
165.3929,1.6906
165.3939,1.7236
165.3939,1.7476
165.3939,1.7699
165.3939,1.762
165.3949,1.7462
165.3949,1.6977
165.3949,1.6684
165.3949,1.6459
165.3959,1.6274
165.3959,1.6272
165.3959,1.6424
165.3978,1.6677
165.3978,1.6896
165.3978,1.7537
165.3988,1.7751
165.4052,1.789
165.4052,1.7702
165.4058,1.7524
165.4058,1.7252
165.4058,1.7033
165.4108,1.654
165.4118,1.6364
165.4118,1.6326
165.4118,1.6403
165.4178,1.6724
165.4188,1.6984
165.4188,1.7207
165.4188,1.7513
165.4198,1.7971
165.4248,1.7927
165.4248,1.7785
165.4248,1.7642
165.4258,1.7129
165.4258,1.6917
165.4320,1.6649
165.4320,1.6397
165.4328,1.6476
165.4328,1.6611
165.4387,1.6862
165.4397,1.7329
165.4397,1.7567
165.4397,1.7828
165.4407,1.8016
165.4447,1.7794
165.4457,1.7592
165.4457,1.7356
165.4457,1.7183
165.4517,1.6654
165.4527,1.6487
165.4527,1.6519
165.4527,1.6491
165.4537,1.6902
165.4587,1.7099
165.4587,1.7374
165.4597,1.7639
165.4597,1.8038
165.4657,1.8002
165.4657,1.7884
165.4667,1.7693
165.4670,1.7228
165.4670,1.6975
165.4717,1.6716
165.4726,1.6622
165.4726,1.6694
165.4726,1.6861
165.4736,1.7061
165.4791,1.7247
165.4791,1.7539
165.4801,1.7836
165.4801,1.7993
165.4860,1.8016
165.4870,1.7749
165.4870,1.7226
165.4870,1.6651
165.4880,1.5015
165.4950,1.4168
165.5040,1.3446
165.5050,1.3045
165.5127,1.248
165.5144,1.2445
165.5170,1.2405
165.5170,1.2567
165.5180,1.2707
165.5180,1.3367
165.5180,1.5765
165.5180,1.8604
165.5190,1.7888
165.5190,1.7453
165.5195,1.7221
165.5199,1.9467
165.5199,2.1143
165.5199,2.3288
165.5199,2.3946
165.5209,2.3808
165.5209,2.3766
165.5209,2.3809
165.5209,2.3744
165.5219,2.2953
165.5259,2.2523
165.5269,2.2008
165.5269,2.143
165.5269,2.0209
165.5339,1.9645
165.5339,1.9435
165.5339,1.9024
165.5349,1.891
165.5349,1.8811
165.5401,1.8779
165.5401,1.8507
165.5401,1.8569
165.5409,1.855
165.5469,1.8332
165.5469,1.7744
165.5479,1.7453
165.5479,1.7192
165.5479,1.6868
165.5529,1.6598
165.5539,1.6557
165.5539,1.6645
165.5539,1.6831
165.5598,1.7174
165.5608,1.7436
165.5608,1.7644
165.5608,1.777
165.5618,1.7528
165.5668,1.7365
165.5668,1.7134
165.5678,1.6546
165.5678,1.6279
165.5678,1.6148
165.5743,1.6054
165.5743,1.6125
165.5743,1.6354
165.5743,1.6574
165.5813,1.6769
165.5813,1.7329
165.5813,1.7382
165.5823,1.7521
165.5823,1.7327
165.5873,1.687
165.5873,1.6637
165.5883,1.6414
165.5883,1.5923
165.5942,1.5827
165.5942,1.587
165.5952,1.6
165.5952,1.6439
165.5962,1.6699
165.6012,1.6967
165.6012,1.7206
165.6012,1.7402
165.6022,1.7299
165.6082,1.7099
165.6152,1.6649
165.6232,1.6405
165.6253,1.6109
165.6272,1.5925
165.6272,1.5857
165.6282,1.5972
165.6282,1.6178
165.6282,1.6433
165.6289,1.696
165.6292,1.7251
165.6292,1.7457
165.6292,1.7309
165.6292,1.714
165.6301,1.6902
165.6301,1.663
165.6301,1.6086
165.6301,1.5882
165.6311,1.588
165.6351,1.5882
165.6351,1.617
165.6351,1.6491
165.6361,1.6799
165.6421,1.7219
165.6421,1.7365
165.6431,1.7399
165.6431,1.7316
165.6431,1.6883
165.6481,1.6615
165.6491,1.6394
165.6491,1.612
165.6491,1.5771
165.6551,1.5756
165.6561,1.5872
165.6561,1.6328
165.6571,1.6529
165.6571,1.6791
165.6621,1.7026
165.6621,1.7273
165.6631,1.7138
165.6631,1.6952
165.6631,1.6739
165.6694,1.6253
165.6700,1.596
165.6700,1.5786
165.6700,1.5679
165.6760,1.5765
165.6770,1.5902
165.6770,1.6163
165.6770,1.6587
165.6770,1.6832
165.6832,1.7072
165.6832,1.7102
165.6832,1.6769
165.6842,1.6553
165.6902,1.6262
165.6902,1.6013
165.6902,1.5505
165.6912,1.534
165.6912,1.5344
165.6962,1.5525
165.6962,1.572
165.6972,1.5929
165.6972,1.6184
165.7031,1.6549
165.7031,1.6525
165.7041,1.6459
165.7041,1.6251
165.7041,1.5739
165.7091,1.5389
165.7101,1.5115
165.7101,1.494
165.7111,1.468
165.7111,1.4792
165.7241,1.4991
165.7321,1.5381
165.7342,1.5591
165.7361,1.5795
165.7371,1.6039
165.7371,1.5889
165.7376,1.569
165.7376,1.5569
165.7380,1.5246
165.7380,1.4689
165.7380,1.4479
165.7380,1.4348
165.7390,1.4354
165.7390,1.4588
165.7390,1.482
165.7390,1.5068
165.7400,1.5514
165.7400,1.5752
165.7440,1.5842
165.7440,1.5713
165.7440,1.5398
165.7450,1.5143
165.7510,1.4922
165.7510,1.4612
165.7520,1.4299
165.7520,1.4337
165.7520,1.4425
165.7570,1.4845
165.7570,1.515
165.7580,1.5424
165.7580,1.576
165.7580,1.6097
165.7640,1.5992
165.7650,1.5917
165.7650,1.5749
165.7650,1.533
165.7720,1.5128
165.7720,1.498
165.7720,1.4918
165.7720,1.513
165.7730,1.5402
165.7779,1.5659
165.7779,1.6268
165.7779,1.6602
165.7789,1.6864
165.7853,1.6956
165.7853,1.6817
165.7859,1.6654
165.7859,1.6474
165.7859,1.629
165.7919,1.5816
165.7919,1.5765
165.7919,1.5818
165.7929,1.6088
165.7989,1.6399
165.7989,1.6681
165.7989,1.6979
165.7999,1.7442
165.8002,1.7547
165.8049,1.7592
165.8049,1.7481
165.8059,1.7056
165.8059,1.681
165.8059,1.6546
165.8119,1.6289
165.8128,1.6272
165.8128,1.6305
165.8128,1.6459
165.8188,1.6999
165.8198,1.7256
165.8198,1.7547
165.8198,1.7789
165.8208,1.7732
165.8258,1.7579
165.8338,1.7386
165.8418,1.6851
165.8442,1.6544
165.8458,1.6412
165.8468,1.6289
165.8468,1.6354
165.8468,1.648
165.8468,1.6735
165.8478,1.7007
165.8478,1.7511
165.8478,1.7755
165.8488,1.7869
165.8488,1.774
165.8488,1.7399
165.8488,1.7123
165.8497,1.6896
165.8497,1.6414
165.8527,1.6238
165.8527,1.6249
165.8527,1.6335
165.8527,1.6727
165.8537,1.6939
165.8599,1.7183
165.8599,1.7511
165.8607,1.7693
165.8607,1.7659
165.8671,1.7464
165.8671,1.7262
165.8677,1.6754
165.8677,1.6448
165.8687,1.6262
165.8727,1.6125
165.8737,1.6187
165.8737,1.6341
165.8737,1.6589
165.8807,1.7104
165.8807,1.7344
165.8807,1.7594
165.8817,1.7669
165.8817,1.7421
165.8867,1.7198
165.8867,1.6909
165.8867,1.6677
165.8876,1.6131
165.8937,1.6092
165.8937,1.6086
165.8946,1.6307
165.8946,1.6517
165.8946,1.6701
165.9006,1.7009
165.9006,1.7489
165.9006,1.7596
165.9016,1.7543
165.9016,1.7395
165.9076,1.6868
165.9076,1.6696
165.9076,1.6441
165.9086,1.608
165.9146,1.6035
165.9146,1.6112
165.9156,1.6283
165.9156,1.6735
165.9156,1.7022
165.9206,1.7342
165.9216,1.7551
165.9216,1.7581
165.9216,1.7395
165.9275,1.7232
165.9285,1.6666
165.9285,1.639
165.9285,1.6206
165.9285,1.6073
165.9358,1.6116
165.9485,1.6264
165.9555,1.6501
165.9578,1.6673
165.9595,1.7202
165.9605,1.7453
165.9605,1.7624
165.9605,1.7534
165.9605,1.7155
165.9615,1.6988
165.9615,1.6761
165.9615,1.62
165.9624,1.6073
165.9624,1.6028
165.9624,1.6137
165.9624,1.6562
165.9634,1.6752
165.9634,1.7014
165.9634,1.7305
165.9634,1.7597
165.9644,1.7571
165.9644,1.7432
165.9644,1.6982
165.9684,1.6752
165.9684,1.6495
165.9694,1.6264
165.9694,1.6088
165.9754,1.6167
165.9754,1.6339
165.9764,1.6555
165.9764,1.7005
165.9764,1.7324
165.9824,1.7522
165.9824,1.7609
165.9824,1.7399
165.9824,1.7258
165.9894,1.702
165.9894,1.6427
165.9894,1.6238
165.9894,1.6112
165.9904,1.6032
165.9954,1.624
165.9954,1.6459
165.9964,1.6675
165.9964,1.7181
165.9964,1.7393
166.0029,1.759
166.0033,1.7532
166.0033,1.7155
166.0033,1.6821
166.0093,1.6675
166.0103,1.6412
166.0103,1.6013
166.0103,1.5992
166.0103,1.6047
166.0163,1.6214
166.0169,1.6645
166.0169,1.6887
166.0173,1.7183
166.0253,1.7492
166.0253,1.729
166.0253,1.6819
166.0263,1.6598
166.0263,1.6365
166.0313,1.6116
166.0313,1.596
166.0323,1.5906
166.0323,1.6122
166.0382,1.633
166.0382,1.6782
166.0392,1.7063
166.0392,1.7329
166.0392,1.7449
166.0464,1.7209
166.0485,1.7018
166.0567,1.6778
166.0642,1.6347
166.0662,1.6084
166.0692,1.599
166.0692,1.5902
166.0692,1.5983
166.0692,1.623
166.0702,1.6484
166.0702,1.6729
166.0702,1.7236
166.0702,1.7329
166.0712,1.735
166.0712,1.7192
166.0712,1.6817
166.0712,1.6544
166.0722,1.6247
166.0727,1.5715
166.0727,1.5636
166.0732,1.5574
166.0732,1.5681
166.0732,1.6026
166.0791,1.6215
166.0791,1.6478
166.0791,1.6729
166.0801,1.6847
166.0861,1.6639
166.0861,1.6429
166.0861,1.6172
166.0871,1.5668
166.0871,1.5377
166.0925,1.5224
166.0925,1.5197
166.0931,1.5351
166.0931,1.5655
166.0931,1.5882
166.0991,1.6482
166.1002,1.6767
166.1002,1.6952
166.1002,1.6939
166.1071,1.6617
166.1071,1.645
166.1071,1.6242
166.1071,1.5803
166.1081,1.5657
166.1130,1.5659
166.1130,1.5638
166.1140,1.5974
166.1140,1.6202
166.1200,1.648
166.1200,1.6772
166.1210,1.7065
166.1210,1.7059
166.1210,1.6981
166.1260,1.6564
166.1270,1.6264
166.1270,1.6043
166.1270,1.5835
166.1338,1.5585
166.1340,1.5636
166.1340,1.5775
166.1350,1.5936
166.1350,1.6454
166.1400,1.6699
166.1400,1.6949
166.1410,1.7031
166.1410,1.6898
166.1410,1.6675
166.1470,1.6409
166.1470,1.6257
166.1480,1.5722
166.1480,1.5659
166.1539,1.5649
166.1539,1.5735
166.1549,1.5906
166.1549,1.6159
166.1549,1.6411
166.1669,1.6973
166.1759,1.7063
166.1779,1.7101
166.1805,1.6999
166.1809,1.6566
166.1809,1.6253
166.1809,1.6079
166.1819,1.5784
166.1819,1.5563
166.1819,1.5548
166.1819,1.5685
166.1829,1.5925
166.1829,1.6375
166.1836,1.6705
166.1839,1.6964
166.1839,1.708
166.1849,1.6904
166.1849,1.6739
166.1869,1.6501
166.1878,1.5981
166.1878,1.5769
166.1878,1.555
166.1889,1.5505
166.1948,1.5638
166.1948,1.5867
166.1948,1.6157
166.1948,1.6456
166.2019,1.7026
166.2019,1.714
166.2019,1.7009
166.2019,1.6491
166.2028,1.636
166.2078,1.6174
166.2078,1.6013
166.2088,1.5357
166.2088,1.5105
166.2148,1.4753
166.2148,1.4346
166.2158,1.3365
166.2158,1.3187
166.2168,1.3045
166.2208,1.2717
166.2218,1.2359
166.2218,1.2298
166.2228,1.231
166.2277,1.2267
166.2287,1.2642
166.2287,1.4929
166.2297,1.6315
166.2297,1.6225
166.2349,1.5747
166.2349,1.6729
166.2357,1.8267
166.2357,2.2261
166.2357,2.374
166.2417,2.3806
166.2417,2.3547
166.2427,2.2533
166.2427,2.2002
166.2487,2.1561
166.2497,2.1038
166.2502,2.0014
166.2502,1.9572
166.2507,1.9262
166.2557,1.9071
166.2557,1.867
166.2557,1.8865
166.2557,1.8816
166.2626,1.8702
166.2626,1.8166
166.2626,1.7616
166.2636,1.7147
166.2636,1.6334
166.2696,1.6032
166.2786,1.5645
166.2866,1.5374
166.2886,1.5272
166.2906,1.5385
166.2916,1.5557
166.2916,1.5741
166.2916,1.6244
166.2926,1.6426
166.2926,1.6538
166.2926,1.6474
166.2926,1.6028
166.2936,1.581
166.2936,1.5518
166.2936,1.4959
166.2936,1.4753
166.2946,1.4736
166.2946,1.4699
166.2966,1.4952
166.2966,1.5171
166.2966,1.5432
166.2976,1.5698
166.2976,1.599
166.3029,1.5992
166.3029,1.5889
166.3035,1.5681
166.3035,1.5164
166.3095,1.4942
166.3095,1.4655
166.3105,1.4438
166.3105,1.438
166.3105,1.4481
166.3165,1.468
166.3165,1.4894
166.3165,1.5336
166.3177,1.5649
166.3235,1.5897
166.3235,1.5728
166.3235,1.5531
166.3235,1.5353
166.3245,1.5038
166.3295,1.4519
166.3295,1.4325
166.3305,1.423
166.3305,1.4264
166.3305,1.4513
166.3364,1.4757
166.3374,1.5021
166.3374,1.5561
166.3374,1.5722
166.3434,1.5818
166.3444,1.5689
166.3444,1.528
166.3444,1.5012
166.3454,1.4736
166.3505,1.4436
166.3505,1.4224
166.3505,1.4241
166.3514,1.4331
166.3574,1.473
166.3574,1.4974
166.3584,1.5291
166.3584,1.5501
166.3584,1.5653
166.3634,1.5499
166.3644,1.5434
166.3644,1.5156
166.3644,1.4635
166.3704,1.4363
166.3714,1.4183
166.3714,1.4117
166.3724,1.42
166.3724,1.4346
166.3796,1.4603
166.3813,1.509
166.3887,1.5349
166.3965,1.5499
166.3973,1.5529
166.4003,1.5306
166.4003,1.4993
166.4013,1.4745
166.4013,1.4534
166.4013,1.4005
166.4013,1.3842
166.4023,1.3782
166.4023,1.3964
166.4023,1.4342
166.4023,1.4534
166.4033,1.4781
166.4033,1.5252
166.4033,1.5229
166.4053,1.5139
166.4053,1.4843
166.4053,1.4408
166.4053,1.4145
166.4063,1.3842
166.4115,1.359
166.4115,1.3463
166.4122,1.356
166.4122,1.3735
166.4182,1.4097
166.4182,1.4312
166.4192,1.4605
166.4192,1.4787
166.4192,1.4573
166.4242,1.434
166.4253,1.416
166.4253,1.3866
166.4253,1.3206
166.4262,1.2959
166.4322,1.2891
166.4322,1.2885
166.4322,1.3002
166.4322,1.3131
166.4392,1.3395
166.4392,1.3619
166.4392,1.3979
166.4402,1.3999
166.4402,1.3857
166.4452,1.3444
166.4462,1.3139
166.4462,1.2945
166.4462,1.2775
166.4521,1.2554
166.4521,1.2533
166.4531,1.2593
166.4531,1.2668
166.4531,1.3011
166.4589,1.3189
166.4591,1.347
166.4591,1.3662
166.4591,1.3607
166.4651,1.3437
166.4661,1.3275
166.4668,1.3067
166.4671,1.2645
166.4671,1.257
166.4721,1.2561
166.4721,1.2548
166.4731,1.2662
166.4732,1.2863
166.4732,1.3045
166.4791,1.3277
166.4791,1.3769
166.4801,1.3853
166.4801,1.3789
166.4861,1.3515
166.4861,1.3298
166.4870,1.3148
166.4870,1.2929
166.4870,1.2745
166.5001,1.2786
166.5090,1.2962
166.5110,1.3152
166.5146,1.3688
166.5150,1.4001
166.5150,1.4305
166.5150,1.4575
166.5160,1.4697
166.5160,1.4543
166.5160,1.4387
166.5170,1.4217
166.5170,1.38
166.5180,1.3754
166.5180,1.3615
166.5180,1.3821
166.5190,1.3943
166.5190,1.4232
166.5190,1.4567
166.5196,1.5192
166.5200,1.5422
166.5200,1.5546
166.5200,1.5514
166.5210,1.5154
166.5269,1.494
166.5269,1.4794
166.5269,1.4517
166.5279,1.4258
166.5340,1.431
166.5340,1.4444
166.5349,1.4777
166.5349,1.5023
166.5349,1.5325
166.5399,1.5625
166.5409,1.5885
166.5409,1.5839
166.5409,1.5657
166.5469,1.5488
166.5479,1.5062
166.5479,1.476
166.5489,1.4543
166.5489,1.4399
166.5539,1.4464
166.5539,1.467
166.5549,1.4854
166.5549,1.5315
166.5608,1.5574
166.5608,1.5792
166.5608,1.5919
166.5618,1.5672
166.5618,1.5432
166.5669,1.5107
166.5669,1.4687
166.5678,1.4421
166.5678,1.4292
166.5678,1.4256
166.5738,1.4515
166.5748,1.4742
166.5748,1.5008
166.5748,1.5137
166.5818,1.5702
166.5818,1.5803
166.5818,1.5745
166.5828,1.554
166.5828,1.5042
166.5878,1.4826
166.5878,1.4545
166.5888,1.4228
166.5888,1.4181
166.5948,1.4258
166.5948,1.4442
166.5958,1.483
166.5958,1.5075
166.5958,1.5345
166.6027,1.5488
166.6117,1.5542
166.6148,1.5349
166.6217,1.5252
166.6220,1.4787
166.6247,1.4481
166.6247,1.428
166.6247,1.4247
166.6257,1.4234
166.6257,1.435
166.6257,1.4601
166.6257,1.4815
166.6267,1.5338
166.6267,1.5475
166.6267,1.5621
166.6267,1.5419
166.6277,1.522
166.6277,1.4957
166.6294,1.4719
166.6297,1.4282
166.6297,1.4082
166.6297,1.4132
166.6297,1.4157
166.6357,1.4562
166.6357,1.4794
166.6357,1.5087
166.6366,1.5512
166.6426,1.5649
166.6426,1.5614
166.6436,1.5441
166.6436,1.5042
166.6436,1.479
166.6486,1.4545
166.6496,1.4303
166.6501,1.408
166.6501,1.4213
166.6556,1.4415
166.6566,1.4601
166.6566,1.5167
166.6566,1.5364
166.6576,1.5627
166.6627,1.5679
166.6627,1.5495
166.6636,1.5325
166.6636,1.5104
166.6636,1.455
166.6696,1.4374
166.6696,1.4228
166.6706,1.4262
166.6706,1.4417
166.6765,1.4642
166.6765,1.4922
166.6775,1.5417
166.6775,1.5666
166.6775,1.5803
166.6835,1.576
166.6835,1.543
166.6835,1.5225
166.6845,1.492
166.6905,1.4661
166.6905,1.4301
166.6905,1.4299
166.6915,1.4367
166.6915,1.4485
166.6965,1.4892
166.6965,1.5199
166.6975,1.5471
166.6975,1.5869
166.7035,1.5784
166.7035,1.5651
166.7045,1.5454
166.7045,1.498
166.7045,1.4678
166.7095,1.443
166.7127,1.4404
166.7148,1.4344
166.7224,1.4554
166.7276,1.4749
166.7314,1.4997
166.7328,1.5471
166.7356,1.5786
166.7356,1.5872
166.7356,1.5589
166.7364,1.5392
166.7364,1.522
166.7364,1.5021
166.7364,1.4539
166.7374,1.4397
166.7374,1.4372
166.7380,1.4369
166.7380,1.4657
166.7384,1.4954
166.7384,1.533
166.7384,1.573
166.7384,1.5846
166.7394,1.5784
166.7444,1.5653
166.7444,1.522
166.7444,1.4978
166.7444,1.4719
166.7531,1.4496
166.7533,1.4295
166.7533,1.4357
166.7533,1.4466
166.7543,1.5135
166.7593,1.5404
166.7593,1.554
166.7593,1.5638
166.7603,1.5415
166.7603,1.5254
166.7668,1.504
166.7673,1.4406
166.7679,1.4112
166.7679,1.4018
166.7738,1.3997
166.7738,1.4121
166.7743,1.435
166.7743,1.4507
166.7743,1.5034
166.7803,1.525
166.7803,1.5274
166.7803,1.5272
166.7813,1.5002
166.7872,1.4789
166.7872,1.4618
166.7872,1.4412
166.7882,1.405
166.7882,1.4007
166.7932,1.4033
166.7932,1.4284
166.7942,1.4802
166.7942,1.5126
166.8007,1.5417
166.8007,1.5795
166.8012,1.5711
166.8012,1.57
166.8012,1.5617
166.8070,1.4991
166.8072,1.4742
166.8072,1.4541
166.8072,1.4449
166.8082,1.4331
166.8142,1.4532
166.8142,1.4738
166.8142,1.5164
166.8142,1.5484
166.8221,1.5739
166.8241,1.5949
166.8321,1.5692
166.8401,1.5563
166.8411,1.5315
166.8441,1.512
166.8448,1.4599
166.8451,1.4474
166.8451,1.4462
166.8451,1.4477
166.8451,1.4864
166.8461,1.4999
166.8461,1.5282
166.8461,1.5814
166.8461,1.5951
166.8471,1.594
166.8471,1.5837
166.8471,1.5404
166.8481,1.5162
166.8481,1.4918
166.8481,1.4682
166.8491,1.4594
166.8491,1.4565
166.8546,1.473
166.8546,1.5137
166.8552,1.5465
166.8552,1.5672
166.8552,1.5936
166.8612,1.6015
166.8622,1.5919
166.8622,1.5825
166.8622,1.5576
166.8681,1.5107
166.8691,1.4862
166.8691,1.4715
166.8691,1.4676
166.8691,1.4751
166.8751,1.4959
166.8751,1.5224
166.8751,1.5405
166.8761,1.5947
166.8821,1.6125
166.8821,1.608
166.8821,1.5951
166.8834,1.5614
166.8834,1.5353
166.8881,1.5154
166.8891,1.4914
166.8891,1.4779
166.8891,1.4794
166.8951,1.4845
166.8961,1.5347
166.8961,1.5578
166.8961,1.5884
166.8971,1.6174
166.9020,1.6125
166.9020,1.5732
166.9020,1.543
166.9030,1.4796
166.9030,1.33
166.9090,1.2713
166.9090,1.2537
166.9090,1.24
166.9100,1.2304
166.9160,1.2314
166.9160,1.2332
166.9170,1.2617
166.9170,1.5734
166.9170,1.7924
166.9220,1.8721
166.9230,1.7684
166.9230,1.7114
166.9230,1.7337
166.9290,1.7648
166.9300,2.011
166.9300,2.1374
166.9300,2.1518
166.9300,2.1441
166.9409,2.0472
166.9519,2.0329
166.9539,2.0489
166.9565,2.0689
166.9569,2.0633
166.9569,2.0245
166.9569,1.9617
166.9569,1.894
166.9579,1.7744
166.9579,1.7207
166.9579,1.6692
166.9579,1.6225
166.9589,1.6019
166.9589,1.5752
166.9589,1.5587
166.9589,1.5857
166.9599,1.5844
166.9599,1.5882
166.9635,1.59
166.9639,1.5698
166.9639,1.5454
166.9639,1.5212
166.9639,1.491
166.9700,1.4387
166.9700,1.4245
166.9700,1.4179
166.9710,1.4477
166.9770,1.4792
166.9770,1.4965
166.9770,1.5263
166.9781,1.5524
166.9781,1.5647
166.9830,1.5548
166.9830,1.5379
166.9841,1.4796
166.9841,1.4625
166.9900,1.4333
166.9900,1.41
166.9910,1.3973
166.9910,1.4112
166.9910,1.4327
166.9970,1.4805
166.9970,1.5032
166.9970,1.5297
166.9980,1.5426
166.9980,1.5357
167.0039,1.5038
167.0039,1.4939
167.0039,1.467
167.0049,1.4048
167.0109,1.4014
167.0109,1.399
167.0109,1.3907
167.0119,1.426
167.0119,1.4455
167.0174,1.468
167.0179,1.5109
167.0179,1.5319
167.0179,1.54
167.0239,1.5252
167.0249,1.4809
167.0249,1.455
167.0249,1.4389
167.0259,1.405
167.0309,1.3765
167.0309,1.3737
167.0309,1.3956
167.0319,1.4059
167.0379,1.4522
167.0379,1.4802
167.0379,1.506
167.0389,1.5201
167.0389,1.51
167.0469,1.4892
167.0521,1.4764
167.0598,1.423
167.0620,1.396
167.0643,1.3827
167.0648,1.3669
167.0648,1.3787
167.0648,1.402
167.0648,1.4202
167.0658,1.4372
167.0658,1.4884
167.0658,1.5062
167.0658,1.5104
167.0668,1.48
167.0668,1.4599
167.0668,1.4325
167.0678,1.4052
167.0678,1.3581
167.0719,1.356
167.0719,1.3549
167.0719,1.3564
167.0728,1.3973
167.0728,1.4243
167.0778,1.4447
167.0787,1.4687
167.0787,1.4924
167.0787,1.4789
167.0847,1.4594
167.0847,1.4365
167.0857,1.3851
167.0857,1.3536
167.0857,1.336
167.0917,1.3249
167.0917,1.3313
167.0917,1.3491
167.0917,1.3686
167.0927,1.4009
167.0987,1.4384
167.0987,1.4509
167.0987,1.4528
167.0987,1.4365
167.1057,1.393
167.1057,1.3664
167.1057,1.3485
167.1067,1.2908
167.1067,1.2803
167.1117,1.2794
167.1127,1.2799
167.1127,1.3043
167.1127,1.3257
167.1187,1.3457
167.1187,1.3664
167.1196,1.3829
167.1196,1.3697
167.1196,1.3442
167.1256,1.3225
167.1256,1.2749
167.1256,1.2546
167.1256,1.2445
167.1316,1.2415
167.1326,1.245
167.1326,1.249
167.1336,1.2572
167.1336,1.2702
167.1386,1.3034
167.1386,1.3189
167.1396,1.3165
167.1396,1.3105
167.1396,1.276
167.1456,1.2619
167.1456,1.2529
167.1466,1.2434
167.1466,1.236
167.1528,1.236
167.1545,1.239
167.1600,1.2439
167.1676,1.2636
167.1697,1.2794
167.1711,1.3011
167.1722,1.3176
167.1722,1.3146
167.1722,1.3017
167.1731,1.2829
167.1731,1.2685
167.1731,1.2469
167.1731,1.2434
167.1741,1.2441
167.1741,1.2413
167.1741,1.2524
167.1741,1.2681
167.1741,1.2904
167.1785,1.3161
167.1785,1.3729
167.1785,1.389
167.1785,1.3898
167.1785,1.38
167.1852,1.3455
167.1862,1.333
167.1862,1.318
167.1872,1.3062
167.1872,1.3092
167.1923,1.3292
167.1923,1.3551
167.1933,1.3889
167.1933,1.4517
167.1993,1.4884
167.2005,1.5203
167.2005,1.5291
167.2013,1.5137
167.2013,1.4952
167.2063,1.483
167.2063,1.4451
167.2063,1.4299
167.2073,1.426
167.2133,1.4249
167.2133,1.4599
167.2133,1.488
167.2143,1.5192
167.2143,1.5501
167.2196,1.6094
167.2196,1.6184
167.2202,1.615
167.2202,1.6017
167.2262,1.564
167.2262,1.5441
167.2272,1.5175
167.2272,1.4937
167.2272,1.4918
167.2332,1.4984
167.2332,1.5182
167.2332,1.5647
167.2332,1.5878
167.2342,1.6232
167.2402,1.6463
167.2402,1.6484
167.2402,1.6298
167.2402,1.6067
167.2472,1.585
167.2472,1.5297
167.2482,1.507
167.2482,1.4965
167.2482,1.4985
167.2532,1.5269
167.2541,1.5477
167.2541,1.5784
167.2541,1.6298
167.2601,1.6542
167.2611,1.6577
167.2611,1.651
167.2611,1.6109
167.2611,1.5857
167.2696,1.5634
167.2751,1.5389
167.2831,1.5004
167.2835,1.4978
167.2861,1.5015
167.2861,1.5246
167.2871,1.5642
167.2875,1.59
167.2875,1.6234
167.2881,1.6427
167.2881,1.639
167.2881,1.6202
167.2881,1.6032
167.2891,1.5529
167.2891,1.5255
167.2891,1.5045
167.2891,1.5042
167.2901,1.5062
167.2940,1.5252
167.2951,1.5479
167.2951,1.5696
167.2951,1.6274
167.2960,1.6459
167.3010,1.6559
167.3010,1.6527
167.3020,1.6157
167.3020,1.5985
167.3080,1.5719
167.3080,1.5385
167.3080,1.5079
167.3090,1.5077
167.3090,1.5109
167.3144,1.5518
167.3144,1.5765
167.3150,1.6062
167.3150,1.6317
167.3210,1.6709
167.3210,1.6656
167.3220,1.6456
167.3220,1.6249
167.3220,1.5814
167.3280,1.5555
167.3280,1.5381
167.3280,1.5263
167.3280,1.5276
167.3289,1.5486
167.3349,1.5726
167.3349,1.5983
167.3349,1.6508
167.3349,1.6742
167.3419,1.6892
167.3419,1.6647
167.3419,1.6397
167.3429,1.6242
167.3429,1.603
167.3479,1.5482
167.3489,1.5381
167.3489,1.54
167.3489,1.5552
167.3549,1.5889
167.3559,1.615
167.3559,1.6467
167.3569,1.6782
167.3569,1.7039
167.3619,1.705
167.3619,1.6907
167.3619,1.6752
167.3629,1.6262
167.3688,1.6037
167.3688,1.5914
167.3688,1.573
167.3698,1.5777
167.3698,1.5966
167.3768,1.6214
167.3819,1.6739
167.3878,1.7011
167.3948,1.7236
167.3971,1.7352
167.3998,1.7146
167.4001,1.6971
167.4001,1.6733
167.4008,1.6499
167.4008,1.5989
167.4008,1.5863
167.4018,1.5872
167.4018,1.6112
167.4018,1.6364
167.4018,1.6688
167.4029,1.693
167.4029,1.7406
167.4029,1.7551
167.4029,1.7506
167.4038,1.7346
167.4038,1.6971
167.4038,1.6759
167.4038,1.6495
167.4087,1.618
167.4097,1.6028
167.4097,1.614
167.4097,1.6337
167.4157,1.6581
167.4167,1.7042
167.4167,1.7359
167.4167,1.7507
167.4179,1.7577
167.4227,1.7401
167.4227,1.72
167.4227,1.6943
167.4227,1.6364
167.4237,1.611
167.4297,1.596
167.4297,1.5934
167.4297,1.6002
167.4307,1.6227
167.4369,1.6472
167.4369,1.6757
167.4377,1.7258
167.4377,1.7361
167.4377,1.7356
167.4426,1.7264
167.4436,1.6855
167.4436,1.666
167.4436,1.6411
167.4503,1.6214
167.4506,1.6127
167.4506,1.6125
167.4506,1.6414
167.4506,1.7026
167.4566,1.7391
167.4566,1.7723
167.4566,1.7944
167.4576,1.8066
167.4636,1.7905
167.4636,1.7755
167.4636,1.7489
167.4646,1.7044
167.4646,1.6832
167.4696,1.6696
167.4696,1.6671
167.4706,1.6898
167.4706,1.7183
167.4706,1.7449
167.4785,1.7701
167.4785,1.8201
167.4785,1.837
167.4796,1.8351
167.4860,1.7976
167.4935,1.7489
167.5015,1.7266
167.5025,1.6996
167.5056,1.6996
167.5056,1.6982
167.5065,1.7474
167.5065,1.7738
167.5065,1.7989
167.5065,1.8304
167.5075,1.8707
167.5075,1.8619
167.5075,1.8503
167.5075,1.8349
167.5085,1.7905
167.5085,1.7635
167.5085,1.7352
167.5095,1.7179
167.5125,1.726
167.5125,1.7442
167.5135,1.7719
167.5135,1.8226
167.5135,1.852
167.5184,1.8752
167.5194,1.8914
167.5194,1.8711
167.5194,1.8531
167.5194,1.8321
167.5264,1.8077
167.5264,1.7569
167.5264,1.7446
167.5264,1.7414
167.5335,1.7425
167.5335,1.7866
167.5335,1.8115
167.5344,1.8428
167.5344,1.8959
167.5394,1.9118
167.5404,1.9148
167.5404,1.8991
167.5404,1.8509
167.5470,1.8291
167.5474,1.8134
167.5474,1.7882
167.5474,1.7817
167.5484,1.7847
167.5533,1.7946
167.5533,1.8297
167.5533,1.8593
167.5543,1.8953
167.5603,1.9236
167.5603,1.9442
167.5603,1.9032
167.5613,1.8655
167.5613,1.8233
167.5668,1.6592
167.5668,1.572
167.5673,1.5085
167.5673,1.4807
167.5673,1.4029
167.5733,1.3853
167.5743,1.3844
167.5743,1.4744
167.5743,1.5317
167.5803,1.7702
167.5813,2.0284
167.5813,2.0558
167.5813,1.9984
167.5823,1.9514
167.5873,1.9703
167.5873,2.1381
167.5873,2.3337
167.5883,2.4481
167.5945,2.4593
167.5972,2.4033
167.6062,2.3877
167.6142,2.4194
167.6152,2.4258
167.6182,2.4402
167.6182,2.4108
167.6192,2.3509
167.6192,2.2456
167.6192,2.1918
167.6192,2.128
167.6202,2.0768
167.6202,2.0324
167.6202,2.0059
167.6202,1.9892
167.6212,1.9793
167.6212,1.9921
167.6212,1.9997
167.6222,1.9958
167.6222,1.9894
167.6222,1.954
167.6222,1.9294
167.6232,1.9079
167.6281,1.8578
167.6281,1.8377
167.6291,1.8286
167.6291,1.8297
167.6291,1.8527
167.6341,1.8721
167.6351,1.8953
167.6351,1.924
167.6361,1.9589
167.6411,1.9611
167.6422,1.9463
167.6422,1.9322
167.6431,1.8769
167.6431,1.8584
167.6481,1.8276
167.6481,1.8134
167.6491,1.8077
167.6491,1.8194
167.6551,1.8407
167.6551,1.8672
167.6551,1.9219
167.6561,1.9478
167.6561,1.9632
167.6611,1.9471
167.6621,1.93
167.6621,1.9043
167.6621,1.8805
167.6631,1.8301
167.6687,1.8171
167.6690,1.8122
167.6690,1.8151
167.6690,1.8497
167.6760,1.8762
167.6760,1.9041
167.6760,1.9322
167.6760,1.9804
167.6770,1.9804
167.6820,1.9634
167.6820,1.9227
167.6830,1.8947
167.6833,1.8754
167.6890,1.8497
167.6890,1.8278
167.6900,1.8316
167.6900,1.8443
167.6900,1.8661
167.6950,1.9195
167.6960,1.9454
167.6960,1.9729
167.6960,1.9844
167.7020,1.9705
167.7029,1.9566
167.7029,1.9337
167.7029,1.9118
167.7039,1.8584
167.7099,1.8404
167.7179,1.8366
167.7259,1.8507
167.7282,1.8728
167.7299,1.8998
167.7309,1.9268
167.7309,1.9769
167.7309,1.9906
167.7319,1.9981
167.7319,1.9802
167.7319,1.9358
167.7319,1.9105
167.7329,1.8865
167.7329,1.8587
167.7338,1.8398
167.7339,1.8308
167.7339,1.8535
167.7349,1.8947
167.7359,1.9206
167.7369,1.9486
167.7369,1.978
167.7369,1.9982
167.7369,1.9874
167.7428,1.9686
167.7428,1.9442
167.7438,1.8919
167.7438,1.8629
167.7501,1.8486
167.7501,1.8404
167.7508,1.8507
167.7508,1.8737
167.7518,1.8974
167.7564,1.924
167.7568,1.9759
167.7568,1.9969
167.7568,2.0018
167.7578,1.9887
167.7628,1.9465
167.7638,1.9178
167.7638,1.8947
167.7638,1.84
167.7708,1.8244
167.7708,1.8261
167.7708,1.8364
167.7708,1.8775
167.7718,1.8994
