120.2904,1.964
120.2919,1.947
120.2925,1.95
120.2925,1.968
120.2934,1.967
120.2939,1.979
120.2945,2.0
120.2945,2.007
120.2954,2.015
120.2964,2.014
120.2974,2.014
120.2984,2.012
120.2994,1.973
120.2994,1.965
120.3004,1.966
120.3004,1.96
120.3084,1.955
120.3194,1.955
120.3244,1.972
120.3403,1.982
120.3408,1.998
120.3433,2.005
120.3504,2.012
120.3553,2.013
120.3586,2.006
120.3722,2.003
120.3872,1.998
120.3886,1.996
120.3892,1.994
120.3942,1.996
120.3962,1.993
120.3965,1.973
120.3972,1.97
120.3982,1.99
120.3982,2.01
120.3982,2.037
120.3992,2.037
120.3992,2.03
120.3992,2.009
120.3992,1.951
120.4002,1.883
120.4002,1.702
120.4002,1.62
120.4002,1.562
120.4012,1.478
120.4012,1.395
120.4012,1.319
120.4012,1.263
120.4012,1.252
120.4022,1.239
120.4022,1.244
120.4022,1.326
120.4031,1.566
120.4031,1.695
120.4031,1.628
120.4041,1.611
120.4041,1.677
120.4041,1.847
120.4052,1.987
120.4052,2.442
120.4052,2.514
120.4052,2.54
120.4062,2.524
120.4062,2.519
120.4062,2.517
120.4062,2.509
120.4071,2.478
120.4071,2.454
120.4071,2.434
120.4081,2.416
120.4081,2.337
120.4081,2.281
120.4081,2.256
120.4091,2.245
120.4091,2.217
120.4091,2.188
120.4091,2.152
120.4091,2.136
120.4091,2.108
120.4101,2.094
120.4101,2.084
120.4101,2.078
120.4101,2.048
120.4101,2.033
120.4112,2.016
120.4145,2.001
120.4182,1.985
120.4223,1.971
120.4291,1.968
120.4291,1.964
120.4321,1.97
120.4321,1.969
120.4321,1.978
120.4321,1.982
120.4321,1.985
120.4331,1.982
120.4331,1.978
120.4331,1.967
120.4331,1.951
120.4331,1.946
120.4331,1.922
120.4331,1.912
120.4341,1.906
120.4341,1.903
120.4341,1.899
120.4341,1.916
120.4341,1.929
120.4341,1.941
120.4351,1.947
120.4351,1.955
120.4351,1.961
120.4351,1.959
120.4351,1.945
120.4351,1.941
120.4361,1.931
120.4361,1.918
120.4361,1.908
120.4361,1.899
120.4361,1.889
120.4361,1.901
120.4371,1.91
120.4371,1.917
120.4371,1.924
120.4371,1.946
120.4371,1.957
120.4371,1.958
120.4381,1.95
120.4381,1.951
120.4381,1.937
120.4381,1.908
120.4381,1.899
120.4381,1.901
120.4381,1.89
120.4391,1.887
120.4391,1.89
120.4391,1.915
120.4391,1.921
120.4391,1.932
120.4391,1.94
120.4401,1.954
120.4401,1.954
120.4401,1.942
120.4401,1.925
120.4401,1.915
120.4401,1.908
120.4411,1.898
120.4411,1.891
120.4411,1.882
120.4411,1.895
120.4411,1.897
120.4411,1.896
120.4420,1.917
120.4420,1.928
120.4420,1.941
120.4420,1.94
120.4420,1.939
120.4430,1.933
120.4431,1.92
120.4431,1.905
120.4431,1.883
120.4431,1.877
120.4440,1.872
120.4440,1.869
120.4440,1.876
120.4440,1.888
120.4440,1.902
120.4440,1.915
120.4450,1.93
120.4454,1.939
120.4454,1.938
120.4460,1.934
120.4465,1.906
120.4470,1.898
120.4470,1.882
120.4470,1.88
120.4470,1.878
120.4470,1.86
120.4480,1.88
120.4480,1.872
120.4480,1.879
120.4480,1.89
120.4480,1.907
120.4490,1.908
120.4490,1.908
120.4490,1.907
120.4490,1.897
120.4490,1.889
120.4490,1.88
120.4500,1.863
120.4500,1.853
120.4500,1.84
120.4500,1.832
120.4500,1.823
120.4500,1.829
120.4500,1.827
120.4510,1.833
120.4510,1.85
120.4510,1.859
120.4510,1.848
120.4510,1.845
120.4520,1.831
120.4520,1.799
120.4520,1.785
120.4520,1.771
120.4520,1.76
120.4520,1.746
120.4520,1.744
120.4530,1.746
120.4530,1.751
120.4530,1.761
120.4530,1.757
120.4530,1.76
120.4540,1.769
120.4540,1.756
120.4540,1.746
120.4540,1.74
120.4540,1.731
120.4540,1.709
120.4550,1.699
120.4550,1.679
120.4550,1.675
120.4550,1.679
120.4550,1.692
120.4550,1.684
120.4560,1.695
120.4560,1.708
120.4560,1.715
120.4560,1.716
120.4560,1.718
120.4560,1.703
120.4570,1.683
120.4570,1.676
120.4570,1.667
120.4570,1.661
120.4570,1.657
120.4570,1.65
120.4580,1.665
120.4580,1.67
120.4580,1.69
120.4580,1.702
120.4580,1.719
120.4580,1.724
120.4590,1.739
120.4610,1.736
120.4620,1.735
120.4680,1.735
120.4730,1.733
120.4740,1.732
120.4769,1.73
120.4769,1.736
120.4769,1.747
120.4769,1.759
120.4769,1.777
120.4769,1.812
120.4779,1.829
120.4779,1.842
120.4779,1.855
120.4779,1.864
120.4787,1.859
120.4789,1.863
120.4789,1.854
120.4799,1.856
120.4799,1.849
120.4799,1.848
120.4799,1.85
120.4799,1.871
120.4809,1.892
120.4809,1.917
120.4809,1.93
120.4809,1.938
120.4809,1.956
120.4809,1.98
120.4819,1.972
120.4819,1.97
120.4819,1.962
120.4819,1.95
120.4819,1.941
120.4819,1.932
120.4830,1.938
120.4830,1.942
120.4830,1.95
120.4830,1.961
120.4830,1.963
120.4839,1.996
120.4839,2.0
120.4839,2.006
120.4839,2.009
120.4839,2.003
120.4839,1.991
120.4849,1.988
120.4849,1.974
120.4849,1.964
120.4849,1.96
120.4849,1.96
120.4849,1.963
120.4859,1.967
120.4859,1.986
120.4859,1.997
120.4859,2.012
120.4859,2.007
120.4859,2.018
120.4869,2.013
120.4869,2.007
120.4869,1.997
120.4869,1.98
120.4869,1.958
120.4869,1.956
120.4869,1.949
120.4879,1.949
120.4879,1.957
120.4879,1.971
120.4879,1.99
120.4879,1.995
120.4879,2.0
120.4889,2.008
120.4889,2.01
120.4889,2.006
120.4889,1.989
120.4889,1.979
120.4889,1.971
120.4899,1.963
120.4899,1.956
120.4899,1.95
120.4899,1.95
120.4899,1.962
120.4899,1.973
120.4910,1.981
120.4910,1.99
120.4910,1.999
120.4910,2.004
120.4910,2.007
120.4919,1.992
120.4919,1.992
120.4919,1.974
120.4919,1.948
120.4919,1.941
120.4919,1.936
120.4929,1.935
120.4929,1.947
120.4929,1.945
120.4929,1.961
120.4929,1.98
120.4929,1.986
120.4939,1.994
120.4939,1.99
120.4939,1.985
120.4939,1.973
120.4939,1.957
120.4939,1.947
120.4939,1.936
120.4949,1.924
120.4949,1.931
120.4949,1.942
120.4949,1.942
120.4959,1.955
120.4963,1.955
120.4963,1.966
120.4969,1.984
120.4969,1.982
120.4969,1.974
120.4969,1.977
120.4969,1.96
120.4969,1.948
120.4979,1.929
120.4979,1.922
120.4979,1.92
120.4979,1.912
120.4979,1.927
120.4979,1.93
120.4990,1.946
120.4990,1.958
120.4990,1.965
120.4990,1.971
120.4990,1.968
120.4990,1.965
120.4999,1.959
120.4999,1.945
120.4999,1.933
120.4999,1.924
120.4999,1.92
120.4999,1.907
120.5009,1.921
120.5009,1.924
120.5009,1.936
120.5009,1.952
120.5009,1.954
120.5009,1.968
120.5019,1.979
120.5019,1.968
120.5019,1.954
120.5019,1.954
120.5019,1.935
120.5019,1.916
120.5019,1.912
120.5029,1.906
120.5029,1.91
120.5029,1.913
120.5029,1.92
120.5029,1.94
120.5029,1.949
120.5039,1.958
120.5039,1.968
120.5039,1.975
120.5039,1.961
120.5039,1.949
120.5039,1.945
120.5049,1.931
120.5049,1.917
120.5049,1.911
120.5049,1.903
120.5049,1.918
120.5049,1.919
120.5059,1.928
120.5059,1.94
120.5059,1.942
120.5059,1.965
120.5059,1.969
120.5059,1.97
120.5071,1.961
120.5071,1.953
120.5071,1.938
120.5071,1.914
120.5071,1.909
120.5079,1.912
120.5079,1.904
120.5079,1.911
120.5079,1.926
120.5079,1.936
120.5079,1.943
120.5089,1.952
120.5089,1.957
120.5089,1.966
120.5089,1.958
120.5089,1.945
120.5089,1.933
120.5099,1.923
120.5099,1.916
120.5099,1.909
120.5099,1.897
120.5099,1.899
120.5099,1.907
120.5109,1.91
120.5109,1.928
120.5109,1.945
120.5109,1.955
120.5109,1.953
120.5109,1.954
120.5119,1.949
120.5119,1.939
120.5124,1.912
120.5124,1.903
120.5129,1.89
120.5129,1.889
120.5129,1.89
120.5129,1.89
120.5129,1.905
120.5138,1.916
120.5138,1.935
120.5138,1.947
120.5138,1.953
120.5138,1.96
120.5138,1.95
120.5148,1.941
120.5149,1.93
120.5149,1.912
120.5149,1.899
120.5149,1.88
120.5149,1.872
120.5158,1.873
120.5158,1.878
120.5158,1.882
120.5158,1.886
120.5158,1.898
120.5158,1.906
120.5168,1.911
120.5168,1.906
120.5168,1.891
120.5168,1.887
120.5168,1.862
120.5168,1.849
120.5178,1.837
120.5178,1.834
120.5178,1.837
120.5178,1.84
120.5178,1.851
120.5178,1.874
120.5188,1.89
120.5188,1.901
120.5188,1.906
120.5188,1.924
120.5188,1.913
120.5188,1.908
120.5198,1.903
120.5198,1.893
120.5198,1.882
120.5198,1.864
120.9866,1.867
120.9876,1.869
120.9876,1.88
120.9886,1.903
120.9886,1.917
120.9886,1.923
120.9896,1.93
120.9896,1.944
120.9896,1.936
120.9906,1.911
120.9906,1.897
120.9906,1.878
120.9916,1.875
120.9916,1.876
120.9926,1.868
120.9926,1.875
120.9926,1.884
120.9936,1.898
120.9936,1.907
120.9936,1.92
120.9946,1.932
120.9946,1.928
120.9956,1.926
120.9961,1.922
120.9966,1.91
120.9966,1.888
120.9976,1.878
120.9976,1.862
120.9986,1.866
120.9986,1.875
120.9986,1.88
120.9996,1.885
120.9996,1.91
121.0006,1.918
121.0006,1.931
121.0006,1.933
121.0016,1.928
121.0016,1.924
121.0026,1.912
121.0026,1.901
121.0026,1.891
121.0036,1.869
121.0066,1.867
121.0106,1.868
121.0215,1.875
121.0235,1.879
121.0265,1.894
121.0265,1.908
121.0265,1.922
121.0276,1.929
121.0276,1.931
121.0276,1.926
121.0285,1.927
121.0285,1.91
121.0290,1.895
121.0295,1.88
121.0295,1.868
121.0295,1.876
121.0305,1.876
121.0305,1.871
121.0305,1.886
121.0305,1.897
121.0315,1.915
121.0315,1.921
121.0315,1.94
121.0315,1.948
121.0315,1.949
121.0325,1.943
121.0325,1.924
121.0325,1.904
121.0325,1.893
121.0325,1.894
121.0335,1.88
121.0335,1.904
121.0335,1.909
121.0335,1.898
121.0345,1.882
121.0345,1.872
121.0345,1.754
121.0345,1.693
121.0345,1.633
121.0355,1.583
121.0355,1.54
121.0355,1.444
121.0355,1.306
121.0355,1.277
121.0365,1.26
121.0365,1.257
121.0365,1.261
121.0365,1.468
121.0375,1.779
121.0375,1.717
121.0375,1.674
121.0375,1.652
121.0375,1.738
121.0385,1.875
121.0385,2.282
121.0385,2.475
121.0385,2.527
121.0385,2.483
121.0395,2.427
121.0395,2.371
121.0395,2.367
121.0395,2.348
121.0405,2.351
121.0405,2.355
121.0405,2.339
121.0405,2.289
121.0405,2.26
121.0415,2.231
121.0415,2.184
121.0415,2.158
121.0415,2.123
121.0415,2.056
121.0425,2.017
121.0425,1.979
121.0425,1.951
121.0425,1.942
121.0436,1.929
121.0436,1.912
121.0436,1.908
121.0436,1.917
121.0445,1.911
121.0445,1.922
121.0445,1.919
121.0445,1.911
121.0454,1.89
121.0454,1.87
121.0459,1.852
121.0465,1.84
121.0465,1.829
121.0465,1.819
121.0465,1.833
121.0475,1.835
121.0475,1.844
121.0475,1.851
121.0475,1.856
121.0485,1.86
121.0485,1.862
121.0485,1.847
121.0485,1.837
121.0485,1.826
121.0495,1.817
121.0495,1.804
121.0495,1.795
121.0495,1.781
121.0495,1.791
121.0505,1.795
121.0505,1.805
121.0505,1.82
121.0505,1.833
121.0515,1.842
121.0515,1.843
121.0515,1.839
121.0515,1.838
121.0515,1.82
121.0525,1.792
121.0525,1.787
121.0525,1.782
121.0525,1.774
121.0535,1.777
121.0535,1.785
121.0535,1.793
121.0535,1.798
121.0535,1.805
121.0545,1.821
121.0545,1.833
121.0545,1.834
121.0545,1.826
121.0554,1.818
121.0554,1.798
121.0554,1.8
121.0554,1.781
121.0554,1.775
121.0564,1.772
121.0564,1.776
121.0564,1.784
121.0564,1.79
121.0564,1.797
121.0574,1.805
121.0574,1.822
121.0574,1.819
121.0574,1.822
121.0574,1.807
121.0574,1.806
121.0584,1.785
121.0584,1.77
121.0584,1.763
121.0584,1.762
121.0584,1.757
121.0584,1.758
121.0595,1.772
121.0595,1.787
121.0595,1.79
121.0595,1.8
121.0604,1.802
121.0604,1.812
121.0604,1.806
121.0604,1.796
121.0604,1.787
121.0604,1.769
121.0614,1.763
121.0614,1.754
121.0619,1.743
121.0624,1.74
121.0624,1.744
121.0624,1.754
121.0624,1.762
121.0624,1.776
121.0624,1.782
121.0634,1.795
121.0634,1.793
121.0634,1.788
121.0634,1.785
121.0644,1.768
121.0644,1.742
121.0644,1.726
121.0644,1.715
121.0654,1.706
121.0654,1.706
121.0654,1.71
121.0654,1.734
121.0654,1.738
121.0664,1.753
121.0664,1.758
121.0664,1.751
121.0664,1.74
121.0674,1.731
121.0674,1.715
121.0674,1.704
121.0674,1.691
121.0684,1.673
121.0684,1.66
121.0684,1.651
121.0684,1.653
121.0694,1.664
121.0694,1.667
121.0694,1.671
121.0694,1.671
121.0694,1.669
121.0704,1.671
121.0704,1.662
121.0704,1.647
121.0704,1.616
121.0714,1.579
121.0714,1.567
121.0714,1.565
121.0714,1.559
121.0724,1.549
121.0724,1.556
121.0724,1.573
121.0724,1.569
121.0724,1.574
121.0734,1.577
121.0763,1.586
121.0783,1.573
121.0853,1.564
121.0933,1.544
121.0973,1.542
121.0984,1.527
121.0984,1.51
121.0984,1.506
121.0984,1.496
121.0993,1.5
121.0993,1.506
121.0993,1.522
121.0993,1.529
121.1003,1.542
121.1003,1.552
121.1003,1.56
121.1003,1.553
121.1013,1.549
121.1013,1.533
121.1013,1.511
121.1013,1.509
121.1023,1.514
121.1023,1.509
121.1023,1.508
121.1023,1.532
121.1023,1.549
121.1033,1.568
121.1033,1.578
121.1033,1.592
121.1033,1.612
121.1043,1.631
121.1043,1.625
121.1043,1.629
121.1043,1.628
121.1053,1.619
121.1053,1.617
121.1053,1.627
121.1053,1.636
121.1053,1.651
121.1063,1.66
121.1063,1.68
121.1063,1.696
121.1063,1.733
121.1076,1.739
121.1076,1.756
121.1076,1.764
121.1083,1.759
121.1083,1.749
121.1083,1.746
121.1083,1.737
121.1093,1.74
121.1093,1.736
121.1093,1.748
121.1093,1.77
121.1093,1.781
121.1103,1.798
121.1103,1.819
121.1103,1.834
121.1103,1.849
121.1113,1.844
121.1113,1.841
121.1113,1.835
121.1123,1.823
121.1126,1.815
121.1126,1.811
121.1133,1.808
121.1172,1.805
121.1252,1.815
121.1342,1.811
121.1372,1.831
121.1372,1.848
121.1372,1.863
121.1383,1.873
121.1383,1.884
121.1383,1.883
121.1392,1.88
121.1392,1.849
121.1392,1.835
121.1392,1.825
121.1402,1.821
121.1402,1.815
121.1402,1.82
121.1402,1.835
121.1412,1.843
121.1412,1.85
121.1412,1.855
121.1412,1.869
121.1422,1.884
121.1422,1.877
121.1422,1.872
121.1422,1.868
121.1422,1.851
121.1432,1.841
121.1432,1.831
121.1432,1.815
121.1432,1.808
121.1442,1.817
121.1442,1.822
121.1442,1.832
121.1442,1.846
121.1452,1.857
121.1459,1.863
121.1462,1.877
121.1462,1.877
121.1472,1.864
121.1472,1.839
121.1472,1.83
121.1472,1.81
121.1472,1.806
121.1482,1.795
121.1482,1.799
121.1482,1.803
121.1482,1.817
121.1492,1.825
121.1492,1.828
121.1492,1.846
121.1492,1.852
121.1502,1.839
121.1502,1.835
121.1502,1.833
121.1502,1.802
121.1502,1.802
121.1512,1.785
121.1512,1.782
121.1512,1.776
121.1512,1.785
121.1522,1.787
121.1522,1.794
121.1522,1.817
121.1522,1.823
121.1533,1.823
121.1533,1.828
121.1533,1.837
121.1533,1.824
121.1542,1.8
121.1542,1.791
121.1542,1.776
121.1542,1.775
121.1552,1.766
121.1552,1.768
121.1552,1.773
121.1552,1.789
121.1562,1.792
121.1562,1.794
121.1562,1.804
121.1562,1.822
121.1562,1.822
121.1572,1.813
121.1572,1.807
121.1572,1.794
121.1572,1.788
121.1582,1.771
121.1582,1.763
121.1582,1.755
121.1582,1.76
121.1592,1.769
121.1592,1.781
121.1592,1.796
121.1592,1.807
121.1592,1.812
121.1602,1.816
121.1602,1.816
121.1602,1.822
121.1602,1.791
121.1612,1.782
121.1612,1.778
121.1612,1.767
121.1612,1.761
121.1621,1.765
121.1621,1.768
121.1628,1.771
121.1631,1.789
121.1631,1.801
121.1631,1.809
121.1642,1.817
121.1642,1.818
121.1642,1.812
121.1642,1.815
121.1652,1.796
121.1652,1.786
121.1652,1.776
121.1652,1.769
121.1662,1.769
121.1662,1.77
121.1662,1.769
121.1662,1.779
121.1662,1.797
121.1672,1.81
121.1672,1.821
121.1672,1.833
121.1672,1.834
121.1681,1.82
121.1681,1.804
121.1681,1.79
121.1681,1.784
121.1692,1.777
121.1693,1.765
121.1693,1.765
121.1693,1.771
121.1701,1.782
121.1701,1.787
121.1701,1.8
121.1701,1.808
121.1711,1.821
121.1711,1.823
121.1711,1.811
121.1711,1.806
121.1711,1.801
121.1721,1.791
121.1721,1.771
121.1721,1.767
121.1721,1.766
121.1731,1.763
121.1731,1.766
121.1731,1.776
121.1731,1.793
121.1741,1.808
121.1741,1.806
121.1741,1.82
121.1741,1.824
121.1741,1.819
121.1751,1.804
121.1751,1.786
121.1751,1.775
121.1751,1.765
121.1761,1.754
121.1761,1.757
121.1761,1.753
121.1761,1.761
121.1771,1.771
121.1771,1.778
121.1771,1.781
121.1771,1.801
121.1771,1.799
121.1781,1.788
121.1781,1.773
121.1781,1.761
121.1791,1.755
121.1791,1.721
121.1791,1.718
121.1791,1.71
121.1801,1.703
121.1801,1.714
121.1801,1.747
121.1801,1.761
121.1811,1.77
121.1811,1.772
121.1811,1.784
121.1811,1.779
121.1811,1.767
121.1821,1.754
121.1821,1.739
121.6698,1.731
121.6698,1.726
121.6708,1.728
121.6708,1.743
121.6708,1.748
121.6708,1.763
121.6718,1.778
121.6718,1.785
121.6718,1.792
121.6718,1.794
121.6728,1.796
121.6728,1.797
121.6728,1.787
121.6728,1.76
121.6739,1.749
121.6739,1.749
121.6739,1.745
121.6739,1.735
121.6748,1.739
121.6748,1.752
121.6748,1.763
121.6748,1.775
121.6758,1.784
121.6758,1.79
121.6758,1.788
121.6758,1.783
121.6768,1.776
121.6768,1.767
121.6768,1.753
121.6768,1.742
121.6778,1.734
121.6787,1.731
121.6787,1.744
121.6797,1.74
121.6797,1.75
121.6797,1.769
121.6797,1.78
121.6807,1.79
121.6807,1.799
121.6807,1.798
121.6807,1.788
121.6817,1.765
121.6817,1.756
121.6817,1.745
121.6817,1.74
121.6817,1.731
121.6827,1.727
121.6827,1.742
121.6827,1.755
121.6827,1.766
121.6837,1.771
121.6837,1.783
121.6837,1.788
121.6837,1.795
121.6847,1.779
121.6847,1.772
121.6847,1.76
121.6847,1.742
121.6857,1.733
121.6857,1.731
121.6857,1.721
121.6857,1.73
121.6857,1.733
121.6867,1.743
121.6867,1.756
121.6867,1.772
121.6867,1.783
121.6877,1.783
121.6877,1.783
121.6877,1.776
121.6877,1.766
121.6887,1.749
121.6887,1.748
121.6887,1.747
121.6887,1.749
121.6887,1.754
121.6899,1.757
121.6899,1.756
121.6899,1.77
121.6907,1.787
121.6907,1.791
121.6907,1.8
121.6907,1.803
121.6917,1.77
121.6917,1.732
121.6917,1.676
121.6917,1.593
121.6917,1.524
121.6929,1.389
121.6929,1.344
121.6929,1.289
121.6929,1.254
121.6937,1.241
121.6937,1.236
121.6937,1.233
121.6937,1.234
121.6947,1.269
121.6947,1.489
121.6947,1.623
121.6957,1.594
121.6967,1.511
121.6969,1.451
121.6969,1.593
121.6977,1.711
121.6977,1.891
121.6977,2.157
121.6977,2.284
121.6987,2.274
121.6987,2.227
121.6987,2.234
121.6987,2.231
121.6997,2.233
121.6997,2.221
121.6997,2.182
121.6997,2.147
121.6997,2.111
121.7007,2.071
121.7007,2.033
121.7007,1.988
121.7007,1.947
121.7017,1.927
121.7017,1.909
121.7017,1.884
121.7017,1.869
121.7027,1.857
121.7027,1.818
121.7027,1.806
121.7027,1.775
121.7037,1.76
121.7037,1.745
121.7037,1.73
121.7037,1.705
121.7047,1.697
121.7047,1.691
121.7047,1.689
121.7047,1.687
121.7058,1.695
121.7058,1.709
121.7067,1.714
121.7067,1.712
121.7067,1.715
121.7067,1.712
121.7077,1.699
121.7077,1.676
121.7077,1.666
121.7077,1.652
121.7087,1.648
121.7087,1.64
121.7087,1.632
121.7087,1.637
121.7097,1.64
121.7097,1.655
121.7097,1.665
121.7097,1.674
121.7107,1.679
121.7107,1.684
121.7107,1.672
121.7114,1.669
121.7116,1.658
121.7126,1.645
121.7126,1.633
121.7140,1.618
121.7146,1.617
121.7146,1.615
121.7156,1.626
121.7156,1.626
121.7166,1.64
121.7166,1.658
121.7176,1.665
121.7186,1.672
121.7186,1.677
121.7196,1.669
121.7196,1.661
121.7206,1.64
121.7206,1.627
121.7206,1.619
121.7218,1.613
121.7218,1.61
121.7226,1.613
121.7276,1.622
121.7316,1.631
121.7412,1.644
121.7515,1.659
121.7552,1.661
121.7555,1.666
121.7555,1.664
121.7555,1.658
121.7565,1.647
121.7565,1.633
121.7565,1.625
121.7575,1.608
121.7575,1.6
121.7575,1.599
121.7575,1.607
121.7585,1.607
121.7585,1.618
121.7585,1.641
121.7585,1.644
121.7595,1.659
121.7595,1.658
121.7595,1.644
121.7605,1.647
121.7605,1.624
121.7605,1.614
121.7605,1.605
121.7615,1.6
121.7623,1.59
121.7625,1.594
121.7635,1.601
121.7635,1.616
121.7635,1.622
121.7635,1.63
121.7645,1.634
121.7645,1.649
121.7645,1.643
121.7645,1.635
121.7655,1.624
121.7655,1.608
121.7655,1.594
121.7655,1.581
121.7665,1.579
121.7665,1.574
121.7665,1.582
121.7665,1.588
121.7675,1.596
121.7675,1.61
121.7675,1.617
121.7675,1.617
121.7687,1.616
121.7687,1.621
121.7687,1.608
121.7695,1.583
121.7695,1.57
121.7695,1.557
121.7695,1.548
121.7705,1.54
121.7705,1.534
121.7705,1.542
121.7705,1.547
121.7715,1.55
121.7715,1.555
121.7715,1.553
121.7715,1.564
121.7715,1.552
121.7730,1.539
121.7757,1.528
121.7776,1.508
121.7854,1.496
121.7916,1.469
121.7944,1.46
121.7944,1.453
121.7952,1.455
121.7954,1.452
121.7954,1.451
121.7954,1.465
121.7954,1.471
121.7965,1.469
121.7965,1.469
121.7965,1.466
121.7974,1.456
121.7974,1.43
121.7974,1.415
121.7974,1.397
121.7984,1.39
121.7984,1.38
121.7984,1.378
121.7984,1.385
121.7984,1.389
121.7984,1.4
121.7984,1.41
121.7994,1.415
121.7994,1.43
121.7994,1.425
121.7994,1.411
121.7994,1.405
121.7994,1.39
121.8004,1.376
121.8006,1.358
121.8006,1.351
121.8006,1.349
121.8006,1.361
121.8014,1.368
121.8014,1.379
121.8014,1.394
121.8014,1.408
121.8014,1.424
121.8014,1.43
121.8014,1.43
121.8024,1.429
121.8024,1.428
121.8024,1.423
121.8024,1.42
121.8024,1.425
121.8024,1.424
121.8034,1.425
121.8034,1.451
121.8034,1.47
121.8034,1.489
121.8034,1.507
121.8044,1.522
121.8044,1.539
121.8044,1.56
121.8044,1.55
121.8044,1.55
121.8044,1.552
121.8044,1.542
121.8054,1.546
121.8054,1.546
121.8054,1.553
121.8054,1.559
121.8054,1.568
121.8054,1.585
121.8064,1.619
121.8064,1.633
121.8064,1.644
121.8064,1.651
121.8064,1.656
121.8064,1.657
121.8074,1.643
121.8074,1.628
121.8074,1.624
121.8074,1.617
121.8074,1.621
121.8074,1.621
121.8074,1.631
121.8084,1.642
121.8084,1.658
121.8084,1.666
121.8084,1.681
121.8084,1.692
121.8084,1.701
121.8094,1.697
121.8094,1.694
121.8094,1.68
121.8094,1.669
121.8094,1.655
121.8094,1.641
121.8104,1.643
121.8104,1.647
121.8104,1.651
121.8104,1.669
121.8104,1.687
121.8104,1.698
121.8114,1.704
121.8114,1.709
121.8114,1.707
121.8124,1.706
121.8124,1.681
121.8124,1.667
121.8134,1.666
121.8134,1.659
121.8134,1.646
121.8134,1.646
121.8134,1.644
121.8144,1.664
121.8144,1.657
121.8144,1.672
121.8144,1.685
121.8144,1.694
121.8144,1.701
121.8154,1.696
121.8154,1.69
121.8154,1.678
121.8154,1.665
121.8164,1.641
121.8164,1.632
121.8164,1.633
121.8164,1.635
121.8164,1.638
121.8174,1.647
121.8174,1.669
121.8174,1.676
121.8174,1.68
121.8174,1.684
121.8174,1.688
121.8184,1.674
121.8184,1.669
121.8184,1.647
121.8184,1.635
121.8184,1.628
121.8184,1.625
121.8194,1.627
121.8194,1.62
121.8194,1.628
121.8194,1.647
121.8194,1.652
121.8194,1.661
121.8204,1.664
121.8204,1.679
121.8204,1.667
121.8204,1.661
121.8204,1.645
121.8213,1.635
121.8213,1.617
121.8213,1.611
121.8213,1.609
121.8213,1.604
121.8213,1.614
121.8223,1.62
121.8223,1.644
121.8223,1.651
121.8223,1.654
121.8223,1.661
121.8233,1.668
121.8233,1.657
121.8233,1.633
121.8233,1.618
121.8233,1.615
121.8233,1.604
121.8243,1.592
121.8243,1.591
121.8243,1.601
121.8243,1.614
121.8243,1.623
121.8253,1.635
121.8253,1.645
121.8253,1.657
121.8253,1.658
121.8263,1.655
121.8263,1.645
121.8263,1.635
121.8263,1.622
121.8263,1.606
121.8273,1.592
121.8273,1.587
121.8273,1.59
121.8273,1.604
121.8273,1.605
121.8273,1.628
121.8283,1.637
121.8287,1.643
121.8293,1.654
121.8293,1.661
121.8293,1.66
121.8303,1.635
121.8303,1.623
121.8303,1.616
121.8303,1.611
121.8303,1.609
121.8303,1.601
121.8314,1.605
121.8314,1.613
121.8314,1.618
121.8323,1.63
121.8323,1.655
121.8323,1.66
121.8323,1.661
121.8323,1.658
121.8323,1.657
121.8335,1.646
121.8353,1.634
121.8398,1.616
121.8436,1.606
121.8503,1.606
121.8526,1.603
121.8549,1.614
121.8549,1.62
121.8553,1.647
121.8553,1.655
121.8553,1.665
121.8553,1.665
121.8553,1.666
121.8553,1.663
121.8563,1.649
121.8563,1.631
121.8563,1.625
121.8563,1.615
121.8563,1.611
121.8563,1.604
121.8573,1.604
121.8573,1.611
121.8573,1.631
121.8573,1.64
121.8573,1.648
121.8573,1.666
121.8583,1.669
121.8583,1.659
121.8583,1.652
121.8583,1.647
121.8583,1.642
121.8583,1.621
121.8583,1.611
121.8592,1.611
121.8592,1.617
121.8592,1.622
121.8592,1.631
121.8592,1.64
121.8592,1.661
121.8602,1.669
121.8602,1.656
121.8602,1.645
121.8602,1.633
121.8602,1.618
121.8602,1.602
121.8602,1.593
122.5794,1.575
122.5853,1.572
122.5853,1.574
122.5863,1.575
122.5863,1.583
122.5873,1.591
122.5873,1.617
122.5883,1.619
122.5883,1.625
122.5883,1.614
122.5893,1.607
122.5893,1.609
122.5903,1.585
122.5903,1.58
122.5913,1.581
122.5913,1.577
122.5913,1.571
122.5923,1.581
122.5923,1.6
122.5933,1.617
122.5933,1.633
122.5943,1.638
122.5943,1.656
122.5953,1.653
122.5957,1.648
122.5963,1.643
122.5963,1.628
122.5973,1.622
122.5973,1.613
122.5973,1.603
122.5983,1.592
122.5983,1.605
122.5993,1.607
122.5993,1.618
122.6003,1.63
122.6044,1.643
122.6074,1.652
122.6232,1.666
122.6432,1.667
122.6512,1.651
122.6581,1.651
122.6805,1.636
122.7021,1.632
122.7052,1.607
122.7130,1.607
122.7210,1.607
122.7519,1.614
122.7559,1.623
122.7599,1.631
122.7669,1.642
122.7828,1.657
122.8007,1.663
122.8059,1.667
122.8117,1.654
122.8127,1.656
122.8127,1.648
122.8142,1.63
122.8147,1.624
122.8157,1.615
122.8157,1.612
122.8157,1.617
122.8167,1.624
122.8167,1.63
122.8179,1.633
122.8237,1.659
122.8396,1.665
122.8556,1.665
122.8586,1.669
122.8646,1.664
122.8726,1.659
122.8865,1.638
122.8875,1.629
122.9035,1.62
122.9071,1.615
122.9115,1.623
122.9125,1.612
122.9137,1.627
122.9144,1.641
122.9144,1.65
122.9154,1.658
122.9154,1.665
122.9164,1.669
122.9164,1.665
122.9174,1.66
122.9174,1.65
122.9174,1.641
122.9184,1.624
122.9184,1.614
122.9194,1.615
122.9194,1.616
122.9194,1.637
122.9204,1.651
122.9204,1.663
122.9214,1.693
122.9214,1.688
122.9214,1.679
122.9214,1.678
122.9224,1.676
122.9224,1.681
122.9224,1.668
122.9234,1.649
122.9234,1.625
122.9234,1.589
122.9234,1.531
122.9244,1.451
122.9244,1.327
122.9244,1.289
122.9244,1.259
122.9254,1.24
122.9254,1.233
122.9254,1.23
122.9254,1.229
122.9264,1.228
122.9264,1.228
122.9264,1.228
122.9264,1.236
122.9276,1.309
122.9304,1.359
122.9324,1.28
122.9374,1.29
122.9444,1.444
122.9471,1.595
122.9474,1.746
122.9474,1.989
122.9474,2.21
122.9474,2.227
122.9474,2.195
122.9474,2.174
122.9474,2.155
122.9484,2.136
122.9484,2.062
122.9484,2.058
122.9484,2.04
122.9484,2.015
122.9484,1.989
122.9484,1.963
122.9494,1.94
122.9494,1.931
122.9494,1.907
122.9494,1.888
122.9494,1.861
122.9494,1.826
122.9494,1.747
122.9503,1.714
122.9503,1.703
122.9503,1.685
122.9503,1.666
122.9503,1.648
122.9503,1.641
122.9503,1.645
122.9513,1.649
122.9513,1.663
122.9513,1.668
122.9513,1.681
122.9513,1.679
122.9513,1.665
122.9513,1.655
122.9523,1.642
122.9523,1.633
122.9523,1.605
122.9523,1.586
122.9523,1.58
122.9523,1.575
122.9523,1.582
122.9533,1.586
122.9533,1.594
122.9533,1.611
122.9533,1.62
122.9533,1.63
122.9533,1.633
122.9533,1.631
122.9543,1.623
122.9543,1.595
122.9543,1.583
122.9543,1.568
122.9543,1.57
122.9543,1.562
122.9543,1.555
122.9553,1.572
122.9553,1.575
122.9553,1.59
122.9553,1.599
122.9553,1.607
122.9553,1.614
122.9553,1.617
122.9553,1.612
122.9563,1.607
122.9563,1.589
122.9563,1.577
122.9563,1.567
122.9563,1.565
122.9563,1.556
122.9563,1.577
122.9573,1.566
122.9573,1.571
122.9573,1.594
122.9573,1.603
122.9573,1.608
122.9573,1.608
122.9573,1.606
122.9583,1.607
122.9583,1.596
122.9583,1.579
122.9583,1.569
122.9583,1.563
122.9583,1.555
122.9583,1.561
122.9595,1.562
122.9595,1.576
122.9595,1.585
122.9595,1.597
122.9603,1.602
122.9603,1.614
122.9603,1.615
122.9603,1.606
122.9613,1.6
122.9613,1.583
122.9613,1.583
122.9624,1.57
122.9624,1.56
122.9624,1.56
122.9633,1.564
122.9633,1.566
122.9633,1.581
122.9633,1.593
122.9633,1.598
122.9643,1.607
122.9643,1.615
122.9643,1.607
122.9650,1.6
122.9650,1.596
122.9653,1.587
122.9653,1.571
122.9653,1.556
122.9653,1.555
122.9653,1.557
122.9653,1.557
122.9653,1.565
122.9664,1.577
122.9664,1.591
122.9664,1.59
122.9664,1.6
122.9664,1.604
122.9664,1.592
122.9674,1.585
122.9674,1.572
122.9674,1.558
122.9683,1.546
122.9683,1.531
122.9683,1.533
122.9693,1.534
122.9693,1.534
122.9697,1.543
122.9697,1.549
122.9697,1.56
122.9703,1.568
122.9703,1.564
122.9703,1.561
122.9703,1.557
122.9703,1.548
122.9703,1.508
122.9703,1.496
122.9713,1.491
122.9713,1.485
122.9713,1.469
122.9713,1.463
122.9713,1.466
122.9713,1.47
122.9713,1.482
122.9723,1.489
122.9723,1.5
122.9723,1.482
122.9723,1.463
122.9723,1.452
122.9723,1.44
122.9723,1.426
122.9733,1.421
122.9753,1.391
122.9827,1.386
122.9883,1.384
122.9902,1.386
122.9923,1.4
122.9923,1.403
122.9923,1.424
122.9923,1.422
122.9932,1.425
122.9932,1.43
122.9932,1.422
122.9932,1.412
122.9932,1.387
122.9942,1.375
122.9942,1.363
122.9942,1.365
122.9942,1.352
122.9942,1.347
122.9952,1.354
122.9954,1.372
122.9954,1.378
122.9962,1.392
122.9962,1.397
122.9962,1.409
122.9962,1.399
122.9962,1.401
122.9962,1.399
122.9972,1.394
122.9972,1.374
122.9972,1.37
122.9972,1.376
122.9972,1.384
122.9972,1.397
122.9972,1.407
122.9982,1.43
122.9982,1.448
122.9982,1.477
122.9982,1.491
122.9982,1.495
122.9982,1.498
122.9992,1.502
122.9992,1.493
122.9992,1.493
122.9992,1.484
122.9992,1.48
122.9992,1.495
123.0002,1.503
123.0002,1.527
123.0002,1.546
123.0002,1.567
123.0002,1.585
123.0002,1.592
123.0012,1.606
123.0012,1.611
123.0012,1.611
123.0012,1.604
123.0012,1.598
123.0012,1.593
123.0022,1.585
123.0022,1.591
123.0022,1.591
123.0022,1.601
123.0022,1.617
123.0022,1.634
123.0032,1.64
123.0032,1.652
123.0032,1.666
123.0032,1.671
123.0032,1.661
123.0032,1.669
123.0032,1.657
123.0042,1.634
123.0042,1.622
123.0042,1.62
123.0042,1.613
123.0042,1.616
123.0042,1.631
123.0052,1.642
123.0052,1.659
123.0052,1.671
123.0052,1.671
123.0052,1.676
123.0062,1.677
123.0064,1.672
123.0064,1.67
123.0064,1.649
123.0064,1.643
123.0072,1.632
123.0072,1.626
123.0072,1.623
123.0072,1.619
123.0072,1.632
123.0072,1.648
123.0082,1.655
123.0082,1.672
123.0082,1.686
123.0082,1.687
123.0082,1.673
123.0082,1.678
123.0092,1.657
123.0092,1.638
123.0092,1.628
123.0092,1.623
123.0092,1.618
123.0092,1.623
123.0092,1.639
123.0102,1.649
123.0102,1.659
123.0102,1.659
123.0102,1.673
123.0102,1.683
123.0102,1.678
123.0112,1.672
123.0112,1.659
123.0112,1.649
123.0112,1.64
123.0112,1.625
123.0122,1.623
123.0122,1.621
123.0122,1.624
123.0122,1.632
123.0132,1.642
123.0132,1.652
123.0132,1.669
123.0132,1.669
123.0132,1.664
123.0132,1.67
123.0142,1.668
123.0142,1.662
123.0142,1.635
123.0142,1.623
123.0142,1.614
123.0142,1.615
123.0142,1.612
123.0152,1.622
123.0152,1.629
123.0152,1.646
123.0152,1.654
123.0152,1.665
123.0152,1.67
123.0162,1.666
123.0162,1.659
123.0162,1.652
123.0162,1.644
123.0162,1.636
123.0162,1.62
123.0172,1.615
123.0172,1.62
123.0172,1.61
123.0172,1.613
123.0172,1.629
123.0172,1.631
123.0182,1.654
123.0182,1.665
123.0182,1.669
123.0182,1.666
123.0182,1.66
123.0182,1.647
123.0192,1.636
123.0192,1.624
123.0192,1.616
123.0192,1.609
123.0192,1.604
123.0192,1.616
123.0192,1.626
123.0202,1.636
123.0202,1.65
123.0202,1.659
123.0202,1.663
123.0202,1.667
123.0202,1.66
123.0212,1.657
123.0212,1.643
123.0212,1.634
123.0212,1.626
123.0212,1.618
123.0212,1.62
123.0223,1.624
123.0223,1.613
123.0223,1.626
123.0223,1.64
123.0223,1.666
123.0232,1.668
123.0232,1.679
123.0232,1.676
123.0232,1.665
123.0232,1.663
123.0241,1.637
123.0241,1.63
123.0241,1.621
123.0241,1.618
123.0241,1.619
123.0241,1.628
123.0251,1.632
123.0251,1.639
123.0251,1.661
123.0251,1.665
123.0251,1.672
123.0251,1.675
123.0261,1.669
123.0261,1.67
123.0261,1.644
123.0261,1.64
123.0261,1.63
123.0261,1.622
123.0271,1.619
123.0271,1.623
123.0271,1.633
123.0271,1.651
123.0271,1.646
123.0271,1.668
123.0281,1.684
123.0281,1.684
123.0285,1.667
123.0285,1.654
123.0285,1.648
123.0291,1.637
123.0291,1.623
123.0291,1.628
123.0291,1.631
123.0291,1.629
123.0291,1.643
123.0291,1.658
123.0301,1.67
123.0301,1.677
123.0301,1.684
123.0301,1.688
123.0301,1.678
123.0301,1.665
123.0301,1.651
123.0311,1.637
123.0311,1.614
123.0311,1.603
123.0311,1.598
123.0311,1.595
123.0311,1.596
123.0311,1.618
123.0321,1.623
123.0321,1.629
123.0321,1.635
123.0321,1.642
123.0321,1.645
123.0321,1.635
123.0321,1.62
123.0321,1.616
123.0331,1.621
123.0331,1.594
123.0331,1.595
123.0331,1.6
123.0331,1.607
123.0341,1.617
123.0341,1.628
123.0341,1.643
123.0341,1.657
123.0341,1.663
123.0341,1.682
123.0341,1.679
123.0341,1.672
123.0351,1.661
123.0351,1.637
123.0351,1.626
123.0351,1.625
123.0351,1.628
123.0351,1.625
123.0351,1.625
123.0361,1.649
123.0361,1.662
123.0361,1.675
123.0361,1.686
123.0361,1.69
123.0361,1.687
123.0361,1.679
123.0372,1.669
123.0391,1.655
123.0441,1.649
123.0491,1.637
123.0511,1.626
123.0521,1.63
123.0521,1.639
123.0521,1.637
123.0521,1.647
123.0521,1.657
123.0521,1.662
123.0532,1.688
123.0532,1.684
123.0532,1.679
123.0532,1.676
123.0532,1.668
123.0541,1.65
123.0541,1.641
123.0541,1.645
123.0541,1.645
123.0541,1.625
123.0541,1.63
123.0541,1.659
123.0551,1.673
123.0551,1.685
123.0551,1.684
123.0551,1.69
123.0551,1.687
123.0551,1.686
123.0551,1.681
123.0561,1.658
123.0561,1.653
123.0561,1.654
123.0561,1.638
123.0561,1.637
123.0561,1.645
123.0561,1.649
123.0571,1.655
123.0571,1.663
123.0571,1.673
123.0571,1.687
123.0571,1.695
123.0571,1.691
123.0571,1.688
123.0581,1.678
123.0581,1.667
123.0581,1.649
123.0581,1.65
123.0581,1.635
123.0581,1.641
123.0581,1.645
123.0591,1.651
123.0591,1.686
123.0591,1.702
123.0591,1.716
123.0591,1.728
123.0591,1.724
123.0591,1.708
123.0601,1.693
123.0601,1.684
123.0601,1.677
123.0601,1.664
123.0601,1.664
123.0601,1.658
123.0601,1.566
123.0611,1.513
123.0611,1.439
123.0611,1.378
123.0611,1.32
123.0611,1.284
123.0611,1.237
123.0621,1.231
123.0621,1.229
123.0621,1.229
123.0621,1.228
123.0630,1.227
123.0630,1.229
123.0630,1.255
123.0630,1.325
123.0630,1.331
123.0630,1.289
123.0630,1.3
123.0640,1.58
123.0640,1.744
123.0640,1.951
123.0640,2.163
123.0640,2.253
123.0640,2.269
123.0640,2.216
123.0650,2.196
123.0650,2.192
123.0650,2.163
123.0650,2.1
123.0650,2.098
123.0650,2.067
123.0650,2.051
123.0660,2.033
123.0660,2.02
123.0660,2.0
123.0660,1.982
123.0660,1.931
123.0660,1.895
123.0660,1.858
123.0670,1.808
123.0670,1.767
123.0670,1.743
123.0670,1.706
123.0670,1.695
123.0670,1.697
123.0670,1.678
123.0680,1.68
123.0680,1.697
123.0680,1.704
123.0680,1.712
123.0680,1.721
123.0680,1.719
123.0680,1.703
123.0690,1.695
123.0692,1.656
123.0692,1.635
123.0692,1.625
123.0692,1.61
123.0692,1.612
123.0700,1.609
123.0700,1.622
123.0700,1.632
123.0700,1.639
123.0700,1.645
123.0700,1.652
123.0700,1.658
123.0711,1.665
123.0711,1.647
123.0711,1.637
123.0711,1.622
123.0711,1.61
123.0711,1.605
123.0720,1.596
123.0720,1.605
123.0720,1.597
123.0720,1.608
123.0720,1.621
123.0720,1.631
123.0720,1.647
123.0720,1.657
123.0730,1.659
123.0730,1.647
123.0730,1.635
123.0730,1.623
123.0730,1.605
123.0730,1.604
123.0730,1.589
123.0740,1.59
123.0740,1.593
123.0740,1.602
123.0740,1.622
123.0740,1.632
123.0740,1.638
123.0740,1.639
123.0750,1.647
123.0750,1.652
123.0750,1.637
123.0750,1.63
123.0750,1.616
123.0750,1.605
123.0750,1.599
123.0760,1.595
123.0760,1.598
123.0760,1.605
123.0760,1.611
123.0760,1.627
123.0760,1.635
123.0760,1.65
123.0770,1.656
123.0770,1.662
123.0770,1.655
123.0770,1.649
123.0770,1.638
123.0770,1.625
123.0770,1.609
123.0780,1.604
123.0780,1.602
123.0780,1.602
123.0780,1.606
123.0788,1.627
123.0790,1.642
123.0790,1.647
123.0790,1.653
123.0790,1.656
123.0790,1.66
123.0790,1.646
123.0800,1.636
123.0800,1.622
123.0800,1.61
123.0800,1.606
123.0800,1.601
123.0800,1.599
123.0800,1.604
123.0810,1.609
123.0810,1.62
123.0810,1.627
123.0810,1.643
123.0810,1.649
123.0810,1.647
123.0810,1.642
123.0820,1.633
123.0820,1.621
123.0820,1.604
123.0820,1.592
123.0820,1.585
123.0820,1.58
123.0820,1.575
123.0830,1.58
123.0850,1.594
123.0850,1.604
123.0910,1.61
123.0970,1.608
123.0980,1.612
123.0990,1.605
123.0990,1.593
123.0990,1.58
123.0990,1.561
123.0990,1.546
123.1000,1.534
123.1000,1.525
123.1000,1.514
123.1000,1.518
123.1000,1.515
123.1000,1.521
123.1000,1.528
123.1010,1.537
123.1010,1.534
123.1010,1.53
123.1010,1.52
123.1010,1.51
123.1010,1.497
123.1010,1.466
123.1020,1.452
123.1020,1.442
123.1020,1.437
123.1020,1.436
123.1020,1.438
123.1020,1.442
123.1020,1.452
123.1030,1.465
123.1030,1.463
123.1030,1.477
123.1030,1.462
123.1030,1.458
123.1030,1.452
123.1040,1.442
123.1040,1.423
123.1040,1.412
123.1040,1.401
123.1040,1.398
123.1040,1.401
123.1040,1.409
123.1040,1.421
123.1050,1.425
123.1050,1.444
123.1050,1.457
123.1050,1.46
123.1050,1.455
123.1050,1.458
123.1050,1.457
123.1060,1.436
123.1060,1.437
123.1060,1.432
123.1060,1.428
123.1060,1.437
123.1060,1.467
123.1060,1.477
123.1070,1.499
123.1070,1.524
123.1070,1.532
123.1070,1.54
123.1070,1.569
123.1070,1.562
123.1070,1.558
123.1080,1.557
123.1080,1.553
123.1080,1.553
123.1080,1.561
123.1080,1.562
123.1080,1.573
123.1080,1.591
123.1090,1.607
123.1090,1.626
123.1090,1.663
123.1090,1.677
123.1090,1.688
123.1090,1.691
123.1090,1.692
123.1100,1.689
123.1100,1.675
123.1100,1.666
123.1100,1.666
123.1100,1.666
123.1100,1.671
123.1100,1.68
123.1110,1.698
123.1110,1.716
123.1110,1.73
123.1110,1.736
123.1110,1.751
123.1110,1.758
123.1120,1.752
123.1120,1.747
123.1120,1.74
123.1129,1.726
123.1129,1.719
123.1129,1.712
123.1129,1.711
123.1129,1.714
123.1139,1.716
123.1139,1.728
123.1139,1.743
123.1139,1.757
123.1139,1.771
123.1139,1.775
123.1139,1.774
123.1149,1.766
123.1150,1.751
123.1150,1.733
123.1150,1.726
123.1150,1.72
123.1159,1.716
123.1159,1.716
123.1159,1.72
123.1159,1.746
123.1159,1.751
123.1159,1.76
123.1159,1.769
123.1169,1.773
123.1169,1.782
123.1169,1.773
123.1169,1.768
123.1169,1.76
123.1169,1.741
123.1169,1.729
123.1169,1.719
123.1179,1.718
123.1179,1.719
123.1179,1.723
123.1179,1.734
123.1179,1.749
123.1179,1.764
123.1179,1.772
123.1189,1.777
123.1189,1.778
123.1189,1.767
123.1189,1.756
123.1189,1.739
123.1189,1.732
123.1189,1.729
123.1199,1.724
123.1199,1.715
123.1199,1.726
123.1199,1.738
123.1199,1.75
123.1199,1.753
123.1199,1.759
123.1209,1.766
123.1209,1.769
123.1209,1.768
123.1209,1.758
123.1209,1.751
123.1209,1.744
123.1209,1.73
123.1219,1.718
123.1219,1.72
123.1219,1.719
123.1219,1.724
123.1219,1.734
123.1219,1.742
123.1219,1.764
123.1229,1.766
123.1229,1.771
123.1229,1.771
123.1229,1.758
123.1229,1.753
123.1229,1.737
123.1229,1.73
123.1239,1.729
123.1239,1.727
123.1239,1.716
123.1239,1.72
123.1239,1.728
123.1239,1.737
123.1239,1.75
123.1249,1.762
123.1249,1.768
123.1249,1.782
123.1249,1.775
123.1249,1.767
123.1249,1.761
123.1249,1.743
123.1259,1.735
123.1259,1.721
123.1259,1.716
123.1259,1.72
123.1259,1.728
123.1259,1.736
123.1259,1.747
123.1269,1.773
123.1269,1.774
123.1269,1.781
123.1269,1.79
123.1269,1.778
123.1269,1.758
123.1269,1.751
123.1279,1.738
123.1279,1.73
123.1279,1.728
123.1279,1.724
123.1279,1.737
123.1290,1.74
123.1290,1.749
123.1290,1.767
123.1299,1.781
123.1299,1.778
123.1299,1.798
123.1299,1.784
123.1299,1.769
123.1299,1.763
123.1299,1.751
123.1309,1.74
123.1309,1.732
123.1309,1.735
123.1309,1.73
123.1309,1.734
123.1319,1.748
123.1319,1.768
123.1319,1.774
123.1319,1.778
123.1319,1.793
123.1319,1.787
123.1319,1.777
123.1329,1.763
123.1329,1.759
123.1329,1.75
123.1329,1.742
123.1329,1.739
123.1329,1.741
123.7153,1.75
123.7183,1.764
123.7183,1.776
123.7193,1.791
123.7193,1.804
123.7193,1.808
123.7203,1.796
123.7203,1.789
123.7203,1.778
123.7203,1.754
123.7203,1.746
123.7213,1.738
123.7213,1.725
123.7213,1.726
123.7213,1.733
123.7223,1.746
123.7223,1.752
123.7223,1.758
123.7223,1.76
123.7233,1.758
123.7233,1.757
123.7233,1.741
123.7233,1.735
123.7243,1.727
123.7243,1.718
123.7243,1.705
123.7243,1.7
123.7253,1.698
123.7253,1.714
123.7253,1.72
123.7253,1.73
123.7263,1.746
123.7264,1.758
123.7264,1.774
123.7273,1.781
123.7273,1.775
123.7273,1.771
123.7273,1.769
123.7283,1.754
123.7283,1.746
123.7293,1.734
123.7293,1.723
123.7293,1.726
123.7303,1.734
123.7303,1.747
123.7303,1.762
123.7303,1.773
123.7313,1.785
123.7313,1.791
123.7313,1.798
123.7313,1.797
123.7313,1.784
123.7323,1.763
123.7323,1.755
123.7323,1.741
123.7323,1.737
123.7333,1.734
123.7333,1.742
123.7333,1.748
123.7343,1.754
123.7343,1.769
123.7343,1.779
123.7343,1.787
123.7343,1.794
123.7353,1.784
123.7353,1.776
123.7353,1.777
123.7353,1.75
123.7363,1.745
123.7363,1.739
123.7363,1.73
123.7363,1.734
123.7373,1.742
123.7373,1.76
123.7373,1.77
123.7373,1.778
123.7373,1.79
123.7383,1.791
123.7383,1.794
123.7383,1.785
123.7383,1.786
123.7393,1.764
123.7393,1.752
123.7393,1.744
123.7393,1.732
123.7403,1.734
123.7403,1.747
123.7403,1.748
123.7403,1.756
123.7413,1.757
123.7413,1.784
123.7413,1.793
123.7413,1.796
123.7452,1.793
123.7465,1.779
123.7542,1.779
123.7702,1.766
123.7722,1.739
123.7761,1.736
123.7761,1.735
123.7761,1.732
123.7771,1.74
123.7771,1.748
123.7771,1.758
123.7771,1.772
123.7781,1.788
123.7781,1.798
123.7788,1.795
123.7791,1.808
123.7791,1.811
123.7791,1.806
123.7801,1.785
123.7801,1.76
123.7801,1.755
123.7801,1.748
123.7811,1.748
123.7811,1.76
123.7811,1.776
123.7811,1.781
123.7821,1.778
123.7821,1.711
123.7821,1.653
123.7821,1.597
123.7821,1.514
123.7831,1.459
123.7831,1.418
123.7831,1.274
123.7831,1.244
123.7841,1.237
123.7841,1.236
123.7841,1.234
123.7841,1.234
123.7851,1.278
123.7851,1.667
123.7851,1.636
123.7851,1.559
123.7861,1.546
123.7861,1.542
123.7861,1.702
123.7861,2.053
123.7871,2.299
123.7871,2.406
123.7871,2.383
123.7871,2.342
123.7871,2.277
123.7884,2.262
123.7884,2.259
123.7891,2.258
123.7891,2.265
123.7891,2.244
123.7891,2.215
123.7891,2.155
123.7901,2.124
123.7901,2.081
123.7901,2.042
123.7911,2.009
123.7911,1.942
123.7911,1.902
123.7911,1.862
123.7921,1.827
123.7921,1.812
123.7921,1.802
123.7921,1.794
123.7931,1.79
123.7934,1.794
123.7934,1.786
123.7941,1.79
123.7941,1.774
123.7941,1.756
123.7941,1.744
123.7951,1.731
123.7951,1.721
123.7961,1.707
123.7961,1.697
123.7961,1.698
123.7971,1.697
123.7971,1.706
123.7971,1.715
123.7971,1.717
123.7981,1.722
123.7981,1.732
123.7981,1.72
123.7981,1.721
123.7991,1.704
123.7991,1.687
123.7991,1.679
123.7991,1.661
123.8001,1.656
123.8001,1.65
123.8001,1.656
123.8001,1.664
123.8011,1.68
123.8011,1.695
123.8011,1.697
123.8011,1.701
123.8011,1.702
123.8021,1.703
123.8021,1.702
123.8021,1.671
123.8021,1.662
123.8031,1.663
123.8034,1.65
123.8071,1.646
123.8151,1.64
123.8244,1.654
123.8260,1.669
123.8300,1.68
123.8310,1.687
123.8310,1.686
123.8310,1.703
123.8310,1.691
123.8320,1.688
123.8320,1.676
123.8320,1.665
123.8320,1.655
123.8320,1.637
123.8330,1.638
123.8330,1.634
123.8330,1.641
123.8340,1.646
123.8340,1.654
123.8340,1.676
123.8340,1.687
123.8352,1.696
123.8352,1.69
123.8360,1.676
123.8360,1.671
123.8360,1.65
123.8360,1.642
123.8360,1.632
123.8370,1.628
123.8370,1.626
123.8370,1.623
123.8370,1.643
123.8380,1.659
123.8380,1.658
123.8380,1.672
123.8380,1.669
123.8390,1.678
123.8390,1.674
123.8390,1.657
123.8390,1.652
123.8400,1.639
123.8400,1.623
123.8400,1.619
123.8400,1.613
123.8410,1.614
123.8410,1.613
123.8410,1.622
123.8410,1.628
123.8420,1.643
123.8420,1.649
123.8420,1.656
123.8420,1.66
123.8420,1.648
123.8430,1.644
123.8430,1.622
123.8430,1.607
123.8440,1.587
123.8440,1.58
123.8440,1.575
123.8440,1.578
123.8453,1.581
123.8459,1.591
123.8459,1.597
123.8459,1.599
123.8470,1.609
123.8470,1.605
123.8470,1.604
123.8470,1.597
123.8479,1.586
123.8479,1.565
123.8479,1.544
123.8479,1.519
123.8489,1.511
123.8489,1.502
123.8489,1.511
123.8489,1.507
123.8499,1.516
123.8499,1.525
123.8499,1.525
123.8499,1.526
123.8509,1.528
123.8550,1.513
123.8639,1.496
123.8719,1.462
123.8729,1.447
123.8745,1.429
123.8769,1.422
123.8769,1.413
123.8769,1.407
123.8769,1.407
123.8769,1.419
123.8779,1.419
123.8779,1.421
123.8779,1.431
123.8792,1.439
123.8792,1.425
123.8792,1.426
123.8792,1.408
123.8799,1.39
123.8799,1.38
123.8799,1.368
123.8799,1.353
123.8809,1.353
123.8809,1.358
123.8809,1.355
123.8809,1.359
123.8819,1.393
123.8819,1.398
123.8819,1.397
123.8819,1.409
123.8829,1.406
123.8829,1.403
123.8829,1.379
123.8829,1.371
123.8838,1.363
123.8838,1.357
123.8838,1.359
123.8838,1.365
123.8838,1.385
123.8848,1.402
123.8848,1.426
123.8848,1.446
123.8848,1.448
123.8858,1.463
123.8858,1.482
123.8858,1.48
123.8858,1.489
123.8868,1.481
123.8868,1.476
123.8868,1.476
123.8868,1.482
123.8868,1.491
123.8878,1.504
123.8878,1.524
123.8878,1.536
123.8878,1.556
123.8888,1.593
123.8888,1.601
123.8888,1.62
123.8888,1.62
123.8898,1.617
123.8898,1.623
123.8898,1.607
123.8898,1.604
123.8898,1.606
123.8908,1.602
123.8908,1.608
123.8908,1.626
123.8908,1.641
123.8918,1.659
123.8918,1.674
123.8918,1.689
123.8918,1.689
123.8928,1.693
123.8928,1.689
123.8928,1.691
123.8928,1.68
123.8938,1.665
123.8938,1.662
123.8938,1.661
123.8938,1.663
123.8948,1.666
123.8948,1.672
123.8948,1.688
123.8956,1.697
123.8958,1.719
123.8958,1.727
123.8958,1.736
123.8968,1.735
123.8968,1.726
123.8968,1.718
123.8968,1.696
123.8979,1.692
123.8979,1.677
123.8979,1.673
123.8988,1.669
123.8988,1.679
123.8988,1.685
123.8988,1.699
123.8998,1.705
123.8998,1.707
123.8998,1.722
123.8998,1.73
123.9008,1.719
123.9008,1.715
123.9008,1.706
123.9008,1.686
123.9008,1.679
123.9018,1.667
123.9018,1.666
123.9018,1.662
123.9018,1.667
123.9028,1.676
123.9028,1.686
123.9028,1.704
123.9028,1.719
123.9038,1.718
123.9038,1.71
123.9038,1.704
123.9038,1.69
123.9048,1.66
123.9048,1.652
123.9048,1.645
123.9048,1.64
123.9048,1.646
123.9058,1.643
123.9058,1.646
123.9058,1.653
123.9058,1.664
123.9068,1.676
123.9068,1.678
123.9068,1.688
123.9068,1.678
123.9078,1.674
123.9078,1.663
123.9078,1.646
123.9078,1.64
123.9078,1.619
123.9088,1.621
123.9088,1.622
123.9088,1.631
123.9088,1.631
123.9098,1.648
123.9098,1.661
123.9098,1.667
123.9098,1.676
123.9108,1.678
123.9108,1.666
123.9108,1.653
123.9108,1.637
123.9118,1.627
123.9118,1.622
123.9118,1.618
123.9128,1.612
123.9148,1.615
123.9237,1.616
123.9327,1.631
123.9359,1.64
123.9387,1.649
123.9387,1.656
123.9387,1.669
123.9397,1.662
123.9397,1.653
123.9397,1.647
123.9397,1.633
123.9407,1.617
123.9407,1.621
123.9407,1.608
123.9407,1.607
123.9407,1.611
123.9417,1.618
123.9417,1.641
123.9417,1.649
123.9417,1.652
123.9427,1.667
123.9431,1.666
123.9431,1.658
123.9437,1.647
123.9437,1.633
123.9437,1.617
123.9437,1.61
123.9447,1.602
123.9452,1.605
123.9457,1.612
123.9457,1.614
123.9467,1.628
123.9467,1.639
123.9467,1.649
123.9467,1.66
123.9477,1.665
123.9477,1.666
123.9477,1.657
123.9477,1.647
123.9487,1.638
123.9487,1.617
123.9487,1.616
123.9487,1.61
123.9497,1.609
123.9497,1.614
123.9497,1.621
123.9497,1.644
123.9507,1.657
123.9507,1.659
123.9507,1.661
123.9507,1.669
123.9517,1.665
123.9517,1.625
123.9517,1.609
123.9517,1.599
123.9517,1.585
123.9527,1.582
123.9527,1.595
123.9527,1.596
124.6239,1.607
124.6249,1.61
124.6249,1.621
124.6249,1.622
124.6249,1.622
124.6249,1.618
124.6249,1.607
124.6249,1.602
124.6259,1.577
124.6259,1.578
124.6259,1.578
124.6259,1.572
124.6259,1.567
124.6259,1.588
124.6259,1.597
124.6259,1.603
124.6269,1.62
124.6269,1.635
124.6269,1.642
124.6269,1.652
124.6269,1.645
124.6269,1.637
124.6269,1.62
124.6279,1.608
124.6282,1.6
124.6282,1.589
124.6282,1.583
124.6282,1.59
124.6289,1.599
124.6289,1.618
124.6289,1.627
124.6289,1.652
124.6289,1.658
124.6289,1.659
124.6289,1.652
124.6299,1.643
124.6299,1.639
124.6299,1.614
124.6299,1.597
124.6299,1.585
124.6299,1.584
124.6299,1.585
124.6309,1.6
124.6309,1.606
124.6309,1.624
124.6309,1.632
124.6309,1.645
124.6309,1.645
124.6309,1.646
124.6318,1.64
124.6318,1.626
124.6318,1.613
124.6318,1.607
124.6318,1.602
124.6318,1.59
124.6318,1.581
124.6328,1.593
124.6328,1.594
124.6328,1.607
124.6328,1.63
124.6328,1.639
124.6328,1.642
124.6328,1.65
124.6338,1.65
124.6338,1.64
124.6338,1.628
124.6338,1.616
124.6338,1.598
124.6338,1.591
124.6338,1.591
124.6348,1.584
124.6348,1.589
124.6348,1.6
124.6348,1.613
124.6348,1.624
124.6348,1.635
124.6348,1.64
124.6358,1.64
124.6360,1.633
124.6360,1.628
124.6360,1.617
124.6360,1.607
124.6360,1.595
124.6368,1.582
124.6368,1.585
124.6368,1.586
124.6368,1.593
124.6368,1.598
124.6368,1.614
124.6368,1.632
124.6378,1.642
124.6378,1.652
124.6378,1.653
124.6378,1.653
124.6378,1.66
124.6378,1.632
124.6378,1.606
124.6388,1.591
124.6388,1.589
124.6388,1.595
124.6388,1.594
124.6388,1.624
124.6388,1.615
124.6388,1.609
124.6398,1.597
124.6398,1.542
124.6398,1.486
124.6398,1.349
124.6398,1.306
124.6398,1.274
124.6398,1.242
124.6408,1.233
124.6408,1.23
124.6408,1.229
124.6408,1.228
124.6408,1.229
124.6408,1.261
124.6408,1.438
124.6418,1.508
124.6418,1.404
124.6418,1.371
124.6418,1.445
124.6418,1.58
124.6418,1.719
124.6418,1.942
124.6428,2.177
124.6428,2.147
124.6428,2.097
124.6428,2.066
124.6428,2.064
124.6428,2.064
124.6428,2.055
124.6438,2.057
124.6438,2.043
124.6438,2.03
124.6438,2.018
124.6438,1.985
124.6438,1.894
124.6438,1.875
124.6448,1.836
124.6448,1.795
124.6451,1.753
124.6451,1.721
124.6458,1.659
124.6458,1.645
124.6458,1.641
124.6458,1.639
124.6458,1.635
124.6458,1.631
124.6458,1.632
124.6468,1.626
124.6468,1.617
124.6468,1.614
124.6468,1.603
124.6468,1.585
124.6468,1.553
124.6468,1.542
124.6478,1.534
124.6478,1.526
124.6478,1.531
124.6478,1.531
124.6478,1.548
124.6478,1.561
124.6478,1.568
124.6488,1.577
124.6488,1.577
124.6488,1.573
124.6488,1.552
124.6488,1.532
124.6488,1.526
124.6488,1.512
124.6498,1.504
124.6498,1.502
124.6498,1.51
124.6498,1.516
124.6498,1.53
124.6498,1.54
124.6498,1.55
124.6508,1.555
124.6508,1.562
124.6508,1.551
124.6508,1.542
124.6508,1.532
124.6508,1.515
124.6508,1.506
124.6518,1.489
124.6519,1.49
124.6519,1.486
124.6519,1.488
124.6519,1.496
124.6519,1.513
124.6528,1.533
124.6528,1.538
124.6528,1.544
124.6528,1.549
124.6528,1.543
124.6528,1.535
124.6528,1.511
124.6528,1.497
124.6538,1.485
124.6538,1.478
124.6538,1.48
124.6538,1.481
124.6538,1.496
124.6538,1.514
124.6538,1.523
124.6548,1.529
124.6548,1.538
124.6548,1.544
124.6548,1.537
124.6548,1.53
124.6548,1.519
124.6548,1.509
124.6558,1.491
124.6558,1.473
124.6558,1.469
124.6558,1.47
124.6558,1.477
124.6558,1.484
124.6558,1.495
124.6568,1.52
124.6568,1.528
124.6568,1.532
124.6568,1.534
124.6568,1.527
124.6568,1.517
124.6568,1.495
124.6578,1.48
124.6578,1.471
124.6578,1.468
124.6578,1.461
124.6578,1.469
124.6578,1.472
124.6578,1.487
124.6588,1.497
124.6588,1.507
124.6588,1.517
124.6588,1.523
124.6588,1.516
124.6588,1.505
124.6588,1.495
124.6588,1.482
124.6598,1.461
124.6598,1.445
124.6598,1.448
124.6598,1.448
124.6598,1.444
124.6598,1.446
124.6598,1.451
124.6608,1.472
124.6608,1.477
124.6608,1.484
124.6608,1.481
124.6615,1.476
124.6615,1.466
124.6618,1.436
124.6618,1.418
124.6618,1.4
124.6618,1.393
124.6618,1.386
124.6618,1.386
124.6618,1.385
124.6628,1.389
124.6629,1.397
124.6629,1.405
124.6629,1.405
124.6629,1.404
124.6629,1.397
124.6638,1.385
124.6638,1.375
124.6638,1.358
124.6638,1.337
124.6638,1.322
124.6638,1.3
124.6638,1.293
124.6648,1.299
124.6648,1.3
124.6648,1.311
124.6648,1.312
124.6648,1.326
124.6648,1.33
124.6648,1.334
124.6648,1.331
124.6658,1.322
124.6658,1.311
124.6658,1.286
124.6658,1.276
124.6658,1.272
124.6658,1.272
124.6658,1.27
124.6668,1.272
124.6668,1.283
124.6668,1.29
124.6668,1.295
124.6668,1.3
124.6668,1.303
124.6668,1.303
124.6679,1.296
124.6679,1.289
124.6679,1.281
124.6679,1.28
124.6679,1.277
124.6679,1.273
124.6687,1.271
124.6687,1.277
124.6687,1.287
124.6687,1.299
124.6687,1.319
124.6687,1.333
124.6687,1.366
124.6697,1.378
124.6697,1.387
124.6697,1.384
124.6697,1.383
124.6697,1.378
124.6697,1.37
124.6697,1.372
124.6707,1.376
124.6707,1.382
124.6707,1.397
124.6707,1.409
124.6707,1.446
124.6707,1.463
124.6707,1.478
124.6717,1.488
124.6717,1.502
124.6717,1.515
124.6717,1.521
124.6717,1.52
124.6717,1.511
124.6717,1.504
124.6727,1.5
124.6727,1.507
124.6727,1.514
124.6727,1.526
124.6727,1.535
124.6727,1.545
124.6727,1.564
124.6737,1.577
124.6737,1.596
124.6737,1.599
124.6737,1.591
124.6737,1.586
124.6737,1.578
124.6737,1.565
124.6747,1.558
124.6747,1.553
124.6747,1.549
124.6747,1.549
124.6747,1.561
124.6747,1.585
124.6747,1.599
124.6757,1.611
124.6757,1.618
124.6757,1.623
124.6757,1.627
124.6757,1.617
124.6767,1.604
124.6767,1.591
124.6767,1.583
124.6767,1.568
124.6779,1.569
124.6779,1.562
124.6779,1.569
124.6787,1.587
124.6787,1.594
124.6787,1.607
124.6787,1.616
124.6797,1.622
124.6797,1.623
124.6797,1.618
124.6797,1.613
124.6797,1.603
124.6797,1.579
124.6797,1.565
124.6807,1.562
124.6807,1.562
124.6807,1.559
124.6807,1.57
124.6807,1.586
124.6807,1.595
124.6807,1.604
124.6817,1.61
124.6817,1.617
124.6817,1.613
124.6817,1.598
124.6817,1.59
124.6817,1.571
124.6817,1.561
124.6842,1.55
124.6847,1.537
124.6897,1.538
124.6917,1.545
124.6957,1.553
124.6967,1.563
124.6987,1.576
124.6987,1.587
124.6987,1.594
124.6987,1.598
124.6987,1.586
124.6997,1.585
124.6997,1.575
124.6997,1.546
124.6997,1.534
124.6997,1.536
124.6997,1.527
124.6997,1.53
124.7007,1.543
124.7007,1.561
124.7007,1.568
124.7007,1.577
124.7007,1.584
124.7007,1.594
124.7007,1.59
124.7017,1.58
124.7017,1.566
124.7017,1.552
124.7017,1.541
124.7017,1.536
124.7017,1.528
124.7017,1.531
124.7027,1.539
124.7027,1.546
124.7027,1.559
124.7027,1.571
124.7027,1.583
124.7027,1.587
124.7027,1.583
124.7037,1.592
124.7037,1.583
124.7037,1.559
124.7037,1.548
124.7037,1.536
124.7037,1.534
124.7037,1.521
124.7047,1.525
124.7047,1.536
124.7047,1.551
124.7047,1.565
124.7047,1.573
124.7047,1.586
124.7047,1.592
124.7057,1.59
124.7057,1.583
124.7057,1.574
124.7057,1.555
124.7057,1.544
124.7057,1.544
124.7057,1.534
124.7066,1.532
124.7066,1.544
124.7066,1.547
124.7066,1.559
124.7066,1.574
124.7066,1.596
124.7066,1.603
124.7076,1.605
124.7076,1.6
124.7076,1.593
124.7076,1.565
124.7076,1.565
124.7076,1.559
124.7076,1.552
124.7086,1.545
124.7086,1.544
124.7086,1.552
124.7086,1.563
124.7086,1.578
124.7086,1.59
124.7086,1.595
124.7096,1.6
124.7096,1.61
124.7096,1.604
124.7096,1.593
124.7096,1.581
124.7096,1.565
124.7096,1.553
124.7106,1.541
124.7106,1.538
124.7106,1.541
124.7106,1.551
124.7106,1.556
124.7106,1.566
124.7106,1.585
124.7118,1.59
124.7118,1.586
124.7118,1.588
124.7126,1.569
124.7126,1.56
124.7126,1.517
124.7126,1.517
124.7126,1.518
124.7126,1.515
124.7126,1.516
124.7137,1.527
124.7137,1.549
124.7137,1.563
124.7137,1.567
124.7137,1.587
124.7137,1.592
124.7146,1.581
124.7146,1.577
124.7146,1.563
124.7146,1.553
124.7146,1.552
124.7146,1.558
124.7146,1.543
124.7156,1.545
124.7156,1.555
124.7156,1.583
124.7156,1.592
124.7156,1.604
124.7156,1.611
124.7156,1.615
124.7166,1.61
124.7166,1.596
124.7166,1.589
124.7166,1.571
124.7166,1.562
124.7166,1.562
124.7166,1.56
124.7176,1.558
124.7176,1.565
124.7176,1.579
124.7176,1.584
124.7176,1.597
124.7176,1.613
124.7176,1.628
124.7186,1.629
124.7186,1.623
124.7186,1.619
124.7186,1.592
124.7186,1.586
124.7186,1.573
124.7186,1.569
124.7196,1.571
124.7196,1.572
124.7196,1.577
124.7196,1.592
124.7196,1.619
124.7196,1.627
124.7196,1.637
124.7206,1.637
124.7206,1.644
124.7206,1.627
124.7206,1.616
124.7206,1.601
124.7206,1.594
124.7206,1.589
124.7206,1.588
124.7216,1.584
124.7216,1.589
124.7216,1.597
124.7216,1.614
124.7216,1.627
124.7216,1.641
124.7216,1.643
124.7226,1.651
124.7229,1.641
124.7256,1.639
124.7306,1.629
124.7366,1.616
124.7386,1.593
124.7396,1.581
124.7396,1.586
124.7396,1.592
124.7396,1.595
124.7396,1.614
124.7396,1.628
124.7406,1.637
124.7406,1.642
124.7406,1.646
124.7406,1.65
124.7406,1.645
124.7406,1.648
124.7406,1.643
124.7416,1.635
124.7416,1.633
124.7416,1.624
124.7416,1.598
124.7416,1.608
124.7416,1.627
124.7416,1.639
124.7426,1.65
124.7426,1.672
124.7426,1.658
124.7426,1.638
124.7426,1.558
124.7426,1.481
124.7426,1.402
124.7435,1.32
124.7435,1.247
124.7435,1.235
124.7435,1.23
124.7435,1.229
124.7435,1.228
124.7435,1.228
124.7445,1.228
124.7445,1.229
124.7445,1.258
124.7452,1.379
124.7455,1.41
124.7455,1.337
124.7455,1.312
124.7455,1.481
124.7455,1.591
124.7465,1.762
124.7465,1.999
124.7465,2.115
124.7465,2.139
124.7465,2.126
124.7465,2.13
124.7465,2.136
124.7475,2.147
124.7475,2.116
124.7475,2.105
124.7475,2.09
124.7475,2.059
124.7475,2.025
124.7475,1.964
124.7475,1.934
124.7485,1.881
124.7485,1.844
124.7485,1.818
124.7485,1.8
124.7485,1.778
124.7485,1.76
124.7495,1.729
124.7495,1.733
124.7495,1.73
124.7495,1.719
124.7495,1.698
124.7495,1.688
124.7495,1.66
124.7505,1.648
124.7505,1.637
124.7505,1.645
124.7505,1.622
124.7505,1.619
124.7505,1.622
124.7505,1.628
124.7515,1.631
124.7515,1.642
124.7515,1.641
124.7515,1.643
124.7515,1.638
124.7515,1.635
124.7515,1.618
124.7525,1.606
124.7525,1.6
124.7525,1.591
124.7525,1.578
124.7525,1.58
124.7525,1.581
124.7525,1.589
124.7525,1.602
124.7535,1.613
124.7535,1.627
124.7535,1.635
124.7535,1.637
124.7535,1.628
125.5354,1.624
125.5354,1.613
125.5354,1.593
125.5364,1.583
125.5364,1.58
125.5374,1.572
125.5374,1.571
125.5384,1.57
125.5384,1.581
125.5384,1.607
125.5394,1.617
125.5394,1.619
125.5404,1.629
125.5404,1.632
125.5404,1.624
125.5414,1.618
125.5414,1.599
125.5424,1.592
125.5424,1.579
125.5434,1.569
125.5436,1.581
125.5444,1.571
125.5454,1.578
125.5454,1.594
125.5454,1.601
125.5464,1.622
125.5464,1.642
125.5474,1.642
125.5474,1.638
125.5484,1.628
125.5484,1.622
125.5494,1.609
125.5494,1.593
125.5494,1.586
125.5504,1.576
125.5504,1.577
125.5514,1.58
125.5514,1.587
125.5514,1.606
125.5524,1.618
125.5524,1.633
125.5534,1.64
125.5578,1.646
125.5613,1.643
125.5753,1.625
125.5892,1.616
125.5983,1.603
125.5993,1.584
125.6062,1.583
125.6202,1.581
125.6361,1.579
125.6398,1.586
125.6441,1.597
125.6441,1.612
125.6453,1.619
125.6461,1.636
125.6471,1.641
125.6471,1.64
125.6481,1.639
125.6481,1.618
125.6491,1.616
125.6491,1.591
125.6491,1.579
125.6501,1.575
125.6501,1.572
125.6511,1.575
125.6511,1.575
125.6521,1.596
125.6521,1.598
125.6521,1.606
125.6533,1.622
125.6541,1.621
125.6541,1.613
125.6551,1.599
125.6551,1.583
125.6551,1.562
125.6561,1.559
125.6561,1.542
125.6571,1.541
125.6571,1.54
125.6580,1.532
125.6580,1.538
125.6580,1.548
125.6590,1.555
125.6590,1.557
125.6600,1.56
125.6600,1.563
125.6600,1.542
125.6610,1.53
125.6610,1.511
125.6620,1.488
125.6671,1.484
125.6700,1.456
125.6820,1.452
125.6940,1.456
125.6960,1.454
125.7009,1.466
125.7019,1.472
125.7019,1.48
125.7030,1.489
125.7030,1.486
125.7030,1.473
125.7040,1.465
125.7040,1.449
125.7050,1.434
125.7050,1.43
125.7050,1.41
125.7060,1.405
125.7060,1.402
125.7060,1.405
125.7070,1.408
125.7070,1.427
125.7080,1.433
125.7080,1.453
125.7080,1.45
125.7090,1.452
125.7090,1.447
125.7100,1.435
125.7100,1.424
125.7100,1.403
125.7110,1.399
125.7120,1.393
125.7129,1.396
125.7179,1.399
125.7239,1.408
125.7329,1.437
125.7458,1.454
125.7479,1.463
125.7508,1.478
125.7508,1.488
125.7508,1.497
125.7508,1.499
125.7518,1.487
125.7518,1.489
125.7518,1.487
125.7518,1.488
125.7528,1.505
125.7528,1.489
125.7528,1.515
125.7538,1.526
125.7538,1.551
125.7538,1.574
125.7538,1.605
125.7548,1.621
125.7548,1.63
125.7548,1.633
125.7548,1.629
125.7558,1.625
125.7558,1.618
125.7558,1.619
125.7558,1.622
125.7568,1.625
125.7568,1.624
125.7568,1.644
125.7568,1.659
125.7578,1.678
125.7578,1.689
125.7578,1.699
125.7588,1.713
125.7588,1.723
125.7588,1.716
125.7588,1.712
125.7598,1.707
125.7598,1.689
125.7598,1.683
125.7598,1.68
125.7608,1.678
125.7608,1.691
125.7618,1.711
125.7620,1.716
125.7628,1.724
125.7628,1.74
125.7638,1.749
125.7648,1.756
125.7648,1.748
125.7648,1.747
125.7658,1.731
125.7658,1.717
125.7668,1.704
125.7668,1.7
125.7678,1.697
125.7688,1.7
125.7688,1.712
125.7688,1.723
125.7688,1.738
125.7698,1.741
125.7698,1.75
125.7698,1.756
125.7698,1.754
125.7708,1.748
125.7708,1.744
125.7708,1.725
125.7708,1.714
125.7718,1.706
125.7718,1.696
125.7718,1.698
125.7718,1.703
125.7731,1.71
125.7747,1.721
125.7777,1.737
125.7798,1.75
125.7867,1.758
125.7957,1.772
125.8007,1.75
125.8017,1.741
125.8017,1.722
125.8017,1.713
125.8017,1.702
125.8027,1.694
125.8027,1.692
125.8027,1.681
125.8027,1.707
125.8037,1.716
125.8037,1.719
125.8037,1.737
125.8037,1.749
125.8047,1.759
125.8047,1.751
125.8047,1.74
125.8047,1.731
125.8057,1.716
125.8057,1.707
125.8057,1.702
125.8057,1.691
125.8067,1.686
125.8067,1.7
125.8067,1.703
125.8067,1.721
125.8077,1.739
125.8077,1.745
125.8077,1.751
125.8077,1.752
125.8087,1.751
125.8087,1.746
125.8087,1.722
125.8087,1.711
125.8097,1.704
125.8099,1.7
125.8106,1.688
125.8106,1.692
125.8106,1.701
125.8116,1.713
125.8116,1.718
125.8127,1.735
125.8127,1.746
125.8127,1.738
125.8137,1.754
125.8137,1.746
125.8137,1.727
125.8137,1.725
125.8147,1.713
125.8147,1.704
125.8147,1.69
125.8147,1.687
125.8157,1.695
125.8157,1.7
125.8157,1.711
125.8157,1.729
125.8167,1.746
125.8167,1.752
125.8167,1.756
125.8167,1.761
125.8177,1.757
125.8177,1.73
125.8177,1.719
125.8177,1.701
125.8187,1.703
125.8187,1.699
125.8187,1.7
125.8187,1.708
125.8197,1.718
125.8197,1.728
125.8197,1.743
125.8197,1.754
125.8207,1.757
125.8207,1.761
125.8207,1.753
125.8207,1.746
125.8217,1.752
125.8217,1.732
125.8217,1.713
125.8217,1.7
125.8230,1.71
125.8266,1.709
125.8310,1.718
125.8366,1.728
125.8455,1.745
125.8495,1.757
125.8505,1.766
125.8505,1.771
125.8505,1.772
125.8505,1.767
125.8516,1.74
125.8516,1.736
125.8516,1.732
125.8516,1.73
125.8526,1.717
125.8526,1.72
125.8526,1.728
125.8526,1.744
125.8536,1.754
125.8536,1.763
125.8536,1.775
125.8536,1.787
125.8546,1.787
125.8546,1.776
125.8546,1.767
125.8546,1.746
125.8556,1.736
125.8556,1.703
125.8556,1.698
125.8556,1.705
125.8566,1.702
125.8569,1.699
125.8569,1.717
125.8576,1.71
125.8576,1.731
125.8576,1.737
125.8576,1.742
125.8586,1.747
125.8586,1.734
125.8586,1.735
125.8586,1.699
125.8596,1.697
125.8596,1.692
125.8596,1.691
125.8596,1.704
125.8606,1.717
125.8606,1.729
125.8606,1.743
125.8618,1.763
125.8618,1.769
125.8628,1.783
125.8628,1.771
125.8628,1.765
125.8635,1.755
125.8635,1.74
125.8635,1.73
125.8645,1.726
125.8645,1.719
125.8645,1.724
125.8645,1.73
125.8655,1.753
125.8655,1.765
125.8655,1.773
125.8655,1.779
125.8665,1.795
125.8665,1.79
125.8665,1.779
125.8665,1.768
125.8675,1.763
125.8675,1.736
125.8675,1.738
125.8675,1.733
125.8685,1.732
125.8685,1.736
125.8685,1.754
125.8685,1.757
125.8695,1.773
125.8695,1.782
125.8695,1.8
125.8695,1.803
125.8705,1.79
125.8705,1.784
125.8705,1.777
125.8705,1.752
125.8715,1.744
125.8715,1.745
125.8715,1.739
125.8715,1.739
125.8726,1.747
125.8726,1.768
125.8726,1.779
125.8735,1.797
125.8735,1.799
125.8735,1.809
125.8735,1.811
125.8745,1.799
125.8745,1.782
125.8745,1.766
125.8755,1.76
125.8755,1.75
125.8755,1.747
125.8755,1.747
125.8765,1.749
125.8765,1.762
125.8765,1.754
125.8765,1.783
125.8775,1.796
125.8775,1.805
125.8775,1.813
125.8775,1.804
125.8787,1.8
125.8787,1.787
125.8795,1.763
125.8795,1.753
125.8795,1.748
125.8795,1.748
125.8805,1.745
125.8805,1.75
125.8805,1.769
125.8815,1.783
125.8815,1.808
125.8815,1.826
125.8815,1.846
125.8825,1.845
125.8828,1.816
125.8864,1.801
125.8944,1.779
125.9044,1.784
125.9064,1.775
125.9094,1.784
125.9094,1.756
125.9094,1.745
125.9104,1.702
125.9104,1.645
125.9104,1.578
125.9114,1.52
125.9117,1.401
125.9117,1.334
125.9124,1.262
125.9124,1.239
125.9124,1.233
125.9136,1.231
125.9136,1.228
125.9136,1.228
125.9144,1.232
125.9144,1.294
125.9144,1.411
125.9144,1.405
125.9154,1.356
125.9154,1.487
125.9154,1.655
125.9154,1.826
125.9164,2.065
125.9164,2.256
125.9164,2.319
125.9164,2.301
125.9174,2.276
125.9174,2.253
125.9174,2.248
125.9174,2.231
125.9186,2.184
125.9186,2.174
125.9186,2.168
125.9194,2.172
125.9194,2.139
125.9194,2.107
125.9194,2.077
125.9204,2.053
125.9204,2.015
125.9204,1.987
125.9204,1.934
125.9214,1.893
125.9214,1.826
125.9214,1.81
125.9214,1.798
125.9224,1.791
125.9224,1.781
125.9224,1.784
125.9224,1.804
125.9234,1.808
125.9234,1.819
125.9234,1.816
125.9244,1.82
125.9244,1.807
125.9244,1.774
125.9244,1.757
125.9254,1.738
125.9254,1.731
125.9254,1.718
125.9254,1.715
125.9264,1.715
125.9264,1.722
125.9264,1.73
125.9264,1.739
125.9274,1.758
125.9274,1.748
125.9283,1.759
125.9313,1.746
125.9362,1.744
125.9413,1.723
125.9513,1.712
125.9543,1.699
125.9543,1.687
125.9553,1.688
125.9553,1.701
125.9553,1.682
125.9553,1.699
125.9563,1.715
125.9563,1.744
125.9563,1.739
125.9573,1.74
125.9573,1.745
125.9573,1.738
125.9573,1.732
125.9583,1.715
125.9583,1.692
125.9583,1.695
125.9583,1.687
125.9593,1.681
125.9593,1.685
125.9593,1.701
125.9593,1.714
125.9603,1.726
125.9603,1.733
125.9603,1.742
125.9612,1.745
125.9618,1.732
125.9622,1.724
125.9622,1.716
125.9632,1.705
125.9635,1.695
125.9635,1.685
125.9642,1.678
125.9642,1.688
125.9642,1.693
125.9652,1.705
125.9652,1.717
125.9652,1.709
125.9652,1.741
125.9667,1.739
125.9667,1.741
125.9672,1.734
125.9672,1.728
125.9682,1.727
125.9682,1.696
125.9682,1.69
125.9693,1.687
125.9693,1.684
125.9693,1.675
125.9702,1.679
125.9702,1.711
125.9702,1.713
125.9714,1.732
125.9714,1.738
125.9714,1.745
125.9722,1.734
125.9722,1.731
125.9722,1.717
125.9722,1.702
125.9732,1.687
125.9732,1.68
125.9742,1.684
125.9742,1.689
125.9742,1.689
125.9742,1.69
125.9752,1.703
125.9752,1.713
125.9762,1.726
125.9762,1.732
125.9762,1.735
125.9772,1.725
125.9777,1.714
125.9782,1.704
125.9782,1.676
125.9792,1.661
125.9792,1.661
125.9802,1.656
125.9802,1.661
125.9812,1.662
125.9812,1.673
125.9812,1.679
125.9826,1.69
125.9826,1.692
125.9832,1.693
125.9832,1.678
125.9842,1.674
125.9842,1.654
125.9852,1.649
125.9852,1.619
125.9852,1.604
125.9862,1.591
125.9862,1.588
125.9872,1.589
125.9872,1.592
125.9882,1.599
125.9882,1.601
125.9882,1.601
125.9892,1.604
125.9892,1.606
125.9902,1.591
125.9902,1.585
125.9912,1.555
125.9912,1.54
125.9912,1.526
125.9922,1.52
125.9922,1.512
125.9931,1.499
125.9971,1.51
126.0001,1.521
126.0117,1.528
126.0227,1.535
126.0271,1.539
126.0271,1.549
126.0281,1.545
126.0281,1.539
126.0291,1.523
126.0291,1.51
126.0301,1.505
126.0301,1.494
126.0310,1.484
126.0310,1.478
126.0320,1.483
126.0320,1.496
126.0320,1.511
126.0331,1.515
126.0331,1.523
126.0331,1.531
126.0340,1.539
126.0340,1.537
126.0340,1.543
126.0350,1.514
126.0350,1.505
126.0350,1.504
126.0350,1.506
126.0360,1.517
126.0360,1.505
126.0360,1.541
126.0360,1.556
126.0370,1.575
126.0370,1.587
126.0370,1.604
126.0370,1.622
126.0380,1.633
126.0380,1.637
126.0380,1.638
126.0380,1.628
126.0390,1.623
126.0390,1.625
126.0390,1.631
126.0390,1.639
126.0400,1.658
126.0400,1.67
126.0400,1.684
126.0400,1.726
126.0410,1.738
126.0410,1.747
126.0410,1.753
126.0410,1.761
126.0420,1.762
126.0420,1.748
126.0420,1.741
126.0420,1.737
126.0420,1.736
126.0420,1.735
126.0430,1.739
126.0460,1.759
126.0473,1.773
126.0520,1.789
126.0550,1.801
126.0590,1.815
126.0600,1.82
126.0630,1.844
126.0631,1.818
126.0631,1.805
126.0631,1.806
126.0631,1.8
126.0631,1.788
126.0631,1.783
126.0640,1.779
126.4457,1.789
126.4466,1.794
126.4476,1.807
126.4476,1.834
126.4476,1.835
126.4487,1.838
126.4487,1.846
126.4497,1.844
126.4497,1.835
126.4497,1.813
126.4507,1.801
126.4507,1.787
126.4517,1.785
126.4517,1.788
126.4527,1.782
126.4527,1.793
126.4537,1.794
126.4537,1.814
126.4537,1.827
126.4551,1.825
126.4557,1.838
126.4557,1.84
126.4566,1.838
126.4566,1.826
126.4566,1.815
126.4576,1.805
126.4576,1.785
126.4586,1.78
126.4586,1.78
126.4596,1.783
126.4596,1.798
126.4596,1.799
126.4606,1.822
126.4616,1.83
126.4616,1.84
126.4636,1.847
126.4636,1.842
126.4646,1.831
126.4646,1.814
126.4646,1.799
126.4656,1.785
126.4656,1.78
126.4666,1.776
126.4666,1.776
126.4676,1.784
126.4676,1.792
126.4676,1.806
126.4686,1.816
126.4686,1.823
126.4696,1.835
126.4696,1.835
126.4696,1.826
126.4709,1.814
126.4716,1.804
126.4716,1.794
126.4716,1.777
126.4730,1.775
126.4777,1.768
126.4856,1.767
126.5025,1.781
126.5155,1.793
126.5195,1.809
126.5205,1.812
126.5205,1.821
126.5214,1.827
126.5214,1.834
126.5224,1.826
126.5224,1.801
126.5224,1.785
126.5234,1.777
126.5234,1.771
126.5234,1.76
126.5244,1.769
126.5244,1.775
126.5254,1.786
126.5254,1.793
126.5254,1.805
126.5264,1.815
126.5264,1.832
126.5264,1.831
126.5274,1.821
126.5286,1.823
126.5294,1.801
126.5294,1.79
126.5304,1.776
126.5304,1.775
126.5314,1.767
126.5314,1.767
126.5326,1.777
126.5326,1.793
126.5334,1.808
126.5334,1.815
126.5344,1.831
126.5344,1.838
126.5344,1.834
126.5354,1.82
126.5354,1.812
126.5354,1.802
126.5364,1.79
126.5364,1.778
126.5374,1.771
126.5374,1.777
126.5374,1.777
126.5384,1.79
126.5384,1.795
126.5394,1.815
126.5394,1.825
126.5394,1.836
126.5404,1.841
126.5404,1.827
126.5404,1.829
126.5414,1.819
126.5414,1.805
126.5424,1.785
126.5424,1.779
126.5424,1.775
126.5434,1.775
126.5484,1.783
126.5514,1.805
126.5624,1.808
126.5753,1.817
126.5823,1.823
126.5833,1.835
126.5873,1.839
126.5910,1.832
126.6033,1.82
126.6162,1.807
126.6192,1.793
126.6232,1.784
126.6232,1.788
126.6232,1.772
126.6242,1.782
126.6242,1.789
126.6252,1.806
126.6252,1.821
126.6252,1.828
126.6266,1.842
126.6272,1.842
126.6279,1.833
126.6282,1.827
126.6292,1.814
126.6301,1.796
126.6301,1.768
126.6301,1.757
126.6312,1.757
126.6312,1.751
126.6312,1.759
126.6322,1.768
126.6322,1.778
126.6332,1.782
126.6332,1.783
126.6332,1.787
126.6342,1.794
126.6342,1.778
126.6352,1.774
126.6352,1.761
126.6352,1.753
126.6362,1.739
126.6362,1.735
126.6362,1.743
126.6372,1.751
126.6372,1.771
126.6382,1.796
126.6382,1.808
126.6382,1.82
126.6392,1.827
126.6392,1.82
126.6392,1.819
126.6402,1.798
126.6402,1.784
126.6402,1.778
126.6412,1.775
126.6412,1.771
126.6422,1.771
126.6424,1.786
126.6431,1.796
126.6431,1.809
126.6443,1.82
126.6443,1.826
126.6451,1.836
126.6463,1.835
126.6471,1.83
126.6471,1.818
126.6481,1.804
126.6481,1.795
126.6481,1.785
126.6491,1.772
126.6491,1.772
126.6491,1.778
126.6501,1.787
126.6501,1.798
126.6511,1.82
126.6511,1.826
126.6511,1.83
126.6521,1.835
126.6521,1.832
126.6521,1.827
126.6531,1.804
126.6572,1.795
126.6611,1.787
126.6721,1.78
126.6910,1.781
126.6950,1.78
126.7020,1.791
126.7100,1.806
126.7309,1.815
126.7488,1.821
126.7578,1.835
126.7619,1.845
126.7671,1.841
126.7708,1.835
126.7867,1.823
126.8053,1.81
126.8147,1.799
126.8216,1.794
126.8416,1.785
126.8439,1.785
126.8585,1.789
126.8625,1.791
126.8625,1.8
126.8625,1.827
126.8638,1.832
126.8675,1.838
126.8695,1.844
126.8775,1.839
126.8845,1.839
126.8865,1.811
126.8865,1.802
126.8875,1.795
126.8875,1.78
126.8875,1.773
126.8875,1.772
126.8875,1.778
126.8875,1.8
126.8885,1.815
126.8885,1.828
126.8885,1.842
126.8885,1.873
126.8885,1.879
126.8885,1.887
126.8895,1.866
126.8895,1.839
126.8895,1.819
126.8895,1.816
126.8895,1.809
126.8895,1.819
126.8905,1.832
126.8906,1.825
126.8906,1.808
126.8906,1.728
126.8906,1.666
126.8914,1.595
126.8914,1.539
126.8914,1.489
126.8914,1.429
126.8914,1.266
126.8914,1.24
126.8914,1.235
126.8924,1.232
126.8924,1.23
126.8924,1.229
126.8924,1.438
126.8924,1.542
126.8924,1.504
126.8934,1.471
126.8934,1.445
126.8934,1.54
126.8934,1.896
126.8944,2.162
126.8944,2.37
126.8944,2.413
126.8955,2.383
126.8955,2.331
126.8955,2.296
126.8955,2.279
126.8955,2.27
126.8964,2.252
126.8964,2.244
126.8964,2.234
126.8964,2.206
126.8964,2.185
126.8974,2.145
126.8974,2.119
126.8974,2.106
126.8974,2.064
126.8974,1.983
126.8974,1.948
126.8984,1.906
126.8984,1.877
126.8984,1.859
126.8984,1.839
126.8984,1.831
126.8984,1.833
126.8994,1.833
126.8994,1.838
126.8994,1.844
126.8994,1.842
126.8994,1.832
126.8994,1.828
126.9004,1.814
126.9004,1.8
126.9004,1.784
126.9004,1.762
126.9004,1.745
126.9004,1.743
126.9014,1.749
126.9014,1.754
126.9014,1.763
126.9014,1.77
126.9014,1.787
126.9014,1.791
126.9024,1.792
126.9024,1.779
126.9024,1.78
126.9024,1.767
126.9034,1.743
126.9034,1.737
126.9034,1.725
126.9034,1.721
126.9034,1.722
126.9034,1.729
126.9044,1.74
126.9044,1.757
126.9044,1.759
126.9044,1.766
126.9044,1.772
126.9044,1.772
126.9054,1.756
126.9054,1.748
126.9054,1.737
126.9054,1.728
126.9054,1.708
126.9065,1.712
126.9065,1.714
126.9065,1.714
126.9065,1.727
126.9065,1.737
126.9074,1.746
126.9074,1.761
126.9074,1.768
126.9074,1.769
126.9074,1.761
126.9074,1.762
126.9084,1.746
126.9084,1.726
126.9084,1.708
126.9084,1.702
126.9084,1.706
126.9084,1.708
126.9094,1.709
126.9094,1.729
126.9094,1.741
126.9094,1.74
126.9094,1.751
126.9094,1.76
126.9094,1.763
126.9104,1.749
126.9104,1.737
126.9104,1.728
126.9104,1.717
126.9104,1.707
126.9114,1.705
126.9116,1.698
126.9116,1.705
126.9124,1.709
126.9124,1.718
126.9124,1.734
126.9124,1.742
126.9124,1.75
126.9124,1.751
126.9124,1.741
126.9135,1.737
126.9154,1.72
126.9164,1.713
126.9164,1.696
126.9225,1.684
126.9293,1.68
126.9308,1.678
126.9331,1.683
126.9333,1.69
126.9333,1.703
126.9333,1.72
126.9333,1.733
126.9343,1.737
126.9343,1.732
126.9343,1.712
126.9343,1.7
126.9343,1.686
126.9353,1.673
126.9353,1.664
126.9353,1.662
126.9353,1.657
126.9353,1.648
126.9363,1.654
126.9363,1.673
126.9363,1.673
126.9363,1.694
126.9363,1.693
126.9373,1.688
126.9373,1.682
126.9373,1.672
126.9373,1.664
126.9373,1.625
126.9385,1.61
126.9385,1.599
126.9385,1.595
126.9385,1.586
126.9393,1.583
126.9393,1.595
126.9393,1.599
126.9393,1.606
126.9393,1.606
126.9403,1.601
126.9403,1.596
126.9403,1.58
126.9403,1.563
126.9403,1.545
126.9413,1.539
126.9413,1.522
126.9413,1.498
126.9413,1.496
126.9413,1.491
126.9423,1.497
126.9423,1.508
126.9423,1.518
126.9423,1.529
126.9423,1.532
126.9433,1.528
126.9436,1.526
126.9436,1.515
126.9443,1.506
126.9443,1.475
126.9443,1.471
126.9454,1.465
126.9454,1.451
126.9454,1.45
126.9463,1.463
126.9463,1.47
126.9463,1.485
126.9463,1.499
126.9463,1.497
126.9473,1.506
126.9473,1.506
126.9473,1.503
126.9473,1.503
126.9473,1.487
126.9483,1.478
126.9483,1.474
126.9483,1.486
126.9483,1.49
126.9493,1.493
126.9493,1.502
126.9493,1.521
126.9493,1.544
126.9493,1.582
126.9503,1.601
126.9503,1.607
126.9503,1.619
126.9503,1.613
126.9503,1.613
126.9513,1.61
126.9513,1.605
126.9513,1.609
126.9513,1.609
126.9513,1.619
126.9523,1.635
126.9523,1.668
126.9523,1.677
126.9523,1.69
126.9523,1.718
126.9533,1.736
126.9533,1.744
126.9533,1.743
126.9533,1.747
126.9545,1.747
126.9545,1.744
126.9545,1.74
126.9545,1.738
126.9553,1.739
126.9553,1.747
126.9553,1.761
126.9553,1.775
126.9553,1.782
126.9563,1.808
126.9563,1.82
126.9563,1.819
126.9563,1.827
126.9563,1.824
126.9573,1.824
126.9573,1.796
126.9573,1.782
126.9573,1.778
126.9573,1.776
126.9583,1.786
126.9583,1.79
126.9583,1.803
126.9583,1.816
126.9593,1.828
126.9593,1.835
126.9593,1.842
126.9593,1.847
126.9603,1.841
126.9603,1.84
126.9603,1.828
126.9603,1.805
126.9613,1.8
126.9613,1.787
126.9618,1.786
126.9624,1.79
126.9624,1.785
126.9624,1.796
126.9635,1.818
126.9635,1.837
126.9635,1.85
126.9643,1.848
126.9643,1.839
126.9643,1.834
126.9652,1.819
126.9652,1.793
126.9652,1.783
126.9662,1.781
126.9662,1.777
126.9666,1.774
126.9666,1.782
126.9672,1.796
126.9672,1.805
126.9672,1.811
126.9682,1.819
126.9682,1.825
126.9682,1.838
126.9692,1.827
126.9692,1.814
126.9692,1.806
126.9704,1.791
126.9704,1.786
126.9704,1.777
126.9712,1.766
126.9712,1.766
126.9722,1.773
126.9722,1.788
126.9722,1.796
126.9732,1.816
126.9735,1.814
126.9773,1.816
126.9882,1.814
127.0002,1.805
127.0032,1.793
127.0071,1.777
127.0073,1.766
127.0073,1.76
127.0081,1.756
127.0081,1.746
127.0081,1.759
127.0091,1.768
127.0091,1.784
127.0091,1.79
127.0091,1.805
127.0101,1.807
127.0101,1.818
127.0101,1.807
127.0111,1.799
127.0115,1.784
127.0121,1.774
127.0121,1.76
127.0131,1.751
127.0131,1.746
127.0131,1.745
127.0141,1.758
127.0141,1.753
127.0141,1.779
127.0151,1.796
127.0151,1.799
127.0151,1.805
127.0151,1.82
127.0161,1.801
127.0161,1.78
127.0161,1.768
127.0174,1.764
127.0174,1.761
127.0181,1.754
127.0181,1.747
127.0181,1.75
127.0191,1.76
127.0191,1.77
127.0191,1.786
127.0201,1.795
127.0201,1.802
127.0201,1.815
127.0201,1.809
127.0211,1.792
127.0211,1.786
127.0211,1.774
127.0221,1.764
127.0221,1.75
127.0221,1.749
127.0221,1.748
127.0231,1.752
127.0262,1.761
127.0281,1.786
127.0361,1.793
127.0460,1.802
127.0500,1.813
127.0500,1.814
127.0500,1.801
127.0510,1.782
127.0510,1.777
127.0510,1.772
127.0510,1.758
127.0520,1.748
127.0520,1.757
127.0520,1.748
127.0520,1.758
127.0530,1.773
127.0530,1.791
127.0530,1.782
127.0540,1.797
127.0540,1.812
127.0540,1.811
127.0550,1.805
127.0550,1.797
127.0550,1.782
127.0550,1.758
127.0561,1.752
127.0561,1.749
127.0561,1.738
127.0561,1.735
127.0570,1.747
127.0570,1.766
127.0570,1.771
127.0570,1.772
127.0580,1.789
127.0580,1.786
127.0580,1.771
127.0580,1.751
127.0590,1.73
127.0590,1.72
127.0590,1.709
127.0590,1.706
127.0600,1.702
127.0600,1.706
127.0600,1.706
127.0610,1.721
127.0616,1.735
127.0620,1.754
127.0620,1.772
127.0630,1.775
127.0630,1.775
127.0630,1.774
127.0640,1.769
127.0640,1.755
127.0640,1.745
127.0640,1.74
127.0650,1.724
127.0650,1.726
127.0650,1.743
127.0650,1.772
127.0660,1.778
127.0660,1.783
127.0660,1.794
127.0660,1.799
127.0670,1.795
127.1276,1.785
127.1285,1.772
127.1295,1.762
127.1295,1.744
127.1295,1.735
127.1295,1.732
127.1305,1.749
127.1305,1.751
127.1305,1.757
127.1305,1.763
127.1315,1.791
127.1315,1.79
127.1315,1.797
127.1325,1.796
127.1329,1.791
127.1356,1.782
127.1375,1.759
127.1454,1.749
127.1554,1.737
127.1594,1.73
127.1594,1.733
127.1594,1.735
127.1604,1.75
127.1604,1.764
127.1615,1.771
127.1615,1.789
127.1624,1.798
127.1624,1.799
127.1624,1.785
127.1634,1.774
127.1636,1.765
127.1636,1.754
127.1636,1.741
127.1644,1.735
127.1644,1.736
127.1644,1.735
127.1644,1.748
127.1654,1.76
127.1654,1.768
127.1654,1.779
127.1654,1.79
127.1664,1.792
127.1664,1.796
127.1664,1.788
127.1664,1.778
127.1674,1.758
127.1674,1.746
127.1674,1.745
127.1674,1.74
127.1684,1.738
127.1684,1.735
127.1684,1.754
127.1684,1.769
127.1694,1.771
127.1694,1.779
127.1694,1.785
127.1694,1.785
127.1706,1.771
127.1706,1.765
127.1706,1.763
127.1713,1.761
127.1713,1.763
127.1713,1.766
127.1723,1.762
127.1723,1.754
127.1723,1.746
127.1723,1.753
127.1733,1.774
127.1733,1.799
127.1733,1.816
127.1733,1.82
127.1733,1.8
127.1743,1.77
127.1743,1.73
127.1743,1.593
127.1743,1.514
127.1753,1.452
127.1753,1.402
127.1753,1.354
127.1753,1.251
127.1763,1.24
127.1763,1.239
127.1763,1.236
127.1763,1.237
127.1773,1.251
127.1773,1.446
127.1773,1.652
127.1783,1.573
127.1784,1.538
127.1793,1.491
127.1793,1.584
127.1793,1.709
127.1793,2.131
127.1803,2.3
127.1803,2.329
127.1803,2.307
127.1803,2.268
127.1813,2.257
127.1813,2.262
127.1813,2.248
127.1813,2.252
127.1823,2.235
127.1823,2.193
127.1823,2.119
127.1823,2.073
127.1833,2.029
127.1833,1.995
127.1833,1.973
127.1843,1.948
127.1843,1.93
127.1843,1.874
127.1843,1.856
127.1853,1.847
127.1855,1.839
127.1855,1.827
127.1863,1.811
127.1863,1.766
127.1863,1.753
127.1863,1.751
127.1873,1.734
127.1873,1.726
127.1873,1.723
127.1873,1.702
127.1883,1.712
127.1883,1.709
127.1883,1.715
127.1883,1.722
127.1893,1.727
127.1893,1.728
127.1893,1.729
127.1893,1.716
127.1903,1.706
127.1903,1.696
127.1903,1.665
127.1903,1.658
127.1913,1.652
127.1913,1.652
127.1913,1.65
127.1913,1.66
127.1913,1.673
127.1923,1.677
127.1923,1.692
127.1923,1.7
127.1923,1.699
127.1933,1.704
127.1973,1.691
127.2053,1.676
127.2142,1.665
127.2162,1.658
127.2182,1.655
127.2192,1.651
127.2192,1.637
127.2192,1.645
127.2192,1.649
127.2202,1.662
127.2202,1.67
127.2202,1.681
127.2202,1.694
127.2212,1.688
127.2212,1.682
127.2212,1.68
127.2212,1.666
127.2222,1.654
127.2222,1.638
127.2222,1.635
127.2232,1.621
127.2232,1.624
127.2232,1.622
127.2232,1.631
127.2242,1.656
127.2242,1.666
127.2242,1.673
127.2242,1.677
127.2252,1.673
127.2252,1.662
127.2252,1.655
127.2252,1.646
127.2262,1.636
127.2272,1.622
127.2278,1.62
127.2282,1.614
127.2292,1.616
127.2302,1.632
127.2308,1.638
127.2313,1.646
127.2322,1.657
127.2322,1.662
127.2333,1.673
127.2333,1.67
127.2343,1.66
127.2343,1.656
127.2352,1.641
127.2359,1.634
127.2362,1.603
127.2362,1.602
127.2373,1.602
127.2373,1.611
127.2382,1.611
127.2382,1.619
127.2382,1.642
127.2392,1.648
127.2392,1.653
127.2402,1.662
127.2402,1.654
127.2412,1.642
127.2412,1.619
127.2422,1.608
127.2432,1.595
127.2481,1.587
127.2551,1.577
127.2643,1.574
127.2791,1.584
127.2811,1.593
127.2850,1.605
127.2855,1.614
127.2860,1.622
127.2860,1.622
127.2860,1.615
127.2866,1.603
127.2870,1.595
127.2870,1.583
127.2870,1.569
127.2870,1.546
127.2880,1.531
127.2880,1.527
127.2880,1.536
127.2880,1.526
127.2890,1.529
127.2893,1.548
127.2893,1.547
127.2893,1.545
127.2900,1.546
127.2900,1.541
127.2910,1.53
127.2910,1.499
127.2910,1.482
127.2910,1.467
127.2910,1.459
127.2920,1.446
127.2924,1.443
127.2924,1.441
127.2924,1.445
127.2930,1.448
127.2930,1.455
127.2930,1.464
127.2930,1.466
127.2940,1.457
127.2950,1.447
127.2950,1.44
127.2960,1.42
127.2962,1.403
127.2962,1.39
127.2962,1.381
127.2970,1.38
127.2970,1.376
127.2970,1.377
127.2970,1.385
127.2980,1.406
127.2980,1.42
127.2980,1.427
127.2980,1.429
127.2980,1.427
127.2990,1.417
127.2990,1.391
127.2990,1.378
127.2990,1.375
127.3000,1.369
127.3000,1.364
127.3005,1.361
127.3010,1.374
127.3010,1.39
127.3010,1.408
127.3010,1.423
127.3010,1.437
127.3020,1.452
127.3020,1.466
127.3026,1.466
127.3060,1.469
127.3090,1.465
127.3219,1.461
127.3332,1.457
127.3369,1.46
127.3379,1.47
127.3390,1.477
127.3390,1.492
127.3399,1.517
127.3399,1.547
127.3409,1.564
127.3409,1.58
127.3420,1.6
127.3420,1.607
127.3429,1.606
127.3429,1.605
127.3429,1.595
127.3439,1.589
127.3442,1.589
127.3449,1.589
127.3449,1.593
127.3459,1.614
127.3459,1.632
127.3459,1.645
127.3459,1.661
127.3469,1.68
127.3469,1.687
127.3469,1.702
127.3469,1.701
127.3479,1.701
127.3479,1.693
127.3479,1.679
127.3479,1.664
127.3479,1.667
127.3489,1.665
127.3489,1.667
127.3489,1.674
127.3489,1.688
127.3499,1.713
127.3499,1.724
127.3499,1.742
127.3499,1.742
127.3509,1.742
127.3509,1.732
127.3509,1.715
127.3509,1.703
127.3519,1.697
127.3519,1.695
127.3519,1.683
127.3519,1.677
127.3529,1.693
127.3560,1.702
127.3668,1.709
127.3768,1.723
127.3788,1.733
127.3811,1.74
127.3811,1.743
127.3818,1.739
127.3818,1.732
127.3818,1.726
127.3818,1.711
127.3818,1.689
127.3828,1.685
127.3828,1.682
127.3828,1.681
127.3828,1.684
127.3838,1.693
127.3838,1.715
127.3838,1.721
127.3838,1.729
127.3848,1.741
127.3848,1.739
127.3848,1.729
127.3848,1.725
127.3858,1.707
127.3858,1.691
127.3858,1.683
127.3868,1.676
127.3868,1.675
127.3868,1.671
127.3868,1.684
127.3880,1.694
127.3880,1.7
127.3880,1.709
127.3888,1.724
127.3888,1.728
127.3888,1.715
127.3888,1.711
127.3898,1.704
127.3898,1.689
127.3898,1.668
127.3898,1.655
127.3908,1.656
127.3908,1.66
127.3908,1.664
127.3908,1.665
127.3918,1.689
127.3918,1.703
127.3928,1.709
127.3928,1.72
127.3928,1.719
127.3928,1.709
127.3938,1.688
127.3938,1.68
127.3948,1.67
127.3948,1.659
127.3957,1.654
127.3967,1.646
127.3967,1.651
127.3967,1.662
127.3977,1.67
127.3977,1.681
127.3987,1.688
127.3987,1.704
127.3997,1.706
127.3997,1.702
127.4007,1.694
127.4007,1.686
127.4007,1.669
127.4007,1.653
127.4017,1.648
127.4017,1.643
127.4017,1.641
127.4029,1.649
127.4029,1.659
127.4037,1.679
127.4037,1.689
127.4047,1.702
127.4047,1.713
127.4047,1.713
127.4047,1.701
127.4057,1.695
127.4057,1.682
127.4057,1.677
127.4057,1.663
127.4067,1.66
127.4067,1.654
127.4067,1.654
127.4067,1.665
127.4067,1.681
127.4077,1.693
127.4077,1.704
127.4077,1.72
127.4077,1.718
127.4087,1.714
127.4087,1.709
127.4087,1.701
127.4087,1.692
127.4097,1.674
127.4097,1.668
127.4097,1.666
127.4097,1.666
127.4107,1.671
127.4107,1.685
127.4120,1.699
127.4127,1.705
127.4167,1.72
127.4187,1.721
127.4307,1.723
127.4388,1.721
127.4457,1.714
127.4466,1.702
127.4466,1.694
127.4466,1.681
127.4476,1.672
127.4476,1.671
127.4486,1.675
127.4486,1.679
127.4486,1.698
127.4486,1.706
127.4498,1.727
127.4498,1.731
127.4506,1.735
127.4506,1.736
127.4506,1.724
127.4516,1.71
127.4517,1.687
127.4517,1.67
127.4517,1.664
127.4526,1.668
127.4526,1.66
127.4536,1.66
127.4536,1.679
127.4546,1.687
127.4548,1.689
127.4556,1.693
127.4556,1.694
127.4556,1.693
127.4566,1.677
127.4566,1.676
127.4576,1.659
127.4579,1.651
127.4586,1.639
127.4586,1.633
127.4586,1.632
127.4596,1.641
127.4596,1.641
127.4606,1.66
127.4616,1.671
127.4620,1.699
127.4646,1.704
127.4686,1.712
127.4745,1.71
127.4817,1.706
127.4915,1.7
127.4925,1.684
127.4955,1.679
127.4965,1.671
127.4965,1.662
127.4971,1.664
127.4975,1.67
127.4975,1.687
127.4975,1.704
127.4975,1.724
127.4985,1.73
127.4985,1.731
127.4985,1.726
127.4995,1.724
127.8114,1.711
127.8118,1.697
127.8124,1.682
127.8124,1.678
127.8134,1.674
127.8134,1.678
127.8144,1.683
127.8144,1.696
127.8144,1.714
127.8154,1.724
127.8154,1.737
127.8164,1.738
127.8164,1.738
127.8164,1.73
127.8174,1.713
127.8174,1.703
127.8184,1.694
127.8184,1.686
127.8184,1.675
127.8194,1.68
127.8194,1.697
127.8204,1.701
127.8204,1.718
127.8214,1.722
127.8214,1.731
127.8214,1.747
127.8227,1.753
127.8227,1.744
127.8234,1.737
127.8234,1.732
127.8244,1.712
127.8244,1.702
127.8254,1.685
127.8254,1.688
127.8264,1.688
127.8264,1.699
127.8274,1.712
127.8274,1.727
127.8284,1.735
127.8294,1.74
127.8294,1.75
127.8304,1.755
127.8304,1.744
127.8314,1.721
127.8314,1.709
127.8314,1.697
127.8324,1.69
127.8324,1.687
127.8334,1.687
127.8334,1.693
127.8343,1.705
127.8343,1.717
127.8354,1.731
127.8354,1.741
127.8364,1.752
127.8364,1.759
127.8364,1.76
127.8374,1.766
127.8374,1.767
127.8386,1.752
127.8393,1.709
127.8393,1.706
127.8403,1.715
127.8403,1.713
127.8413,1.729
127.8413,1.751
127.8413,1.735
127.8424,1.706
127.8424,1.668
127.8433,1.609
127.8433,1.535
127.8443,1.457
127.8448,1.337
127.8453,1.272
127.8453,1.241
127.8463,1.232
127.8463,1.23
127.8473,1.23
127.8473,1.228
127.8473,1.232
127.8483,1.312
127.8483,1.483
127.8493,1.501
127.8493,1.437
127.8493,1.417
127.8503,1.594
127.8503,1.7
127.8513,1.883
127.8513,2.123
127.8523,2.223
127.8523,2.21
127.8523,2.177
127.8533,2.165
127.8593,2.165
127.8736,2.178
127.8882,2.166
127.8952,2.156
127.9042,2.156
127.9174,2.142
127.9331,2.124
127.9361,2.073
127.9400,2.039
127.9411,1.985
127.9411,1.944
127.9411,1.906
127.9421,1.871
127.9421,1.839
127.9435,1.804
127.9440,1.765
127.9450,1.77
127.9463,1.786
127.9470,1.76
127.9470,1.757
127.9481,1.772
127.9481,1.752
127.9491,1.744
127.9491,1.734
127.9501,1.72
127.9501,1.704
127.9511,1.69
127.9511,1.671
127.9511,1.666
127.9521,1.667
127.9521,1.676
127.9530,1.686
127.9530,1.697
127.9530,1.698
127.9540,1.703
127.9540,1.711
127.9550,1.708
127.9550,1.699
127.9560,1.696
127.9560,1.653
127.9560,1.648
127.9571,1.644
127.9571,1.64
127.9580,1.635
127.9580,1.643
127.9580,1.659
127.9590,1.667
127.9590,1.681
127.9600,1.688
127.9600,1.689
127.9610,1.696
127.9610,1.679
127.9620,1.666
127.9630,1.657
127.9690,1.649
127.9740,1.636
127.9899,1.632
128.0079,1.626
128.0139,1.636
128.0202,1.639
128.0308,1.654
128.0468,1.658
128.0647,1.667
128.0697,1.69
128.0807,1.688
128.0867,1.682
128.1156,1.672
128.1187,1.667
128.1246,1.658
128.1345,1.642
128.1495,1.63
128.1645,1.631
128.1714,1.623
128.1728,1.641
128.1734,1.645
128.1734,1.656
128.1744,1.671
128.1744,1.681
128.1754,1.684
128.1754,1.689
128.1764,1.687
128.1764,1.668
128.1774,1.656
128.1781,1.648
128.1784,1.634
128.1804,1.627
128.1804,1.62
128.1814,1.638
128.1814,1.637
128.1814,1.649
128.1884,1.661
128.2033,1.679
128.2184,1.678
128.2213,1.681
128.2263,1.683
128.2343,1.675
128.2484,1.664
128.2622,1.65
128.2672,1.64
128.2722,1.619
128.2722,1.611
128.2732,1.614
128.2732,1.621
128.2742,1.622
128.2742,1.635
128.2752,1.656
128.2752,1.673
128.2762,1.674
128.2762,1.677
128.2762,1.672
128.2777,1.654
128.2781,1.638
128.2796,1.625
128.2801,1.62
128.2801,1.613
128.2811,1.61
128.2811,1.611
128.2821,1.612
128.2821,1.614
128.2831,1.626
128.2831,1.636
128.2841,1.643
128.2841,1.64
128.2841,1.64
128.2851,1.634
128.2851,1.629
128.2861,1.609
128.2861,1.591
128.2871,1.572
128.2871,1.556
128.2871,1.547
128.2881,1.555
128.2881,1.556
128.2891,1.562
128.2891,1.571
128.2901,1.577
128.2901,1.578
128.2901,1.579
128.2911,1.573
128.2911,1.547
128.2925,1.53
128.3001,1.512
128.3140,1.502
128.3300,1.489
128.3340,1.48
128.3410,1.464
128.3440,1.468
128.3536,1.476
128.3632,1.487
128.3669,1.482
128.3680,1.488
128.3689,1.503
128.3689,1.496
128.3689,1.487
128.3699,1.479
128.3699,1.468
128.3699,1.454
128.3699,1.428
128.3711,1.419
128.3711,1.421
128.3711,1.422
128.3719,1.431
128.3719,1.439
128.3719,1.452
128.3719,1.464
128.3729,1.466
128.3729,1.471
128.3729,1.472
128.3739,1.459
128.3739,1.444
128.3739,1.433
128.3749,1.429
128.3749,1.419
128.3749,1.418
128.3749,1.425
128.3759,1.43
128.3759,1.441
128.3759,1.463
128.3759,1.477
128.3769,1.493
128.3769,1.521
128.3779,1.526
128.3779,1.523
128.3790,1.524
128.3790,1.517
128.3790,1.517
128.3799,1.521
128.3799,1.519
128.3799,1.523
128.3809,1.541
128.3809,1.557
128.3809,1.577
128.3809,1.599
128.3819,1.619
128.3819,1.628
128.3819,1.643
128.3829,1.653
128.3829,1.653
128.3829,1.649
128.3829,1.638
128.3839,1.639
128.3839,1.631
128.3839,1.628
128.3849,1.641
128.3849,1.652
128.3849,1.666
128.3849,1.68
128.3858,1.69
128.3858,1.705
128.3858,1.72
128.3858,1.726
128.3870,1.72
128.3870,1.716
128.3870,1.712
128.3878,1.691
128.3878,1.686
128.3878,1.678
128.3888,1.679
128.3888,1.682
128.3888,1.691
128.3888,1.714
128.3898,1.722
128.3898,1.744
128.3898,1.75
128.3908,1.753
128.3908,1.755
128.3908,1.736
128.3908,1.728
128.3918,1.717
128.3918,1.708
128.3918,1.696
128.3918,1.684
128.3928,1.688
128.3928,1.701
128.3928,1.703
128.3938,1.716
128.3938,1.724
128.3948,1.762
128.3958,1.75
128.3958,1.748
128.3958,1.734
128.3958,1.729
128.3968,1.725
128.3968,1.697
128.3968,1.691
128.3978,1.686
128.3978,1.679
128.3978,1.684
128.3978,1.691
128.3988,1.705
128.3988,1.712
128.3988,1.724
128.3998,1.726
128.3998,1.74
128.3998,1.736
128.3998,1.728
128.4008,1.718
128.4008,1.704
128.4008,1.696
128.4008,1.685
128.4008,1.682
128.4018,1.679
128.4018,1.686
128.4018,1.691
128.4018,1.7
128.4018,1.706
128.4041,1.729
128.4068,1.732
128.4131,1.738
128.4198,1.731
128.4228,1.718
128.4233,1.711
128.4238,1.688
128.4238,1.677
128.4238,1.675
128.4238,1.672
128.4248,1.673
128.4248,1.685
128.4248,1.694
128.4248,1.702
128.4248,1.715
128.4258,1.732
128.4258,1.739
128.4258,1.733
128.4258,1.717
128.4258,1.705
128.4268,1.695
128.4268,1.688
128.4268,1.668
128.4275,1.661
128.4277,1.663
128.4277,1.677
128.4288,1.671
128.4288,1.687
128.4288,1.7
128.4288,1.716
128.4298,1.72
128.4298,1.726
128.4298,1.722
128.4298,1.713
128.4298,1.703
128.4308,1.682
128.4308,1.673
128.4308,1.66
128.4308,1.667
128.4308,1.665
128.4318,1.671
128.4318,1.688
128.4318,1.693
128.4318,1.705
128.4318,1.718
128.4328,1.722
128.4328,1.727
128.4328,1.716
128.4328,1.709
128.4328,1.703
128.4338,1.687
128.4338,1.672
128.4338,1.667
128.4338,1.67
128.4338,1.679
128.4349,1.691
128.4349,1.68
128.4357,1.695
128.4357,1.717
128.4357,1.722
128.4357,1.727
128.4357,1.726
128.4367,1.712
128.4367,1.697
128.4367,1.688
128.4367,1.683
128.4367,1.672
128.4377,1.675
128.4377,1.673
128.4377,1.674
128.4377,1.682
128.4377,1.697
128.4387,1.705
128.4387,1.718
128.4387,1.728
128.4387,1.722
128.4397,1.719
128.4397,1.713
128.4397,1.7
128.4397,1.688
128.4397,1.677
128.4407,1.671
128.4407,1.671
128.4407,1.671
128.4407,1.677
128.4407,1.687
128.4417,1.711
128.4417,1.721
128.4417,1.729
128.4417,1.734
128.4417,1.733
128.4427,1.732
128.4427,1.696
128.4457,1.688
128.4487,1.683
128.4547,1.671
128.4629,1.672
128.4647,1.677
128.4657,1.687
128.4657,1.701
128.4657,1.704
128.4657,1.709
128.4666,1.716
128.4666,1.726
128.4666,1.725
128.4676,1.715
128.4676,1.696
128.4676,1.68
128.4676,1.667
128.4676,1.655
128.4686,1.631
128.4686,1.639
128.4686,1.644
128.4686,1.638
128.4686,1.647
128.4696,1.667
128.4696,1.678
128.4696,1.682
128.4696,1.69
128.4696,1.681
128.4706,1.671
128.4706,1.663
128.4706,1.65
128.4706,1.64
128.4706,1.643
128.4716,1.64
128.4716,1.645
128.4716,1.652
128.4716,1.664
128.4716,1.688
128.4726,1.679
128.4726,1.694
128.4726,1.708
128.4726,1.708
128.4726,1.704
128.4736,1.69
128.4736,1.672
128.4926,1.663
128.4926,1.652
128.4926,1.656
128.4926,1.654
128.4936,1.665
128.4936,1.684
128.4940,1.694
128.4940,1.707
128.4940,1.713
128.4946,1.721
128.4946,1.724
128.4946,1.704
128.4956,1.694
128.4956,1.682
128.4956,1.676
128.4956,1.668
128.4956,1.657
128.4966,1.66
128.4966,1.674
128.4966,1.669
128.4966,1.682
128.4966,1.689
128.4977,1.713
128.4977,1.715
128.4977,1.721
128.4977,1.714
128.4986,1.705
128.4986,1.7
128.4986,1.677
128.4986,1.672
128.4986,1.672
128.4996,1.665
128.4996,1.672
128.4996,1.677
128.4996,1.685
128.4996,1.698
128.5006,1.704
128.5006,1.717
128.5006,1.721
128.5006,1.727
128.5006,1.71
128.5016,1.697
128.5016,1.694
128.5016,1.681
128.5016,1.667
128.5016,1.666
128.5026,1.663
128.5026,1.668
128.5026,1.674
128.5026,1.687
128.5026,1.709
128.5036,1.715
128.5036,1.72
128.5036,1.725
128.5036,1.721
128.5046,1.71
128.5046,1.698
128.5046,1.677
128.5046,1.663
128.5046,1.659
128.5056,1.661
128.5056,1.664
128.5056,1.677
128.5056,1.714
128.5056,1.736
128.5066,1.751
128.5066,1.743
128.5066,1.735
128.5066,1.74
128.5066,1.735
128.5076,1.731
128.5076,1.74
128.5076,1.703
128.5076,1.685
128.5076,1.588
128.5086,1.516
128.5086,1.451
128.5086,1.378
128.5086,1.331
128.5086,1.285
128.5096,1.237
128.5096,1.232
128.5096,1.23
128.5096,1.229
128.5096,1.228
128.5106,1.228
128.5106,1.235
128.5110,1.295
128.5110,1.337
128.5116,1.295
128.5116,1.271
128.5116,1.274
128.5116,1.442
128.5116,1.785
128.5126,2.044
128.5145,2.196
128.5155,2.246
128.5225,2.264
128.5305,2.206
128.5331,2.19
128.5335,2.17
128.5335,2.138
128.5335,2.097
128.5335,2.094
128.5335,2.045
128.5345,2.033
128.5345,1.997
128.5345,1.983
128.5345,1.981
128.5345,1.965
128.5354,1.927
128.5354,1.896
128.5354,1.886
128.5354,1.825
128.5354,1.792
128.5364,1.761
128.5364,1.72
128.5364,1.7
128.5364,1.683
128.5374,1.673
128.5374,1.677
128.5374,1.685
128.5374,1.696
128.5374,1.704
128.5384,1.715
128.5384,1.718
128.5384,1.716
128.5384,1.707
128.5384,1.676
128.5394,1.657
128.5394,1.645
128.5394,1.629
128.5394,1.618
128.5394,1.608
128.5404,1.625
128.5404,1.623
128.5404,1.635
128.5404,1.649
128.5404,1.659
128.5414,1.667
128.5414,1.673
128.5414,1.658
128.5414,1.649
128.5414,1.647
128.5424,1.631
128.5424,1.618
128.5424,1.603
128.5424,1.594
128.5424,1.602
128.5434,1.611
128.5434,1.6
128.5434,1.617
128.5445,1.638
128.5445,1.647
128.5454,1.656
128.5454,1.646
128.5454,1.652
128.5454,1.641
128.5464,1.627
128.5464,1.619
128.5464,1.607
128.5464,1.599
128.5464,1.594
128.5474,1.597
128.5474,1.604
128.5474,1.613
128.5474,1.621
128.5474,1.634
128.5484,1.641
128.5484,1.646
128.5484,1.649
128.5484,1.641
128.5484,1.633
128.5494,1.625
128.5494,1.611
128.5494,1.592
128.5494,1.592
128.5494,1.591
128.5504,1.6
128.5504,1.605
128.5504,1.617
128.5504,1.63
128.5514,1.641
128.5514,1.651
128.5514,1.649
128.5514,1.648
128.5514,1.638
128.5524,1.644
128.5524,1.613
128.5524,1.596
128.5524,1.592
128.5524,1.588
128.5534,1.6
128.5534,1.587
128.5554,1.612
128.5574,1.613
128.5644,1.622
128.5723,1.634
128.5746,1.645
128.5771,1.644
128.5774,1.636
128.5774,1.629
128.5784,1.618
128.5784,1.607
128.5784,1.593
128.5784,1.574
128.5784,1.579
128.5794,1.577
128.5794,1.578
128.5794,1.593
128.5794,1.604
128.5794,1.621
128.5804,1.628
128.5804,1.626
128.5804,1.628
128.5804,1.622
128.5804,1.611
128.5814,1.579
128.5814,1.575
128.5814,1.559
128.5814,1.557
128.5814,1.554
128.5824,1.55
128.5824,1.557
128.5824,1.562
128.5824,1.565
128.5834,1.574
128.5834,1.583
128.5834,1.578
128.5834,1.562
128.5834,1.559
128.5844,1.528
128.5844,1.523
128.5844,1.511
128.5844,1.476
128.5844,1.477
128.5854,1.466
128.5854,1.461
128.5854,1.472
128.5854,1.479
128.5854,1.486
128.5864,1.491
128.5864,1.493
128.5864,1.488
128.5864,1.475
128.5864,1.466
128.5874,1.435
128.5874,1.42
128.5874,1.406
128.5874,1.404
128.5874,1.403
128.5884,1.394
128.5884,1.406
128.5884,1.414
128.5884,1.426
128.5884,1.435
128.5894,1.435
128.5894,1.443
128.5894,1.431
128.5894,1.426
128.5894,1.405
128.5903,1.389
128.5903,1.379
128.5903,1.365
128.5903,1.367
128.5903,1.368
128.5914,1.372
128.5914,1.377
128.5923,1.389
128.5923,1.403
128.5923,1.422
128.5933,1.431
128.5933,1.432
128.5939,1.427
128.5943,1.428
128.5943,1.415
128.5953,1.411
128.5953,1.403
128.5953,1.405
128.5953,1.416
128.5963,1.427
128.5963,1.445
128.5963,1.464
128.5963,1.482
128.5963,1.502
128.5973,1.514
128.5973,1.53
128.5973,1.541
128.5973,1.545
128.5983,1.54
128.5983,1.533
128.5983,1.533
128.5983,1.529
128.5983,1.538
128.5993,1.546
128.5993,1.559
128.5993,1.568
128.5993,1.588
128.5993,1.6
128.6003,1.64
128.6003,1.65
128.6003,1.65
128.6003,1.655
128.6003,1.659
128.6013,1.643
128.6013,1.638
128.6013,1.631
128.6013,1.63
128.6013,1.626
128.6023,1.632
128.6023,1.646
128.6023,1.667
128.6023,1.675
128.6023,1.686
128.6033,1.697
128.6033,1.707
128.6033,1.705
128.6033,1.707
128.6043,1.683
128.6043,1.678
128.6043,1.67
128.6043,1.664
128.6043,1.658
128.6053,1.659
128.6053,1.668
128.6053,1.676
128.6053,1.686
128.6053,1.703
128.6063,1.714
128.6063,1.723
128.6063,1.722
128.6063,1.722
128.6063,1.718
128.6074,1.689
128.6074,1.679
128.6074,1.666
128.6074,1.663
128.6083,1.661
128.6083,1.664
128.6083,1.669
128.6083,1.683
128.6093,1.692
128.6093,1.696
128.6093,1.708
128.6093,1.714
128.6093,1.721
128.6103,1.715
128.6103,1.698
128.6106,1.687
128.6106,1.68
128.6112,1.671
128.6112,1.658
128.6112,1.652
128.6112,1.661
128.6112,1.671
128.6122,1.679
128.6122,1.688
128.6122,1.709
128.6122,1.712
128.6132,1.715
128.6135,1.714
128.6162,1.703
128.6224,1.684
128.6302,1.674
128.6319,1.664
128.6344,1.659
128.6344,1.658
128.6344,1.66
128.6352,1.662
128.6352,1.675
128.6352,1.685
128.6352,1.698
128.6352,1.71
128.6362,1.714
128.6362,1.713
128.6362,1.706
128.6362,1.694
128.6362,1.683
128.6372,1.667
128.6372,1.657
128.6372,1.641
128.6372,1.647
128.6384,1.657
128.6384,1.669
128.6384,1.661
128.6384,1.693
128.6392,1.699
128.6392,1.709
128.6392,1.709
128.6392,1.71
128.6392,1.704
128.6402,1.681
128.6402,1.672
128.6402,1.662
128.6402,1.662
128.6412,1.651
128.6412,1.642
128.6412,1.652
128.6412,1.665
128.6422,1.677
128.6422,1.688
128.6422,1.694
128.6422,1.704
128.6432,1.709
128.6432,1.701
128.6432,1.693
128.6432,1.685
128.6442,1.675
128.6445,1.659
128.6445,1.648
128.6452,1.648
128.6452,1.651
128.6452,1.655
128.6462,1.664
128.6462,1.688
128.6462,1.701
128.6462,1.7
128.6472,1.709
128.6472,1.713
128.6472,1.708
128.6472,1.687
128.6482,1.676
128.6482,1.669
128.6482,1.661
128.6482,1.65
128.6482,1.65
128.6492,1.655
128.6492,1.668
128.6492,1.682
128.6492,1.692
128.6502,1.699
128.6502,1.714
128.6502,1.712
128.6502,1.706
128.6512,1.698
128.6512,1.684
128.6512,1.676
128.6512,1.661
128.6512,1.662
128.6522,1.657
128.6522,1.653
128.6522,1.654
128.6522,1.669
128.6532,1.685
128.6532,1.699
128.6532,1.704
128.6532,1.714
128.6542,1.717
128.6544,1.713
128.6544,1.693
128.6544,1.681
128.6552,1.667
128.6552,1.662
128.6552,1.659
128.6562,1.661
128.6562,1.661
128.6562,1.67
128.6562,1.679
128.6562,1.689
128.6572,1.698
128.6572,1.715
128.6572,1.72
128.6572,1.712
128.6582,1.71
128.6582,1.702
128.6582,1.683
128.6582,1.666
128.6592,1.659
128.6592,1.658
128.6592,1.649
128.6592,1.657
128.6592,1.669
128.6602,1.692
128.6602,1.705
128.6602,1.713
128.6611,1.726
128.6615,1.726
128.6615,1.709
128.6621,1.689
128.6621,1.674
128.6621,1.662
128.6621,1.648
128.6632,1.642
128.6661,1.633
128.6691,1.638
128.6747,1.646
128.6862,1.652
128.6886,1.659
128.6916,1.667
128.6920,1.674
128.6920,1.676
128.6920,1.66
128.6930,1.649
128.6930,1.633
128.6930,1.609
129.1749,1.607
129.1809,1.608
129.1819,1.604
129.1819,1.629
129.1819,1.652
129.1831,1.665
129.1842,1.677
129.1849,1.682
129.1849,1.687
129.1849,1.694
129.1859,1.688
129.1859,1.684
129.1869,1.675
129.1869,1.66
129.1879,1.649
129.1879,1.637
129.1879,1.636
129.1889,1.638
129.1889,1.652
129.1899,1.664
129.1899,1.677
129.1908,1.691
129.1908,1.701
129.1908,1.702
129.1918,1.702
129.1918,1.698
129.1928,1.683
129.1928,1.663
129.1939,1.653
129.1939,1.647
129.1948,1.648
129.1958,1.646
129.1958,1.653
129.1969,1.669
129.1969,1.68
129.1979,1.688
129.1979,1.696
129.1979,1.701
129.1993,1.703
129.1998,1.698
129.1998,1.68
129.2009,1.667
129.2009,1.659
129.2019,1.655
129.2019,1.646
129.2019,1.645
129.2029,1.649
129.2039,1.655
129.2039,1.669
129.2039,1.681
129.2049,1.704
129.2049,1.711
129.2059,1.711
129.2059,1.706
129.2068,1.7
129.2068,1.692
129.2068,1.67
129.2078,1.657
129.2078,1.651
129.2088,1.65
129.2088,1.645
129.2098,1.65
129.2098,1.669
129.2108,1.681
129.2117,1.693
129.2118,1.703
129.2118,1.71
129.2132,1.712
129.2198,1.705
129.2347,1.697
129.2587,1.685
129.2627,1.677
129.2677,1.66
129.2677,1.648
129.2687,1.646
129.2687,1.651
129.2696,1.66
129.2696,1.672
129.2706,1.679
129.2706,1.709
129.2706,1.723
129.2716,1.737
129.2716,1.749
129.2726,1.738
129.2786,1.695
129.2946,1.689
129.3105,1.69
129.3176,1.68
129.3189,1.676
129.3255,1.685
129.3414,1.678
129.3578,1.654
129.3614,1.618
129.3670,1.557
129.3675,1.493
129.3675,1.433
129.3684,1.34
129.3684,1.274
129.3694,1.241
129.3694,1.232
129.3707,1.229
129.3707,1.229
129.3714,1.228
129.3714,1.23
129.3724,1.295
129.3724,1.433
129.3734,1.423
129.3734,1.359
129.3734,1.357
129.3744,1.532
129.3744,1.692
129.3754,1.919
129.3754,2.187
129.3764,2.288
129.3764,2.274
129.3774,2.174
129.3783,2.162
129.3803,2.148
129.3813,2.131
129.3813,2.119
129.3823,2.113
129.3823,2.097
129.3833,2.077
129.3904,2.056
129.3964,2.024
129.4123,1.99
129.4312,1.976
129.4362,1.919
129.4412,1.87
129.4462,1.831
129.4592,1.8
129.4751,1.757
129.4791,1.722
129.4841,1.705
129.4841,1.694
129.4851,1.692
129.4851,1.694
129.4861,1.708
129.4861,1.711
129.4871,1.711
129.4871,1.714
129.4881,1.711
129.4881,1.694
129.4881,1.679
129.4891,1.671
129.4891,1.635
129.4901,1.628
129.4901,1.619
129.4911,1.617
129.4911,1.625
129.4911,1.628
129.4921,1.65
129.4921,1.658
129.4930,1.667
129.4952,1.666
129.5021,1.661
129.5150,1.647
129.5310,1.621
129.5362,1.613
129.5433,1.609
129.5499,1.604
129.5609,1.6
129.5738,1.592
129.5738,1.603
129.5768,1.616
129.5809,1.632
129.5809,1.633
129.5809,1.64
129.5818,1.642
129.5818,1.646
129.5818,1.638
129.5828,1.632
129.5828,1.623
129.5838,1.606
129.5838,1.592
129.5838,1.583
129.5851,1.575
129.5851,1.584
129.5858,1.594
129.5860,1.596
129.5860,1.612
129.5868,1.631
129.5868,1.636
129.5868,1.644
129.5878,1.64
129.5878,1.632
129.5883,1.63
129.5888,1.613
129.5888,1.597
129.5888,1.593
129.5898,1.587
129.5900,1.585
129.5900,1.574
129.5908,1.593
129.5908,1.595
129.5908,1.613
129.5908,1.629
129.5918,1.636
129.5918,1.637
129.5918,1.627
129.5928,1.624
129.5928,1.618
129.5928,1.599
129.5928,1.588
129.5938,1.563
129.5938,1.565
129.5948,1.564
129.5949,1.576
129.5949,1.582
129.5958,1.596
129.5962,1.619
129.5962,1.623
129.5968,1.629
129.5968,1.628
129.5978,1.62
129.5978,1.616
129.5978,1.594
129.5989,1.582
129.5989,1.567
129.5989,1.561
129.5998,1.556
129.5998,1.554
129.6002,1.558
129.6008,1.575
129.6008,1.596
129.6008,1.599
129.6008,1.604
129.6017,1.615
129.6017,1.607
129.6024,1.588
129.6047,1.576
129.6097,1.56
129.6177,1.548
129.6269,1.529
129.6287,1.526
129.6317,1.524
129.6317,1.532
129.6317,1.535
129.6327,1.544
129.6330,1.563
129.6330,1.562
129.6337,1.559
129.6337,1.556
129.6342,1.546
129.6347,1.538
129.6347,1.508
129.6347,1.495
129.6357,1.484
129.6357,1.471
129.6367,1.467
129.6367,1.462
129.6367,1.464
129.6367,1.461
129.6378,1.462
129.6378,1.472
129.6378,1.481
129.6388,1.469
129.6388,1.459
129.6388,1.454
129.6396,1.436
129.6396,1.415
129.6396,1.401
129.6406,1.374
129.6406,1.366
129.6406,1.362
129.6416,1.362
129.6416,1.359
129.6416,1.373
129.6416,1.389
129.6426,1.398
129.6426,1.403
129.6426,1.397
129.6436,1.392
129.6438,1.386
129.6438,1.365
129.6446,1.35
129.6446,1.343
129.6456,1.331
129.6456,1.333
129.6456,1.326
129.6466,1.333
129.6466,1.344
129.6466,1.355
129.6466,1.369
129.6476,1.381
129.6476,1.392
129.6476,1.388
129.6476,1.384
129.6486,1.375
129.6486,1.364
129.6486,1.35
129.6496,1.353
129.6496,1.347
129.6496,1.351
129.6496,1.365
129.6507,1.375
129.6537,1.399
129.6582,1.423
129.6646,1.437
129.6726,1.467
129.6736,1.479
129.6760,1.478
129.6766,1.482
129.6766,1.485
129.6775,1.478
129.6778,1.473
129.6778,1.473
129.6785,1.485
129.6785,1.493
129.6795,1.504
129.6795,1.543
129.6795,1.558
129.6802,1.572
129.6805,1.6
129.6805,1.612
129.6805,1.619
129.6815,1.617
129.6815,1.617
129.6815,1.603
129.6815,1.602
129.6826,1.598
129.6826,1.597
129.6826,1.593
129.6835,1.604
129.6835,1.625
129.6835,1.64
129.6835,1.658
129.6845,1.676
129.6845,1.688
129.6845,1.697
129.6855,1.699
129.6855,1.695
129.6855,1.688
129.6865,1.664
129.6865,1.654
129.6865,1.652
129.6865,1.647
129.6875,1.648
129.6875,1.66
129.6875,1.685
129.6885,1.699
129.6885,1.705
129.6885,1.712
129.6885,1.724
129.6895,1.723
129.6895,1.714
129.6895,1.699
129.6905,1.684
129.6905,1.679
129.6905,1.665
129.6905,1.661
129.6915,1.655
129.6915,1.673
129.6915,1.676
129.6915,1.679
129.6925,1.692
129.6925,1.709
129.6925,1.717
129.6935,1.72
129.6938,1.719
129.6938,1.71
129.6938,1.699
129.6945,1.677
129.6945,1.67
129.6955,1.661
129.6955,1.657
129.6955,1.653
129.6965,1.662
129.6965,1.667
129.6965,1.682
129.6965,1.69
129.6975,1.704
129.6975,1.708
129.6975,1.704
129.6975,1.699
129.6975,1.689
129.6975,1.677
129.6985,1.666
129.6986,1.653
129.6986,1.643
129.6986,1.64
129.6995,1.639
129.6995,1.64
129.6995,1.65
129.7005,1.668
129.7005,1.68
129.7005,1.694
129.7005,1.695
129.7015,1.691
129.7015,1.69
129.7015,1.685
129.7025,1.656
129.7028,1.637
129.7028,1.636
129.7028,1.629
129.7035,1.625
129.7035,1.629
129.7035,1.641
129.7035,1.652
129.7045,1.665
129.7047,1.673
129.7047,1.679
129.7047,1.685
129.7055,1.67
129.7055,1.667
129.7055,1.655
129.7055,1.64
129.7065,1.628
129.7065,1.617
129.7065,1.613
129.7072,1.614
129.7075,1.62
129.7075,1.63
129.7075,1.637
129.7075,1.671
129.7085,1.673
129.7085,1.682
129.7085,1.687
129.7091,1.672
129.7095,1.67
129.7095,1.642
129.7095,1.634
129.7095,1.627
129.7105,1.62
129.7105,1.625
129.7105,1.623
129.7115,1.624
129.7115,1.641
129.7115,1.653
129.7115,1.665
129.7144,1.672
129.7164,1.687
129.7234,1.674
129.7314,1.673
129.7335,1.667
129.7354,1.653
129.7354,1.634
129.7364,1.615
129.7364,1.62
129.7364,1.615
129.7374,1.622
129.7374,1.63
129.7374,1.639
129.7374,1.669
129.7384,1.673
129.7384,1.681
129.7384,1.687
129.7394,1.676
129.7394,1.674
129.7394,1.647
129.7394,1.642
129.7404,1.628
129.7404,1.624
129.7404,1.622
129.7404,1.633
129.7414,1.636
129.7414,1.65
129.7414,1.66
129.7424,1.67
129.7424,1.681
129.7434,1.689
129.7434,1.674
129.7444,1.674
129.7444,1.674
129.7454,1.647
129.7454,1.642
129.7454,1.626
129.7464,1.625
129.7464,1.628
129.7474,1.634
129.7474,1.645
129.7474,1.658
129.7474,1.67
129.7484,1.681
129.7484,1.687
129.7484,1.686
129.7494,1.673
129.7494,1.663
129.7494,1.651
129.7504,1.646
129.7504,1.641
129.7504,1.637
129.7513,1.636
129.7513,1.639
129.7513,1.641
129.7513,1.649
129.7523,1.653
129.7523,1.658
129.7523,1.663
129.7523,1.67
129.7523,1.66
129.7523,1.659
129.7535,1.628
129.7559,1.605
129.7573,1.603
129.7653,1.596
130.0855,1.595
130.0877,1.598
130.0907,1.613
130.0907,1.621
130.0914,1.637
130.0914,1.635
130.0914,1.643
130.0914,1.656
130.0924,1.65
130.0924,1.641
130.0924,1.636
130.0934,1.635
130.0938,1.618
130.0938,1.614
130.0938,1.611
130.0944,1.621
130.0944,1.632
130.0944,1.648
130.0954,1.657
130.0954,1.669
130.0954,1.681
130.0954,1.684
130.0964,1.682
130.0964,1.677
130.0964,1.667
130.0964,1.656
130.0974,1.638
130.0974,1.633
130.0974,1.631
130.0984,1.634
130.0984,1.641
130.0984,1.645
130.0984,1.668
130.0994,1.676
130.0994,1.685
130.0994,1.69
130.0994,1.691
130.1004,1.679
130.1004,1.676
130.1004,1.664
130.1004,1.647
130.1014,1.644
130.1014,1.643
130.1014,1.639
130.1024,1.647
130.1024,1.648
130.1024,1.656
130.1024,1.674
130.1034,1.681
130.1034,1.696
130.1034,1.697
130.1044,1.696
130.1044,1.691
130.1044,1.679
130.1044,1.67
130.1044,1.656
130.1054,1.649
130.1054,1.642
130.1054,1.645
130.1064,1.644
130.1065,1.652
130.1065,1.67
130.1065,1.676
130.1074,1.684
130.1074,1.699
130.1074,1.703
130.1084,1.702
130.1084,1.692
130.1084,1.676
130.1084,1.665
130.1094,1.658
130.1094,1.646
130.1094,1.639
130.1094,1.643
130.1104,1.652
130.1104,1.664
130.1104,1.674
130.1114,1.684
130.1114,1.704
130.1124,1.703
130.1124,1.701
130.1124,1.696
130.1124,1.689
130.1135,1.667
130.1135,1.657
130.1135,1.657
130.1135,1.653
130.1144,1.659
130.1144,1.676
130.1144,1.7
130.1154,1.699
130.1154,1.696
130.1154,1.704
130.1154,1.72
130.1164,1.722
130.1164,1.723
130.1164,1.715
130.1174,1.682
130.1174,1.641
130.1174,1.593
130.1174,1.518
130.1184,1.385
130.1184,1.337
130.1184,1.305
130.1184,1.271
130.1194,1.245
130.1194,1.238
130.1194,1.233
130.1194,1.231
130.1204,1.232
130.1204,1.246
130.1204,1.413
130.1204,1.552
130.1214,1.518
130.1214,1.41
130.1214,1.377
130.1214,1.518
130.1225,1.652
130.1225,1.838
130.1225,2.11
130.1234,2.263
130.1234,2.236
130.1234,2.186
130.1234,2.179
130.1244,2.176
130.1244,2.157
130.1244,2.131
130.1244,2.101
130.1253,2.061
130.1253,2.027
130.1253,1.995
130.1263,1.967
130.1263,1.91
130.1263,1.9
130.1263,1.886
130.1273,1.869
130.1273,1.844
130.1273,1.827
130.1283,1.776
130.1283,1.748
130.1283,1.721
130.1283,1.7
130.1293,1.674
130.1293,1.664
130.1293,1.639
130.1293,1.631
130.1303,1.632
130.1303,1.638
130.1303,1.641
130.1313,1.649
130.1313,1.662
130.1313,1.669
130.1313,1.659
130.1323,1.66
130.1323,1.657
130.1323,1.642
130.1333,1.606
130.1333,1.596
130.1333,1.587
130.1333,1.587
130.1343,1.585
130.1343,1.579
130.1343,1.586
130.1343,1.599
130.1353,1.61
130.1353,1.623
130.1353,1.627
130.1363,1.631
130.1363,1.624
130.1363,1.617
130.1363,1.611
130.1373,1.598
130.1373,1.583
130.1373,1.572
130.1373,1.561
130.1384,1.561
130.1384,1.565
130.1384,1.578
130.1393,1.587
130.1393,1.597
130.1393,1.611
130.1393,1.616
130.1403,1.62
130.1403,1.612
130.1403,1.601
130.1413,1.601
130.1413,1.574
130.1413,1.565
130.1423,1.557
130.1423,1.556
130.1423,1.557
130.1423,1.568
130.1433,1.582
130.1433,1.592
130.1440,1.6
130.1443,1.608
130.1443,1.615
130.1443,1.608
130.1453,1.602
130.1455,1.593
130.1455,1.577
130.1455,1.569
130.1463,1.56
130.1463,1.554
130.1463,1.548
130.1463,1.556
130.1473,1.564
130.1473,1.576
130.1473,1.585
130.1473,1.604
130.1483,1.611
130.1483,1.606
130.1483,1.598
130.1483,1.595
130.1493,1.584
130.1493,1.563
130.1493,1.547
130.1493,1.54
130.1493,1.538
130.1493,1.538
130.1503,1.551
130.1503,1.559
130.1503,1.57
130.1503,1.58
130.1503,1.587
130.1503,1.589
130.1503,1.586
130.1513,1.58
130.1513,1.567
130.1513,1.551
130.1513,1.541
130.1513,1.534
130.1513,1.515
130.1523,1.517
130.1523,1.517
130.1523,1.522
130.1523,1.542
130.1523,1.553
130.1523,1.565
130.1523,1.568
130.1523,1.566
130.1563,1.564
130.1593,1.557
130.1664,1.548
130.1722,1.52
130.1745,1.504
130.1772,1.5
130.1772,1.486
130.1782,1.485
130.1782,1.49
130.1782,1.497
130.1782,1.504
130.1792,1.507
130.1792,1.509
130.1792,1.515
130.1792,1.508
130.1802,1.496
130.1802,1.483
130.1802,1.465
130.1812,1.453
130.1812,1.431
130.1812,1.41
130.1812,1.4
130.1822,1.397
130.1822,1.4
130.1822,1.404
130.1822,1.413
130.1832,1.42
130.1832,1.419
130.1832,1.419
130.1832,1.415
130.1842,1.405
130.1842,1.39
130.1842,1.358
130.1853,1.347
130.1853,1.344
130.1853,1.34
130.1853,1.337
130.1862,1.333
130.1862,1.346
130.1862,1.352
130.1872,1.363
130.1872,1.37
130.1872,1.375
130.1872,1.377
130.1882,1.366
130.1882,1.358
130.1882,1.346
130.1882,1.334
130.1892,1.325
130.1892,1.32
130.1892,1.314
130.1892,1.318
130.1902,1.32
130.1902,1.33
130.1902,1.344
130.1902,1.357
130.1912,1.377
130.1912,1.382
130.1912,1.382
130.1912,1.385
130.1922,1.379
130.1922,1.37
130.1922,1.365
130.1922,1.367
130.1933,1.366
130.1972,1.377
130.2051,1.394
130.2141,1.398
130.2161,1.434
130.2191,1.449
130.2191,1.47
130.2201,1.487
130.2201,1.496
130.2201,1.51
130.2201,1.508
130.2211,1.504
130.2211,1.504
130.2216,1.507
130.2216,1.505
130.2221,1.502
130.2221,1.524
130.2221,1.535
130.2221,1.554
130.2232,1.569
130.2232,1.583
130.2232,1.592
130.2232,1.616
130.2241,1.613
130.2241,1.611
130.2241,1.613
130.2251,1.599
130.2251,1.598
130.2251,1.584
130.2251,1.584
130.2261,1.586
130.2261,1.594
130.2261,1.599
130.2271,1.625
130.2271,1.636
130.2271,1.647
130.2282,1.653
130.2282,1.668
130.2282,1.673
130.2291,1.651
130.2291,1.647
130.2291,1.635
130.2291,1.625
130.2301,1.621
130.2301,1.614
130.2306,1.612
130.2311,1.619
130.2311,1.628
130.2311,1.641
130.2321,1.657
130.2321,1.662
130.2321,1.681
130.2321,1.683
130.2331,1.672
130.2331,1.665
130.2331,1.655
130.2341,1.633
130.2341,1.622
130.2341,1.615
130.2351,1.609
130.2351,1.618
130.2351,1.621
130.2351,1.645
130.2361,1.652
130.2361,1.659
130.2361,1.663
130.2361,1.667
130.2370,1.672
130.2370,1.66
130.2370,1.651
130.2380,1.638
130.2380,1.621
130.2380,1.611
130.2380,1.606
130.2390,1.61
130.2390,1.61
130.2390,1.62
130.2390,1.633
130.2400,1.641
130.2400,1.654
130.2400,1.667
130.2400,1.668
130.2410,1.649
130.2410,1.645
130.2410,1.634
130.2410,1.609
130.2420,1.601
130.2420,1.594
130.2420,1.593
130.2430,1.593
130.2430,1.603
130.2430,1.622
130.2430,1.625
130.2440,1.635
130.2445,1.636
130.2450,1.644
130.2450,1.642
130.2450,1.626
130.2450,1.613
130.2460,1.598
130.2460,1.592
130.2460,1.583
130.2460,1.578
130.2470,1.575
130.2470,1.582
130.2470,1.59
130.2480,1.608
130.2480,1.617
130.2480,1.623
130.2490,1.632
130.2490,1.631
130.2490,1.626
130.2490,1.617
130.2500,1.605
130.2500,1.584
130.2500,1.58
130.2500,1.576
130.2510,1.566
130.2510,1.566
130.2510,1.57
130.2510,1.591
130.2520,1.607
130.2520,1.619
130.2520,1.622
130.2520,1.626
130.2530,1.636
130.2530,1.618
130.2530,1.608
130.2530,1.6
130.2540,1.59
130.2540,1.574
130.2540,1.576
130.2540,1.572
130.2540,1.58
130.2550,1.58
130.2550,1.597
130.2550,1.603
130.2550,1.619
130.2560,1.628
130.2560,1.629
130.2560,1.622
130.2560,1.618
130.2570,1.607
130.2570,1.59
130.2570,1.58
130.2570,1.575
130.2580,1.57
130.2580,1.574
130.2580,1.576
130.2580,1.593
130.2590,1.61
130.2590,1.615
130.2590,1.629
130.2590,1.633
130.2600,1.621
130.2600,1.616
130.2600,1.607
130.2607,1.597
130.2610,1.589
130.2610,1.582
130.2610,1.577
130.2610,1.571
130.2620,1.582
130.2620,1.586
130.2620,1.589
130.2620,1.605
130.2631,1.618
130.2660,1.631
130.2670,1.628
130.2740,1.621
130.2835,1.622
130.2849,1.617
130.2875,1.588
130.2879,1.583
130.2879,1.575
130.2879,1.571
130.2879,1.565
130.2889,1.575
130.2889,1.595
130.2889,1.604
130.2897,1.615
130.2899,1.615
130.2899,1.62
130.2899,1.627
130.2899,1.619
130.2909,1.614
130.2909,1.6
130.2909,1.574
130.2909,1.568
130.2919,1.572
130.2919,1.576
130.2919,1.582
130.2919,1.592
130.2929,1.609
130.2929,1.604
130.2929,1.608
130.2939,1.612
130.2941,1.607
130.2945,1.589
130.2949,1.575
130.2949,1.565
130.2949,1.55
130.2959,1.538
130.2959,1.539
130.2959,1.53
130.2959,1.53
130.2969,1.548
130.2969,1.552
130.2969,1.562
130.2969,1.571
130.2979,1.574
130.2979,1.575
130.2979,1.577
130.2979,1.57
130.2989,1.558
130.2989,1.549
130.2989,1.541
130.2989,1.533
130.2999,1.534
130.2999,1.544
130.2999,1.549
130.2999,1.562
130.3009,1.594
130.3009,1.616
130.3009,1.611
130.3009,1.617
130.3019,1.606
130.3019,1.593
130.3019,1.587
130.3019,1.573
130.3029,1.561
130.3069,1.556
130.3148,1.556
130.3248,1.556
130.3268,1.562
130.3299,1.573
130.3299,1.58
130.3299,1.586
130.3308,1.598
130.3308,1.603
130.3308,1.606
130.3318,1.601
130.3318,1.599
130.3318,1.591
130.3328,1.574
130.3328,1.563
130.3328,1.558
130.3338,1.559
130.3338,1.562
130.3338,1.567
130.3338,1.577
130.3348,1.595
130.3348,1.603
130.3348,1.609
130.3348,1.609
130.3358,1.621
130.3358,1.603
130.3358,1.594
130.3368,1.584
130.3368,1.573
130.3368,1.568
130.3368,1.566
130.3378,1.568
130.3378,1.573
130.3378,1.578
130.3388,1.589
130.3388,1.598
130.3388,1.605
130.3388,1.624
130.3398,1.619
130.3398,1.6
130.3398,1.603
130.3404,1.595
130.3408,1.576
130.3408,1.561
130.3408,1.56
130.3418,1.562
130.3418,1.561
130.3418,1.567
130.3418,1.579
130.3428,1.591
130.3429,1.601
130.3429,1.608
130.3429,1.613
130.3438,1.615
130.3438,1.607
130.3438,1.598
130.3448,1.579
130.3448,1.572
130.3448,1.571
130.3458,1.568
130.3458,1.587
130.3458,1.604
130.3458,1.61
130.3468,1.621
130.3468,1.616
130.3468,1.624
130.3468,1.648
130.3478,1.652
130.3478,1.649
130.3478,1.646
130.3478,1.63
130.3488,1.588
130.3488,1.47
130.3488,1.395
130.3488,1.32
130.3497,1.269
130.3497,1.249
130.3497,1.239
130.3497,1.229
130.3507,1.228
130.3507,1.228
130.3507,1.228
130.3517,1.228
130.3517,1.228
130.3517,1.229
130.3523,1.312
130.3527,1.298
130.3527,1.255
130.3527,1.249
130.3527,1.276
130.3537,1.411
130.3537,1.779
130.3537,2.013
130.3537,2.105
130.3547,2.127
130.3547,2.116
130.3547,2.098
130.3547,2.075
130.3558,2.069
130.3558,2.028
130.3558,2.004
130.3567,1.988
130.3569,1.97
130.3569,1.914
130.3577,1.871
130.3577,1.858
130.3577,1.848
130.3577,1.834
130.3587,1.823
130.3587,1.774
130.3587,1.755
130.3587,1.724
130.3597,1.688
130.3597,1.667
130.3597,1.651
130.3597,1.607
130.3607,1.588
130.3611,1.584
130.3611,1.584
130.3617,1.576
130.3617,1.579
130.3617,1.595
130.3617,1.598
130.3627,1.604
130.3647,1.604
130.5382,1.604
130.5392,1.597
130.5392,1.58
130.5392,1.571
130.5402,1.564
130.5407,1.532
130.5407,1.529
130.5413,1.527
130.5413,1.517
130.5413,1.527
130.5423,1.532
130.5423,1.539
130.5432,1.55
130.5432,1.559
130.5432,1.571
130.5442,1.57
130.5442,1.561
130.5442,1.554
130.5452,1.549
130.5452,1.534
130.5452,1.52
130.5452,1.512
130.5452,1.509
130.5452,1.505
130.5462,1.513
130.5462,1.518
130.5462,1.541
130.5462,1.553
130.5462,1.55
130.5462,1.564
130.5472,1.568
130.5472,1.561
130.5472,1.541
130.5476,1.528
130.5476,1.52
130.5476,1.512
130.5476,1.51
130.5482,1.501
130.5482,1.511
130.5482,1.517
130.5482,1.522
130.5482,1.534
130.5482,1.544
130.5482,1.563
130.5492,1.559
130.5495,1.549
130.5495,1.552
130.5495,1.545
130.5495,1.533
130.5502,1.517
130.5502,1.503
130.5502,1.509
130.5502,1.505
130.5502,1.517
130.5512,1.52
130.5512,1.539
130.5512,1.548
130.5512,1.552
130.5512,1.555
130.5512,1.559
130.5512,1.553
130.5522,1.545
130.5522,1.537
130.5522,1.531
130.5522,1.518
130.5522,1.515
130.5522,1.507
130.5532,1.513
130.5532,1.523
130.5532,1.526
130.5532,1.536
130.5532,1.543
130.5542,1.55
130.5542,1.555
130.5542,1.55
130.5542,1.546
130.5552,1.538
130.5552,1.531
130.5552,1.512
130.5552,1.505
130.5552,1.512
130.5552,1.484
130.5552,1.493
130.5562,1.499
130.5562,1.519
130.5562,1.53
130.5562,1.532
130.5562,1.539
130.5562,1.543
130.5562,1.534
130.5572,1.533
130.5572,1.523
130.5572,1.514
130.5572,1.493
130.5572,1.488
130.5572,1.468
130.5572,1.476
130.5583,1.472
130.5583,1.478
130.5583,1.483
130.5592,1.49
130.5592,1.514
130.5592,1.514
130.5592,1.513
130.5603,1.499
130.5603,1.487
130.5603,1.473
130.5603,1.444
130.5612,1.427
130.5612,1.413
130.5612,1.41
130.5622,1.406
130.5622,1.4
130.5622,1.395
130.5622,1.392
130.5632,1.399
130.5632,1.396
