-0.0105
-0.0105
-0.0105
-0.0105
-0.0105
-0.0105
-0.0105
-0.0105
1.7124
1.7124
1.7124
1.7124
1.7124
1.7124
1.7124
1.7124
-0.0124
-0.0124
-0.0124
-0.0124
-0.0124
-0.0124
-0.0124
-0.0124
-0.0113
-0.0113
-0.0113
-0.0113
-0.0113
-0.0113
-0.0113
-0.0113
1.4837
1.4837
1.4837
1.4837
1.4837
1.4837
1.4837
1.4837
-0.0109
-0.0109
-0.0109
-0.0109
-0.0109
-0.0109
-0.0109
-0.0109
-0.0113
-0.0113
-0.0113
-0.0113
-0.0113
-0.0113
-0.0113
-0.0113
1.2456
1.2456
1.2456
1.2456
1.2456
1.2456
1.2456
1.2456
-0.0107
-0.0107
-0.0107
-0.0107
-0.0107
-0.0107
-0.0107
-0.0107
-0.0107
-0.0107
-0.0107
-0.0107
-0.0107
-0.0107
-0.0107
-0.0107
0.8809
0.8809
0.8809
0.8809
0.8809
0.8809
0.8809
0.8809
-0.012
-0.012
-0.012
-0.012
-0.012
-0.012
-0.012
-0.012
0.0142
0.0142
0.0142
0.0142
0.5411
0.5411
0.5411
0.5411
0.5411
0.5411
0.5411
0.5411
2.8168
2.8168
2.8168
2.8168
2.8168
2.8168
2.8168
2.8168
-0.0107
-0.0107
-0.0107
-0.0107
-0.0107
-0.0107
-0.0107
-0.0107
-0.0114
-0.0114
-0.0114
-0.0114
-0.0114
-0.0114
-0.0114
-0.0114
2.6293
2.6293
2.6293
2.6293
2.6293
2.6293
2.6293
2.6293
-0.0118
-0.0118
-0.0118
-0.0118
-0.0118
-0.0118
-0.0118
-0.0118
-0.0101
-0.0101
-0.0101
-0.0101
-0.0101
-0.0101
-0.0101
-0.0101
1.9676
1.9676
1.9676
1.9676
1.9676
1.9676
1.9676
1.9676
-0.0116
-0.0116
-0.0116
-0.0116
-0.0116
-0.0116
-0.0116
-0.0116
-0.0111
-0.0111
-0.0111
-0.0111
-0.0111
-0.0111
-0.0111
-0.0111
0.9645
0.9645
0.9645
0.9645
0.9645
0.9645
0.9645
0.9645
-0.0118
-0.0118
-0.0118
-0.0118
-0.0118
-0.0118
-0.0118
-0.0118
-0.0081
-0.0081
-0.0081
-0.0081
2.6038
2.6038
2.6038
2.6038
2.6038
2.6038
2.6038
2.6038
2.2903
2.2903
2.2903
2.2903
2.2903
2.2903
2.2903
2.2903
-0.0113
-0.0113
-0.0113
-0.0113
-0.0113
-0.0113
-0.0113
-0.0113
-0.0114
-0.0114
-0.0114
-0.0114
-0.0114
-0.0114
-0.0114
-0.0114
2.1772
2.1772
2.1772
2.1772
2.1772
2.1772
2.1772
2.1772
-0.0126
-0.0126
-0.0126
-0.0126
-0.0126
-0.0126
-0.0126
-0.0126
-0.0107
-0.0107
-0.0107
-0.0107
-0.0107
-0.0107
-0.0107
-0.0107
2.4911
2.4911
2.4911
2.4911
2.4911
2.4911
2.4911
2.4911
-0.0127
-0.0127
-0.0127
-0.0127
-0.0127
-0.0127
-0.0127
-0.0127
-0.0113
-0.0113
-0.0113
-0.0113
-0.0113
-0.0113
-0.0113
-0.0113
2.7272
2.7272
2.7272
2.7272
2.7272
2.7272
2.7272
2.7272
-0.0105
-0.0105
-0.0105
-0.0105
-0.0105
-0.0105
-0.0105
-0.0105
-0.0101
-0.0101
-0.0101
-0.0101
2.8153
2.8153
2.8153
2.8153
2.8153
2.8153
2.8153
2.8153
1.515
1.515
1.515
1.515
1.515
1.515
1.515
1.515
-0.0105
-0.0105
-0.0105
-0.0105
-0.0105
-0.0105
-0.0105
-0.0105
-0.0114
-0.0114
-0.0114
-0.0114
-0.0114
-0.0114
-0.0114
-0.0114
1.2581
1.2581
1.2581
1.2581
1.2581
1.2581
1.2581
1.2581
-0.0116
-0.0116
-0.0116
-0.0116
-0.0116
-0.0116
-0.0116
-0.0116
-0.0116
-0.0116
-0.0116
-0.0116
-0.0116
-0.0116
-0.0116
-0.0116
1.2315
1.2315
1.2315
1.2315
1.2315
1.2315
1.2315
1.2315
-0.0118
-0.0118
-0.0118
-0.0118
-0.0118
-0.0118
-0.0118
-0.0118
-0.0107
-0.0107
-0.0107
-0.0107
-0.0107
-0.0107
-0.0107
-0.0107
1.6237
1.6237
1.6237
1.6237
1.6237
1.6237
1.6237
1.6237
-0.0114
-0.0114
-0.0114
-0.0114
-0.0114
-0.0114
-0.0114
-0.0114
-0.0116
-0.0116
-0.0116
-0.0116
2.3228
2.3228
2.3228
2.3228
2.3228
2.3228
2.3228
2.3228
0.4301
0.4301
0.4301
0.4301
0.4301
0.4301
0.4301
0.4301
0.1048
0.1048
0.1048
0.1048
0.1048
0.1048
0.1048
0.1048
-0.0111
-0.0111
-0.0111
-0.0111
-0.0111
-0.0111
-0.0111
-0.0111
0.5704
0.5704
0.5704
0.5704
0.5704
0.5704
0.5704
0.5704
0.0158
0.0158
0.0158
0.0158
0.0158
0.0158
0.0158
0.0158
-0.0126
-0.0126
-0.0126
-0.0126
-0.0126
-0.0126
-0.0126
-0.0126
0.6579
0.6579
0.6579
0.6579
0.6579
0.6579
0.6579
0.6579
-0.0094
-0.0107
-0.0107
-0.0107
-0.0107
-0.0107
-0.0107
-0.0107
-0.0107
0.4594
0.4594
0.4594
0.4594
0.4594
0.4594
0.4594
0.4594
-0.0124
-0.0124
-0.0124
-0.0124
-0.0124
-0.0124
-0.0124
-0.0124
0.0023
0.0023
0.0023
0.0023
0.0023
0.0023
0.0023
0.0023
0.1702
0.1702
0.1702
-0.0101
-0.0101
-0.0101
-0.0101
-0.0101
-0.0101
-0.0101
-0.0101
-0.0114
-0.0114
-0.0114
-0.0114
-0.0114
-0.0114
-0.0114
-0.0114
-0.0114
-0.0114
-0.0114
-0.0114
-0.0114
-0.0114
-0.0114
-0.0114
2.8069
2.8069
2.8069
2.8069
2.8069
2.8069
2.8069
2.8069
-0.0111
-0.0111
-0.0111
-0.0111
-0.0111
-0.0111
-0.0111
-0.0111
-0.0101
-0.0101
-0.0101
-0.0101
-0.0101
-0.0101
-0.0101
-0.0101
2.553
2.553
2.553
2.553
2.553
2.553
2.553
2.553
-0.0111
-0.0111
-0.0111
-0.0111
-0.0111
-0.0111
-0.0111
-0.0111
-0.0114
-0.0114
-0.0114
-0.0114
-0.0114
-0.0114
-0.0114
-0.0114
1.5086
1.5086
1.5086
1.5086
1.5086
1.5086
1.5086
1.5086
-0.0118
-0.0118
-0.0118
-0.0118
-0.0118
-0.0118
-0.0118
-0.0118
-0.0101
-0.0101
-0.0101
-0.0101
-0.0101
-0.0101
-0.0101
-0.0101
1.0942
1.0942
1.0942
1.0942
-0.0107
-0.0107
-0.0107
-0.0107
-0.0107
-0.0107
-0.0107
-0.0107
-0.0118
-0.0118
-0.0118
-0.0118
-0.0118
-0.0118
-0.0118
-0.0118
-0.0118
-0.0118
-0.0118
-0.0118
-0.0118
-0.0118
-0.0118
-0.0118
1.5499
1.5499
1.5499
1.5499
1.5499
1.5499
1.5499
1.5499
-0.0113
-0.0113
-0.0113
-0.0113
-0.0113
-0.0113
-0.0113
-0.0113
-0.0116
-0.0116
-0.0116
-0.0116
-0.0116
-0.0116
-0.0116
-0.0116
1.866
1.866
1.866
1.866
1.866
1.866
1.866
1.866
-0.0124
-0.0124
-0.0124
-0.0124
-0.0124
-0.0124
-0.0124
-0.0124
-0.0107
-0.0107
-0.0107
-0.0107
-0.0107
-0.0107
-0.0107
-0.0107
1.9504
1.9504
1.9504
1.9504
1.9504
1.9504
1.9504
1.9504
-0.0116
-0.0116
-0.0116
-0.0116
-0.0116
-0.0116
-0.0116
-0.0116
-0.0113
-0.0113
-0.0113
-0.0113
-0.0113
-0.0113
-0.0113
-0.0113
2.073
2.073
2.073
2.073
-0.0094
-0.0094
-0.0094
-0.0094
-0.0094
-0.0094
-0.0094
-0.0094
-0.0114
-0.0114
-0.0114
-0.0114
-0.0114
-0.0114
-0.0114
-0.0114
-0.0116
-0.0116
-0.0116
-0.0116
-0.0116
-0.0116
-0.0116
-0.0116
1.0554
1.0554
1.0554
1.0554
1.0554
1.0554
1.0554
1.0554
-0.0116
-0.0116
-0.0116
-0.0116
-0.0116
-0.0116
-0.0116
-0.0116
-0.0101
-0.0101
-0.0101
-0.0101
-0.0101
-0.0101
-0.0101
-0.0101
1.4445
1.4445
1.4445
1.4445
1.4445
1.4445
1.4445
1.4445
-0.012
-0.012
-0.012
-0.012
-0.012
-0.012
-0.012
-0.012
-0.0114
-0.0114
-0.0114
-0.0114
-0.0114
-0.0114
-0.0114
-0.0114
1.7938
1.7938
1.7938
1.7938
1.7938
1.7938
1.7938
1.7938
-0.0118
-0.0118
-0.0118
-0.0118
-0.0118
-0.0118
-0.0118
-0.0118
-0.0116
-0.0116
-0.0116
-0.0116
-0.0116
-0.0116
-0.0116
-0.0116
1.9926
1.9926
1.9926
1.9926
-0.0113
-0.0113
-0.0113
-0.0113
-0.0113
-0.0113
-0.0113
-0.0113
0.4311
0.4311
0.4311
0.4311
0.4311
0.4311
0.4311
0.4311
-0.0118
-0.0118
-0.0118
-0.0118
-0.0118
-0.0118
-0.0118
-0.0118
0.273
0.273
0.273
0.273
0.273
0.273
0.273
0.273
-0.0038
-0.0038
-0.0038
-0.0038
-0.0038
-0.0038
-0.0038
-0.0038
-0.0103
-0.0103
-0.0103
-0.0103
-0.0103
-0.0103
-0.0103
-0.0103
0.3253
0.3253
0.3253
0.3253
0.3253
0.3253
0.3253
0.3253
-0.0122
-0.0122
-0.0122
-0.0122
-0.0122
-0.0122
-0.0122
-0.0122
-0.0096
-0.0096
-0.0096
-0.0096
-0.0096
-0.0096
-0.0096
-0.0096
0.3988
0.3988
0.3988
0.3988
0.3988
0.3988
0.3988
0.3988
-0.0111
-0.0111
-0.0111
-0.0111
-0.0111
-0.0111
-0.0111
-0.0111
-0.0107
-0.0107
-0.0107
-0.0107
-0.0107
-0.0107
-0.0107
-0.0107
1.1811
1.1811
1.1811
1.1811
-0.0105
-0.0105
-0.0105
-0.0105
-0.0105
-0.0105
-0.0105
-0.0105
0.4444
0.4444
0.4444
0.4444
0.4444
0.4444
0.4444
0.4444
-0.012
-0.012
-0.012
-0.012
-0.012
-0.012
-0.012
-0.012
-0.0101
-0.0101
-0.0101
-0.0101
-0.0101
-0.0101
-0.0101
-0.0101
0.2951
0.2951
0.2951
0.2951
0.2951
0.2951
0.2951
0.2951
-0.0129
-0.0129
-0.0129
-0.0129
-0.0129
-0.0129
-0.0129
-0.0129
-0.0073
-0.0073
-0.0073
-0.0073
-0.0073
-0.0073
-0.0073
-0.0073
0.1474
0.1474
0.1474
0.1474
0.1474
0.1474
0.1474
0.1474
-0.012
-0.012
-0.012
-0.012
-0.012
-0.012
-0.012
-0.012
0.0171
0.0171
0.0171
0.0171
0.0171
0.0171
0.0171
0.0171
0.0328
0.0328
0.0328
0.0328
0.0328
0.0328
0.0328
0.0328
-0.0122
-0.0122
-0.0122
-0.0122
-0.0122
-0.0122
-0.0122
-0.0122
0.0216
0.0216
0.0216
0.0216
-0.0058
-0.0058
-0.0058
-0.0058
-0.0058
-0.0058
-0.0058
-0.0058
1.2407
1.2407
1.2407
1.2407
1.2407
1.2407
1.2407
1.2407
-0.012
-0.012
-0.012
-0.012
-0.012
-0.012
-0.012
-0.012
-0.0111
-0.0111
-0.0111
-0.0111
-0.0111
-0.0111
-0.0111
-0.0111
1.2458
1.2458
1.2458
1.2458
1.2458
1.2458
1.2458
1.2458
-0.0114
-0.0114
-0.0114
-0.0114
-0.0114
-0.0114
-0.0114
-0.0114
-0.0124
-0.0124
-0.0124
-0.0124
-0.0124
-0.0124
-0.0124
-0.0124
1.3389
1.3389
1.3389
1.3389
1.3389
1.3389
1.3389
1.3389
-0.0107
-0.0107
-0.0107
-0.0107
-0.0107
-0.0107
-0.0107
-0.0107
-0.0109
-0.0109
-0.0109
-0.0109
-0.0109
-0.0109
-0.0109
-0.0109
0.9527
0.9527
0.9527
0.9527
0.9527
0.9527
0.9527
0.9527
-0.0116
-0.0116
-0.0116
-0.0116
-0.0116
-0.0116
-0.0116
-0.0116
-0.0114
-0.0114
-0.0114
-0.0114
0.7575
0.7575
0.7575
0.7575
0.7575
0.7575
0.7575
0.7575
2.0749
2.0749
2.0749
2.0749
2.0749
2.0749
2.0749
2.0749
-0.0114
-0.0114
-0.0114
-0.0114
-0.0114
-0.0114
-0.0114
-0.0114
-0.0116
-0.0116
-0.0116
-0.0116
-0.0116
-0.0116
-0.0116
-0.0116
1.8131
1.8131
1.8131
1.8131
1.8131
1.8131
1.8131
1.8131
-0.0113
-0.0113
-0.0113
-0.0113
-0.0113
-0.0113
-0.0113
-0.0113
-0.0114
-0.0114
-0.0114
-0.0114
-0.0114
-0.0114
-0.0114
-0.0114
1.8416
1.8416
1.8416
1.8416
1.8416
1.8416
1.8416
1.8416
-0.0111
-0.0111
-0.0111
-0.0111
-0.0111
-0.0111
-0.0111
-0.0111
-0.0114
-0.0114
-0.0114
-0.0114
-0.0114
-0.0114
-0.0114
-0.0114
1.4955
1.4955
1.4955
1.4955
1.4955
1.4955
1.4955
1.4955
-0.0099
-0.0099
-0.0099
-0.0099
-0.0099
-0.0099
-0.0099
-0.0099
-0.0114
-0.0114
-0.0114
-0.0114
0.9563
0.9563
0.9563
0.9563
0.9563
0.9563
0.9563
0.9563
2.3558
2.3558
2.3558
2.3558
2.3558
2.3558
2.3558
2.3558
-0.012
-0.012
-0.012
-0.012
-0.012
-0.012
-0.012
-0.012
-0.0116
-0.0116
-0.0116
-0.0116
-0.0116
-0.0116
-0.0116
-0.0116
2.4
2.4
2.4
2.4
2.4
2.4
2.4
2.4
-0.0116
-0.0116
-0.0116
-0.0116
-0.0116
-0.0116
-0.0116
-0.0116
-0.0113
-0.0113
-0.0113
-0.0113
-0.0113
-0.0113
-0.0113
-0.0113
1.9731
1.9731
1.9731
1.9731
1.9731
1.9731
1.9731
1.9731
-0.0118
-0.0118
-0.0118
-0.0118
-0.0118
-0.0118
-0.0118
-0.0118
-0.0103
-0.0103
-0.0103
-0.0103
-0.0103
-0.0103
-0.0103
-0.0103
1.6427
1.6427
1.6427
1.6427
1.6427
1.6427
1.6427
1.6427
-0.0116
-0.0116
-0.0116
-0.0116
-0.0116
-0.0116
-0.0116
-0.0116
-0.0101
-0.0101
-0.0101
-0.0101
1.5784
1.5784
1.5784
1.5784
1.5784
1.5784
1.5784
1.5784
1.0871
1.0871
1.0871
1.0871
1.0871
1.0871
1.0871
1.0871
-0.0107
-0.0107
-0.0107
-0.0107
-0.0107
-0.0107
-0.0107
-0.0107
-0.0113
-0.0113
-0.0113
-0.0113
-0.0113
-0.0113
-0.0113
-0.0113
1.0031
1.0031
1.0031
1.0031
1.0031
1.0031
1.0031
1.0031
-0.0109
-0.0109
-0.0109
-0.0109
-0.0109
-0.0109
-0.0109
-0.0109
-0.0116
-0.0116
-0.0116
-0.0116
-0.0116
-0.0116
-0.0116
-0.0116
1.4027
1.4027
1.4027
1.4027
1.4027
1.4027
1.4027
1.4027
-0.0127
-0.0127
-0.0127
-0.0127
-0.0127
-0.0127
-0.0127
-0.0127
-0.0099
-0.0099
-0.0099
-0.0099
-0.0099
-0.0099
-0.0099
-0.0099
1.5799
1.5799
1.5799
1.5799
1.5799
1.5799
1.5799
1.5799
-0.0118
-0.0118
-0.0118
-0.0118
-0.0118
-0.0118
-0.0118
-0.0118
-0.0105
-0.0105
-0.0105
-0.0105
1.6059
1.6059
1.6059
1.6059
1.6059
1.6059
1.6059
1.6059
0.1939
0.1939
0.1939
0.1939
0.1939
0.1939
0.1939
0.1939
-0.0113
-0.0113
-0.0113
-0.0113
-0.0113
-0.0113
-0.0113
-0.0113
-0.0116
-0.0116
-0.0116
-0.0116
-0.0116
-0.0116
-0.0116
-0.0116
0.2331
0.2331
0.2331
0.2331
0.2331
0.2331
0.2331
0.2331
-0.0105
-0.0105
-0.0105
-0.0105
-0.0105
-0.0105
-0.0105
-0.0105
-0.0111
-0.0111
-0.0111
-0.0111
-0.0111
-0.0111
-0.0111
-0.0111
0.1704
0.1704
0.1704
0.1704
0.1704
0.1704
0.1704
0.1704
-0.0114
-0.0114
-0.0114
-0.0114
-0.0114
-0.0114
-0.0114
-0.0114
-0.0103
-0.0103
-0.0103
-0.0103
-0.0103
-0.0103
-0.0103
-0.0103
2.1319
2.1319
2.1319
2.1319
2.1319
2.1319
2.1319
2.1319
-0.0113
-0.0113
-0.0113
-0.0113
-0.0113
-0.0113
-0.0113
-0.0113
-0.0111
-0.0111
-0.0111
-0.0111
1.1664
1.1664
1.1664
1.1664
1.1664
1.1664
1.1664
1.1664
-0.0105
-0.0105
-0.0105
-0.0105
-0.0105
-0.0105
-0.0105
-0.0105
0.1785
0.1785
0.1785
0.1785
0.1785
0.1785
0.1785
0.1785
-0.0116
-0.0116
-0.0116
-0.0116
-0.0116
-0.0116
-0.0116
-0.0116
-0.0088
-0.0088
-0.0088
-0.0088
-0.0088
-0.0088
-0.0088
-0.0088
0.0615
0.0615
0.0615
0.0615
0.0615
0.0615
0.0615
0.0615
-0.0118
-0.0118
-0.0118
-0.0118
-0.0118
-0.0118
-0.0118
-0.0118
0.0137
0.0137
0.0137
0.0137
0.0137
0.0137
0.0137
0.0137
0.0019
0.0019
0.0019
0.0019
0.0019
0.0019
0.0019
0.0019
-0.0126
-0.0126
-0.0126
-0.0126
-0.0126
-0.0126
-0.0126
-0.0126
0.0491
0.0491
0.0491
0.0491
0.0491
0.0491
0.0491
0.0491
-0.0062
-0.0062
-0.0062
-0.0062
-0.0062
-0.0062
-0.0062
-0.0062
-0.0109
-0.0109
-0.0109
-0.0109
0.1582
0.1582
0.1582
0.1582
0.1582
0.1582
0.1582
0.1582
-0.0116
-0.0116
-0.0116
-0.0116
-0.0116
-0.0116
-0.0116
-0.0116
0.4106
0.4106
0.4106
0.4106
0.4106
0.4106
0.4106
0.4106
-0.0118
-0.0118
-0.0118
-0.0118
-0.0118
-0.0118
-0.0118
-0.0118
-0.0116
-0.0116
-0.0116
-0.0116
-0.0116
-0.0116
-0.0116
-0.0116
0.2227
0.2227
0.2227
0.2227
0.2227
0.2227
0.2227
0.2227
-0.0116
-0.0116
-0.0116
-0.0116
-0.0116
-0.0116
-0.0116
-0.0116
-0.0114
-0.0114
-0.0114
-0.0114
-0.0114
-0.0114
-0.0114
-0.0114
0.0844
0.0844
0.0844
0.0844
0.0844
0.0844
0.0844
0.0844
-0.0126
-0.0126
-0.0126
-0.0126
-0.0126
-0.0126
-0.0126
-0.0126
-0.0118
-0.0118
-0.0118
-0.0118
-0.0118
-0.0118
-0.0118
-0.0118
0.0776
0.0776
0.0776
0.0776
0.0776
0.0776
0.0776
0.0776
-0.0118
-0.0118
-0.0118
-0.0118
0.0131
0.0131
0.0131
0.0131
0.0131
0.0131
0.0131
0.0131
-0.0118
-0.0118
-0.0118
-0.0118
-0.0118
-0.0118
-0.0118
-0.0118
1.8812
1.8812
1.8812
1.8812
1.8812
1.8812
1.8812
1.8812
-0.0113
-0.0113
-0.0113
-0.0113
-0.0113
-0.0113
-0.0113
-0.0113
-0.0111
-0.0111
-0.0111
-0.0111
-0.0111
-0.0111
-0.0111
-0.0111
1.7406
1.7406
1.7406
1.7406
1.7406
1.7406
1.7406
1.7406
-0.0116
-0.0116
-0.0116
-0.0116
-0.0116
-0.0116
-0.0116
-0.0116
-0.0114
-0.0114
-0.0114
-0.0114
-0.0114
-0.0114
-0.0114
-0.0114
1.344
1.344
1.344
1.344
1.344
1.344
1.344
1.344
-0.012
-0.012
-0.012
-0.012
-0.012
-0.012
-0.012
-0.012
-0.0114
-0.0114
-0.0114
-0.0114
-0.0114
-0.0114
-0.0114
-0.0114
1.0864
1.0864
1.0864
1.0864
1.0864
1.0864
1.0864
1.0864
-0.0107
-0.0107
-0.0107
-0.0107
-0.0116
-0.0116
-0.0116
-0.0116
-0.0116
-0.0116
-0.0116
-0.0116
-0.0114
-0.0114
-0.0114
-0.0114
-0.0114
-0.0114
-0.0114
-0.0114
1.4557
1.4557
1.4557
1.4557
1.4557
1.4557
1.4557
1.4557
-0.0109
-0.0109
-0.0109
-0.0109
-0.0109
-0.0109
-0.0109
-0.0109
-0.0114
-0.0114
-0.0114
-0.0114
-0.0114
-0.0114
-0.0114
-0.0114
1.7406
1.7406
1.7406
1.7406
1.7406
1.7406
1.7406
1.7406
-0.0122
-0.0122
-0.0122
-0.0122
-0.0122
-0.0122
-0.0122
-0.0122
-0.0113
-0.0113
-0.0113
-0.0113
-0.0113
-0.0113
-0.0113
-0.0113
2.0175
2.0175
2.0175
2.0175
2.0175
2.0175
2.0175
2.0175
-0.0127
-0.0127
-0.0127
-0.0127
-0.0127
-0.0127
-0.0127
-0.0127
-0.0116
-0.0116
-0.0116
-0.0116
-0.0116
-0.0116
-0.0116
-0.0116
2.1583
2.1583
2.1583
2.1583
2.1583
2.1583
2.1583
2.1583
-0.0111
-0.0111
-0.0111
-0.0111
-0.0107
-0.0107
-0.0107
-0.0107
-0.0107
-0.0107
-0.0107
-0.0107
-0.0114
-0.0114
-0.0114
-0.0114
-0.0114
-0.0114
-0.0114
-0.0114
1.7149
1.7149
1.7149
1.7149
1.7149
1.7149
1.7149
1.7149
-0.0116
-0.0116
-0.0116
-0.0116
-0.0116
-0.0116
-0.0116
-0.0116
-0.0122
-0.0122
-0.0122
-0.0122
-0.0122
-0.0122
-0.0122
-0.0122
2.1006
2.1006
2.1006
2.1006
2.1006
2.1006
2.1006
2.1006
-0.0111
-0.0111
-0.0111
-0.0111
-0.0111
-0.0111
-0.0111
-0.0111
-0.0116
-0.0116
-0.0116
-0.0116
-0.0116
-0.0116
-0.0116
-0.0116
1.7723
1.7723
1.7723
1.7723
1.7723
1.7723
1.7723
1.7723
-0.0118
-0.0118
-0.0118
-0.0118
-0.0118
-0.0118
-0.0118
-0.0118
-0.0118
-0.0118
-0.0118
-0.0118
-0.0118
-0.0118
-0.0118
-0.0118
1.722
1.722
1.722
1.722
1.722
1.722
1.722
1.722
-0.0116
-0.0116
-0.0116
-0.0116
-0.0105
-0.0105
-0.0105
-0.0105
-0.0105
-0.0105
-0.0105
-0.0105
-0.0118
-0.0118
-0.0118
-0.0118
-0.0118
-0.0118
-0.0118
-0.0118
0.1974
0.1974
0.1974
0.1974
0.1974
0.1974
0.1974
0.1974
-0.0105
-0.0105
-0.0105
-0.0105
-0.0105
-0.0105
-0.0105
-0.0105
-0.0113
-0.0113
-0.0113
-0.0113
-0.0113
-0.0113
-0.0113
-0.0113
0.2786
0.2786
0.2786
0.2786
0.2786
0.2786
0.2786
0.2786
-0.0118
-0.0118
-0.0118
-0.0118
-0.0118
-0.0118
-0.0118
-0.0118
-0.0118
-0.0118
-0.0118
-0.0118
-0.0118
-0.0118
-0.0118
-0.0118
0.1676
0.1676
0.1676
0.1676
0.1676
0.1676
0.1676
0.1676
-0.0107
-0.0107
-0.0107
-0.0107
-0.0107
-0.0107
-0.0107
-0.0107
-0.0109
-0.0109
-0.0109
-0.0109
-0.0109
-0.0109
-0.0109
-0.0109
0.8578
0.8578
0.8578
0.8578
0.8578
0.8578
0.8578
0.8578
-0.0109
-0.0109
-0.0109
-0.0109
-0.0101
-0.0101
-0.0101
-0.0101
-0.0101
-0.0101
-0.0101
-0.0101
-0.0111
-0.0111
-0.0111
-0.0111
-0.0111
-0.0111
-0.0111
-0.0111
1.0013
1.0013
1.0013
1.0013
1.0013
1.0013
1.0013
1.0013
-0.009
-0.009
-0.009
-0.009
-0.009
-0.009
-0.009
-0.009
-0.0113
-0.0113
-0.0113
-0.0113
-0.0113
-0.0113
-0.0113
-0.0113
0.1091
0.1091
0.1091
0.1091
0.1091
0.1091
0.1091
0.1091
-0.012
-0.012
-0.012
-0.012
-0.012
-0.012
-0.012
-0.012
-0.0105
-0.0105
-0.0105
-0.0105
-0.0105
-0.0105
-0.0105
-0.0105
0.6561
0.6561
0.6561
0.6561
0.6561
0.6561
0.6561
0.6561
-0.0116
-0.0116
-0.0116
-0.0116
-0.0116
-0.0116
-0.0116
-0.0116
-0.0114
-0.0114
-0.0114
-0.0114
-0.0114
-0.0114
-0.0114
-0.0114
0.4414
0.4414
0.4414
0.4414
0.4414
0.4414
0.4414
0.4414
-0.0113
-0.0113
-0.0113
-0.0113
-0.0101
-0.0101
-0.0101
-0.0101
-0.0101
-0.0101
-0.0101
-0.0101
-0.0107
-0.0107
-0.0107
-0.0107
-0.0107
-0.0107
-0.0107
-0.0107
-0.0116
-0.0116
-0.0116
-0.0116
-0.0116
-0.0116
-0.0116
-0.0116
0.0909
0.0909
0.0909
0.0909
0.0909
0.0909
0.0909
0.0909
-0.0109
-0.0109
-0.0109
-0.0109
-0.0109
-0.0109
-0.0109
-0.0109
-0.0107
-0.0107
-0.0107
-0.0107
-0.0107
-0.0107
-0.0107
-0.0107
0.0975
0.0975
0.0975
0.0975
0.0975
0.0975
0.0975
0.0975
-0.0109
-0.0109
-0.0109
-0.0109
-0.0109
-0.0109
-0.0109
-0.0109
-0.0111
-0.0111
-0.0111
-0.0111
-0.0111
-0.0111
-0.0111
-0.0111
-0.009
-0.009
-0.009
-0.009
-0.009
-0.009
-0.009
-0.009
-0.012
-0.012
-0.012
-0.012
-0.012
-0.012
-0.012
-0.012
-0.009
-0.009
-0.009
-0.009
-0.009
-0.009
-0.009
-0.009
-0.0098
-0.0098
-0.0098
-0.0098
-0.0105
-0.0105
-0.0105
-0.0105
-0.0105
-0.0105
-0.0105
-0.0105
1.1529
1.1529
1.1529
1.1529
1.1529
1.1529
1.1529
1.1529
-0.0107
-0.0107
-0.0107
-0.0107
-0.0107
-0.0107
-0.0107
-0.0107
-0.0109
-0.0109
-0.0109
-0.0109
-0.0109
-0.0109
-0.0109
-0.0109
1.7049
1.7049
1.7049
1.7049
1.7049
1.7049
1.7049
1.7049
-0.0113
-0.0113
-0.0113
-0.0113
-0.0113
-0.0113
-0.0113
-0.0113
-0.0116
-0.0116
-0.0116
-0.0116
-0.0116
-0.0116
-0.0116
-0.0116
1.9798
1.9798
1.9798
1.9798
1.9798
1.9798
1.9798
1.9798
-0.0113
-0.0113
-0.0113
-0.0113
-0.0113
-0.0113
-0.0113
-0.0113
-0.012
-0.012
-0.012
-0.012
-0.012
-0.012
-0.012
-0.012
1.9959
1.9959
1.9959
1.9959
1.9959
1.9959
1.9959
1.9959
-0.0109
-0.0109
-0.0109
-0.0109
-0.0109
-0.0109
-0.0109
-0.0109
-0.0107
-0.0107
-0.0107
-0.0107
2.0128
2.0128
2.0128
2.0128
2.0128
2.0128
2.0128
2.0128
2.0102
2.0102
2.0102
2.0102
2.0102
2.0102
2.0102
2.0102
-0.0124
-0.0124
-0.0124
-0.0124
-0.0124
-0.0124
-0.0124
-0.0124
-0.0113
-0.0113
-0.0113
-0.0113
-0.0113
-0.0113
-0.0113
-0.0113
2.0477
2.0477
2.0477
2.0477
2.0477
2.0477
2.0477
2.0477
-0.0116
-0.0116
-0.0116
-0.0116
-0.0116
-0.0116
-0.0116
-0.0116
-0.0111
-0.0111
-0.0111
-0.0111
-0.0111
-0.0111
-0.0111
-0.0111
2.0522
2.0522
2.0522
2.0522
2.0522
2.0522
2.0522
2.0522
-0.0118
-0.0118
-0.0118
-0.0118
-0.0118
-0.0118
-0.0118
-0.0118
-0.0107
-0.0107
-0.0107
-0.0107
-0.0107
-0.0107
-0.0107
-0.0107
1.764
1.764
1.764
1.764
1.764
1.764
1.764
1.764
-0.012
-0.012
-0.012
-0.012
-0.012
-0.012
-0.012
-0.012
-0.0113
-0.0113
-0.0113
-0.0113
1.3577
1.3577
1.3577
1.3577
1.3577
1.3577
1.3577
1.3577
1.0018
1.0018
1.0018
1.0018
1.0018
1.0018
1.0018
1.0018
-0.0107
-0.0107
-0.0107
-0.0107
-0.0107
-0.0107
-0.0107
-0.0107
-0.012
-0.012
-0.012
-0.012
-0.012
-0.012
-0.012
-0.012
1.2568
1.2568
1.2568
1.2568
1.2568
1.2568
1.2568
1.2568
-0.012
-0.012
-0.012
-0.012
-0.012
-0.012
-0.012
-0.012
-0.0129
-0.0129
-0.0129
-0.0129
-0.0129
-0.0129
-0.0129
-0.0129
1.2242
1.2242
1.2242
1.2242
1.2242
1.2242
1.2242
1.2242
-0.0126
-0.0126
-0.0126
-0.0126
-0.0126
-0.0126
-0.0126
-0.0126
-0.0116
-0.0116
-0.0116
-0.0116
-0.0116
-0.0116
-0.0116
-0.0116
1.2703
1.2703
1.2703
1.2703
1.2703
1.2703
1.2703
1.2703
-0.0111
-0.0111
-0.0111
-0.0111
-0.0111
-0.0111
-0.0111
-0.0111
-0.0118
-0.0118
-0.0118
-0.0118
1.9018
1.9018
1.9018
1.9018
1.9018
1.9018
1.9018
1.9018
0.0041
0.0041
0.0041
0.0041
0.0041
0.0041
0.0041
0.0041
0.0077
0.0077
0.0077
0.0077
0.0077
0.0077
0.0077
0.0077
-0.0126
-0.0126
-0.0126
-0.0126
-0.0126
-0.0126
-0.0126
-0.0126
0.0471
0.0471
0.0471
0.0471
0.0471
0.0471
0.0471
0.0471
-0.0077
-0.0077
-0.0077
-0.0077
-0.0077
-0.0077
-0.0077
-0.0077
-0.0107
-0.0107
-0.0107
-0.0107
-0.0107
-0.0107
-0.0107
-0.0107
0.0919
0.0919
0.0919
0.0919
0.0919
0.0919
0.0919
0.0919
-0.0113
-0.0113
-0.0113
-0.0113
-0.0113
-0.0113
-0.0113
-0.0113
-0.0114
-0.0114
-0.0114
-0.0114
-0.0114
-0.0114
-0.0114
-0.0114
0.1241
0.1241
0.1241
0.1241
0.1241
0.1241
0.1241
0.1241
-0.0118
-0.0118
-0.0118
-0.0118
-0.0118
-0.0118
-0.0118
-0.0118
-0.012
-0.012
-0.012
-0.012
0.5846
0.5846
0.5846
0.5846
0.5846
0.5846
0.5846
0.5846
-0.012
-0.012
-0.012
-0.012
-0.012
-0.012
-0.012
-0.012
0.3529
0.3529
0.3529
0.3529
0.3529
0.3529
0.3529
0.3529
-0.0099
-0.0099
-0.0099
-0.0099
-0.0099
-0.0099
-0.0099
-0.0099
-0.0114
-0.0114
-0.0114
-0.0114
-0.0114
-0.0114
-0.0114
-0.0114
0.2769
0.2769
0.2769
0.2769
0.2769
0.2769
0.2769
0.2769
-0.012
-0.012
-0.012
-0.012
-0.012
-0.012
-0.012
-0.012
-0.0118
-0.0118
-0.0118
-0.0118
-0.0118
-0.0118
-0.0118
-0.0118
-0.0122
-0.0122
-0.0122
-0.0122
-0.0122
-0.0122
-0.0122
-0.0122
-0.0114
-0.0114
-0.0114
-0.0114
-0.0114
-0.0114
-0.0114
-0.0114
0.24
0.24
0.24
0.24
0.24
0.24
0.24
0.24
0.1277
0.1277
0.1277
0.1277
0.1277
0.1277
0.1277
0.1277
-0.012
-0.012
-0.012
-0.012
-0.0045
-0.0045
-0.0045
-0.0045
-0.0045
-0.0045
-0.0045
-0.0045
-0.0114
-0.0114
-0.0114
-0.0114
-0.0114
-0.0114
-0.0114
-0.0114
1.1923
1.1923
1.1923
1.1923
1.1923
1.1923
1.1923
1.1923
-0.0116
-0.0116
-0.0116
-0.0116
-0.0116
-0.0116
-0.0116
-0.0116
-0.0109
-0.0109
-0.0109
-0.0109
-0.0109
-0.0109
-0.0109
-0.0109
1.0429
1.0429
1.0429
1.0429
1.0429
1.0429
1.0429
1.0429
-0.0116
-0.0116
-0.0116
-0.0116
-0.0116
-0.0116
-0.0116
-0.0116
-0.0113
-0.0113
-0.0113
-0.0113
-0.0113
-0.0113
-0.0113
-0.0113
0.8359
0.8359
0.8359
0.8359
0.8359
0.8359
0.8359
0.8359
-0.0118
-0.0118
-0.0118
-0.0118
-0.0118
-0.0118
-0.0118
-0.0118
-0.012
-0.012
-0.012
-0.012
-0.012
-0.012
-0.012
-0.012
0.5213
0.5213
0.5213
0.5213
0.5213
0.5213
0.5213
0.5213
-0.0124
-0.0124
-0.0124
-0.0124
-0.0105
-0.0105
-0.0105
-0.0105
-0.0105
-0.0105
-0.0105
-0.0105
-0.0118
-0.0118
-0.0118
-0.0118
-0.0118
-0.0118
-0.0118
-0.0118
1.2394
1.2394
1.2394
1.2394
1.2394
1.2394
1.2394
1.2394
-0.0111
-0.0111
-0.0111
-0.0111
-0.0111
-0.0111
-0.0111
-0.0111
-0.0118
-0.0118
-0.0118
-0.0118
-0.0118
-0.0118
-0.0118
-0.0118
0.8946
0.8946
0.8946
0.8946
0.8946
0.8946
0.8946
0.8946
-0.0118
-0.0118
-0.0118
-0.0118
-0.0118
-0.0118
-0.0118
-0.0118
-0.0129
-0.0129
-0.0129
-0.0129
-0.0129
-0.0129
-0.0129
-0.0129
0.8139
0.8139
0.8139
0.8139
0.8139
0.8139
0.8139
0.8139
-0.0126
-0.0126
-0.0126
-0.0126
-0.0126
-0.0126
-0.0126
-0.0126
-0.0116
-0.0116
-0.0116
-0.0116
-0.0116
-0.0116
-0.0116
-0.0116
0.7543
0.7543
0.7543
0.7543
0.7543
0.7543
0.7543
0.7543
-0.0109
-0.0109
-0.0109
-0.0109
-0.0103
-0.0103
-0.0103
-0.0103
-0.0103
-0.0103
-0.0103
-0.0103
-0.0107
-0.0107
-0.0107
-0.0107
-0.0107
-0.0107
-0.0107
-0.0107
2.0282
2.0282
2.0282
2.0282
2.0282
2.0282
2.0282
2.0282
-0.0127
-0.0127
-0.0127
-0.0127
-0.0127
-0.0127
-0.0127
-0.0127
-0.0126
-0.0126
-0.0126
-0.0126
-0.0126
-0.0126
-0.0126
-0.0126
2.1981
2.1981
2.1981
2.1981
2.1981
2.1981
2.1981
2.1981
-0.0111
-0.0111
-0.0111
-0.0111
-0.0111
-0.0111
-0.0111
-0.0111
-0.0109
-0.0109
-0.0109
-0.0109
-0.0109
-0.0109
-0.0109
-0.0109
2.3126
2.3126
2.3126
2.3126
2.3126
2.3126
2.3126
2.3126
-0.0118
-0.0118
-0.0118
-0.0118
-0.0118
-0.0118
-0.0118
-0.0118
-0.0118
-0.0118
-0.0118
-0.0118
-0.0118
-0.0118
-0.0118
-0.0118
1.9012
1.9012
1.9012
1.9012
1.9012
1.9012
1.9012
1.9012
-0.0127
-0.0127
-0.0127
-0.0127
-0.0099
-0.0099
-0.0099
-0.0099
-0.0099
-0.0099
-0.0099
-0.0099
-0.0107
-0.0107
-0.0107
-0.0107
-0.0107
-0.0107
-0.0107
-0.0107
1.2637
1.2637
1.2637
1.2637
1.2637
1.2637
1.2637
1.2637
-0.0122
-0.0122
-0.0122
-0.0122
-0.0122
-0.0122
-0.0122
-0.0122
-0.0107
-0.0107
-0.0107
-0.0107
-0.0107
-0.0107
-0.0107
-0.0107
1.4312
1.4312
1.4312
1.4312
1.4312
1.4312
1.4312
1.4312
-0.0118
-0.0118
-0.0118
-0.0118
-0.0118
-0.0118
-0.0118
-0.0118
-0.0109
-0.0109
-0.0109
-0.0109
-0.0109
-0.0109
-0.0109
-0.0109
1.5662
1.5662
1.5662
1.5662
1.5662
1.5662
1.5662
1.5662
-0.0126
-0.0126
-0.0126
-0.0126
-0.0126
-0.0126
-0.0126
-0.0126
-0.0114
-0.0114
-0.0114
-0.0114
-0.0114
-0.0114
-0.0114
-0.0114
1.7381
1.7381
1.7381
1.7381
1.7381
1.7381
1.7381
1.7381
-0.0114
-0.0114
-0.0114
-0.0114
-0.0101
-0.0101
-0.0101
-0.0101
-0.0101
-0.0101
-0.0101
-0.0101
-0.0116
-0.0116
-0.0116
-0.0116
-0.0116
-0.0116
-0.0116
-0.0116
1.5744
1.5744
1.5744
1.5744
1.5744
1.5744
1.5744
1.5744
-0.0124
-0.0124
-0.0124
-0.0124
-0.0124
-0.0124
-0.0124
-0.0124
-0.0111
-0.0111
-0.0111
-0.0111
-0.0111
-0.0111
-0.0111
-0.0111
1.6262
1.6262
1.6262
1.6262
1.6262
1.6262
1.6262
1.6262
-0.0114
-0.0114
-0.0114
-0.0114
-0.0114
-0.0114
-0.0114
-0.0114
-0.012
-0.012
-0.012
-0.012
-0.012
-0.012
-0.012
-0.012
1.5684
1.5684
1.5684
1.5684
1.5684
1.5684
1.5684
1.5684
-0.0124
-0.0124
-0.0124
-0.0124
-0.0124
-0.0124
-0.0124
-0.0124
-0.0109
-0.0109
-0.0109
-0.0109
-0.0109
-0.0109
-0.0109
-0.0109
1.6954
1.6954
1.6954
1.6954
1.6954
1.6954
1.6954
1.6954
-0.0116
-0.0116
-0.0116
-0.0116
-0.0111
-0.0111
-0.0111
-0.0111
-0.0111
-0.0111
-0.0111
-0.0111
-0.0113
-0.0113
-0.0113
-0.0113
-0.0113
-0.0113
-0.0113
-0.0113
0.7316
0.7316
0.7316
0.7316
0.7316
0.7316
0.7316
0.7316
-0.0116
-0.0116
-0.0116
-0.0116
-0.0116
-0.0116
-0.0116
-0.0116
-0.0113
-0.0113
-0.0113
-0.0113
-0.0113
-0.0113
-0.0113
-0.0113
1.0684
1.0684
1.0684
1.0684
1.0684
1.0684
1.0684
1.0684
-0.0116
-0.0116
-0.0116
-0.0116
-0.0116
-0.0116
-0.0116
-0.0116
-0.0126
-0.0126
-0.0126
-0.0126
-0.0126
-0.0126
-0.0126
-0.0126
1.5336
1.5336
1.5336
1.5336
1.5336
1.5336
1.5336
1.5336
-0.0118
-0.0118
-0.0118
-0.0118
-0.0118
-0.0118
-0.0118
-0.0118
-0.0114
-0.0114
-0.0114
-0.0114
-0.0114
-0.0114
-0.0114
-0.0114
1.5182
1.5182
1.5182
1.5182
1.5182
1.5182
1.5182
1.5182
-0.0114
-0.0114
-0.0114
-0.0114
-0.0099
-0.0099
-0.0099
-0.0099
-0.0099
-0.0099
-0.0099
-0.0099
-0.0111
-0.0111
-0.0111
-0.0111
-0.0111
-0.0111
-0.0111
-0.0111
0.0488
0.0488
0.0488
0.0488
0.0488
0.0488
0.0488
0.0488
-0.0058
-0.0058
-0.0058
-0.0058
-0.0058
-0.0058
-0.0058
-0.0058
-0.0105
-0.0105
-0.0105
-0.0105
-0.0105
-0.0105
-0.0105
-0.0105
0.0812
0.0812
0.0812
0.0812
0.0812
0.0812
0.0812
0.0812
-0.0124
-0.0124
-0.0124
-0.0124
-0.0124
-0.0124
-0.0124
-0.0124
-0.0109
-0.0109
-0.0109
-0.0109
-0.0109
-0.0109
-0.0109
-0.0109
0.6975
0.6975
0.6975
0.6975
0.6975
0.6975
0.6975
0.6975
-0.0109
-0.0109
-0.0109
-0.0109
-0.0109
-0.0109
-0.0109
-0.0109
-0.0098
-0.0098
-0.0098
-0.0098
-0.0098
-0.0098
-0.0098
-0.0098
1.0425
1.0425
1.0425
1.0425
1.0425
1.0425
1.0425
1.0425
-0.0126
-0.0126
-0.0126
-0.0126
-0.0107
-0.0107
-0.0107
-0.0107
-0.0107
-0.0107
-0.0107
-0.0107
-0.0114
-0.0114
-0.0114
-0.0114
-0.0114
-0.0114
-0.0114
-0.0114
0.0801
0.0801
0.0801
0.0801
0.0801
0.0801
0.0801
0.0801
-0.0124
-0.0124
-0.0124
-0.0124
-0.0124
-0.0124
-0.0124
-0.0124
-0.0114
-0.0114
-0.0114
-0.0114
-0.0114
-0.0114
-0.0114
-0.0114
0.2351
0.2351
0.2351
0.2351
0.2351
0.2351
0.2351
0.2351
-0.0116
-0.0116
-0.0116
-0.0116
-0.0116
-0.0116
-0.0116
-0.0116
-0.0103
-0.0103
-0.0103
-0.0103
-0.0103
-0.0103
-0.0103
-0.0103
0.4489
0.4489
0.4489
0.4489
0.4489
0.4489
0.4489
0.4489
-0.0109
-0.0109
-0.0109
-0.0109
-0.0109
-0.0109
-0.0109
-0.0109
-0.0111
-0.0111
-0.0111
-0.0111
-0.0111
-0.0111
-0.0111
-0.0111
0.8531
0.8531
0.8531
0.8531
0.8531
0.8531
0.8531
0.8531
-0.0118
-0.0118
-0.0118
-0.0118
-0.0099
-0.0099
-0.0099
-0.0099
-0.0099
-0.0099
-0.0099
-0.0099
-0.0105
-0.0105
-0.0105
-0.0105
-0.0105
-0.0105
-0.0105
-0.0105
0.0028
0.0028
0.0028
0.0028
0.0028
0.0028
0.0028
0.0028
-0.012
-0.012
-0.012
-0.012
-0.012
-0.012
-0.012
-0.012
-0.0113
-0.0113
-0.0113
-0.0113
-0.0113
-0.0113
-0.0113
-0.0113
0.039
0.039
0.039
0.039
0.039
0.039
0.039
0.039
-0.012
-0.012
-0.012
-0.012
-0.012
-0.012
-0.012
-0.012
-0.0103
-0.0103
-0.0103
-0.0103
-0.0103
-0.0103
-0.0103
-0.0103
0.1011
0.1011
0.1011
0.1011
0.1011
0.1011
0.1011
0.1011
-0.0114
-0.0114
-0.0114
-0.0114
-0.0114
-0.0114
-0.0114
-0.0114
-0.0114
-0.0114
-0.0114
-0.0114
-0.0114
-0.0114
-0.0114
-0.0114
0.4888
0.4888
0.4888
0.4888
0.4888
0.4888
0.4888
0.4888
-0.0116
-0.0116
-0.0116
-0.0116
-0.0099
-0.0099
-0.0099
-0.0099
-0.0099
-0.0099
-0.0099
-0.0099
-0.0116
-0.0116
-0.0116
-0.0116
-0.0116
-0.0116
-0.0116
-0.0116
0.0021
0.0021
0.0021
0.0021
0.0021
0.0021
0.0021
0.0021
0.0666
0.0666
0.0666
0.0666
0.0666
0.0666
0.0666
0.0666
-0.0118
-0.0118
-0.0118
-0.0118
-0.0118
-0.0118
-0.0118
-0.0118
0.0439
0.0439
0.0439
0.0439
0.0439
0.0439
0.0439
0.0439
0.0113
0.0113
0.0113
0.0113
0.0113
0.0113
0.0113
0.0113
-0.012
-0.012
-0.012
-0.012
-0.012
-0.012
-0.012
-0.012
0.1369
0.1369
0.1369
0.1369
0.1369
0.1369
0.1369
0.1369
-0.0075
-0.0075
-0.0075
-0.0075
-0.0075
-0.0075
-0.0075
-0.0075
-0.0116
-0.0116
-0.0116
-0.0116
-0.0116
-0.0116
-0.0116
-0.0116
0.1191
0.1191
0.1191
0.1191
0.1191
0.1191
0.1191
0.1191
-0.0105
-0.0105
-0.0105
-0.0105
-0.0103
-0.0103
-0.0103
-0.0103
-0.0103
-0.0103
-0.0103
-0.0103
-0.0098
-0.0098
-0.0098
-0.0098
-0.0098
-0.0098
-0.0098
-0.0098
-0.0103
-0.0103
-0.0103
-0.0103
-0.0103
-0.0103
-0.0103
-0.0103
0.9049
0.9049
0.9049
0.9049
0.9049
0.9049
0.9049
0.9049
-0.0114
-0.0114
-0.0114
-0.0114
-0.0114
-0.0114
-0.0114
-0.0114
-0.0113
-0.0113
-0.0113
-0.0113
-0.0113
-0.0113
-0.0113
-0.0113
0.5676
0.5676
0.5676
0.5676
0.5676
0.5676
0.5676
0.5676
-0.0109
-0.0109
-0.0109
-0.0109
-0.0109
-0.0109
-0.0109
-0.0109
-0.0118
-0.0118
-0.0118
-0.0118
-0.0118
-0.0118
-0.0118
-0.0118
0.2998
0.2998
0.2998
0.2998
0.2998
0.2998
0.2998
0.2998
-0.0113
-0.0113
-0.0113
-0.0113
-0.0113
-0.0113
-0.0113
-0.0113
-0.0105
-0.0105
-0.0105
-0.0105
-0.0105
-0.0105
-0.0105
-0.0105
0.1149
0.1149
0.1149
0.1149
-0.0103
-0.0103
-0.0103
-0.0103
-0.0103
-0.0103
-0.0103
-0.0103
-0.0116
-0.0116
-0.0116
-0.0116
-0.0116
-0.0116
-0.0116
-0.0116
-0.0109
-0.0109
-0.0109
-0.0109
-0.0109
-0.0109
-0.0109
-0.0109
1.2823
1.2823
1.2823
1.2823
1.2823
1.2823
1.2823
1.2823
-0.012
-0.012
-0.012
-0.012
-0.012
-0.012
-0.012
-0.012
-0.0101
-0.0101
-0.0101
-0.0101
-0.0101
-0.0101
-0.0101
-0.0101
1.0884
1.0884
1.0884
1.0884
1.0884
1.0884
1.0884
1.0884
-0.0124
-0.0124
-0.0124
-0.0124
-0.0124
-0.0124
-0.0124
-0.0124
-0.0113
-0.0113
-0.0113
-0.0113
-0.0113
-0.0113
-0.0113
-0.0113
0.8653
0.8653
0.8653
0.8653
0.8653
0.8653
0.8653
0.8653
-0.012
-0.012
-0.012
-0.012
-0.012
-0.012
-0.012
-0.012
-0.0107
-0.0107
-0.0107
-0.0107
-0.0107
-0.0107
-0.0107
-0.0107
0.4779
0.4779
0.4779
0.4779
-0.0109
-0.0109
-0.0109
-0.0109
-0.0109
-0.0109
-0.0109
-0.0109
-0.0114
-0.0114
-0.0114
-0.0114
-0.0114
-0.0114
-0.0114
-0.0114
-0.0107
-0.0107
-0.0107
-0.0107
-0.0107
-0.0107
-0.0107
-0.0107
1.836
1.836
1.836
1.836
1.836
1.836
1.836
1.836
-0.0107
-0.0107
-0.0107
-0.0107
-0.0107
-0.0107
-0.0107
-0.0107
-0.0116
-0.0116
-0.0116
-0.0116
-0.0116
-0.0116
-0.0116
-0.0116
1.839
1.839
1.839
1.839
1.839
1.839
1.839
1.839
-0.0127
-0.0127
-0.0127
-0.0127
-0.0127
-0.0127
-0.0127
-0.0127
-0.0103
-0.0103
-0.0103
-0.0103
-0.0103
-0.0103
-0.0103
-0.0103
1.4771
1.4771
1.4771
1.4771
1.4771
1.4771
1.4771
1.4771
-0.0118
-0.0118
-0.0118
-0.0118
-0.0118
-0.0118
-0.0118
-0.0118
-0.0107
-0.0107
-0.0107
-0.0107
-0.0107
-0.0107
-0.0107
-0.0107
1.3382
1.3382
1.3382
1.3382
-0.0111
-0.0111
-0.0111
-0.0111
-0.0111
-0.0111
-0.0111
-0.0111
-0.0114
-0.0114
-0.0114
-0.0114
-0.0114
-0.0114
-0.0114
-0.0114
-0.0118
-0.0118
-0.0118
-0.0118
-0.0118
-0.0118
-0.0118
-0.0118
1.9641
1.9641
1.9641
1.9641
1.9641
1.9641
1.9641
1.9641
-0.012
-0.012
-0.012
-0.012
-0.012
-0.012
-0.012
-0.012
-0.0109
-0.0109
-0.0109
-0.0109
-0.0109
-0.0109
-0.0109
-0.0109
1.8296
1.8296
1.8296
1.8296
1.8296
1.8296
1.8296
1.8296
-0.0113
-0.0113
-0.0113
-0.0113
-0.0113
-0.0113
-0.0113
-0.0113
-0.0116
-0.0116
-0.0116
-0.0116
-0.0116
-0.0116
-0.0116
-0.0116
1.4357
1.4357
1.4357
-0.0098
-0.0098
-0.0098
-0.0098
-0.0098
-0.0098
-0.0098
-0.0098
0.6079
0.6079
0.6079
0.6079
0.6079
0.6079
0.6079
0.6079
-0.0124
-0.0124
-0.0124
-0.0124
-0.0124
-0.0124
-0.0124
-0.0124
-0.0101
2.574
2.574
2.574
2.574
2.574
2.574
2.574
2.574
-0.0062
-0.0062
-0.0062
-0.0062
-0.0062
-0.0062
-0.0062
-0.0062
0.0516
0.0516
0.0516
0.0516
0.0516
0.0516
0.0516
0.0516
-0.0107
-0.0107
-0.0107
-0.0107
-0.0107
-0.0107
-0.0107
-0.0107
0.0028
0.0028
0.0028
0.0028
0.0028
0.0028
0.0028
0.0028
0.0116
0.0116
0.0116
0.0116
0.0116
0.0116
0.0116
0.0116
-0.012
-0.012
-0.012
-0.012
-0.012
-0.012
-0.012
-0.012
0.0521
0.0521
0.0521
0.0521
0.0521
0.0521
0.0521
0.0521
-0.0071
-0.0071
-0.0071
-0.0071
-0.0071
-0.0071
-0.0071
-0.0071
-0.0109
-0.0109
-0.0109
-0.0109
-0.0109
-0.0109
-0.0109
-0.0109
0.1421
0.1421
0.1421
0.1421
0.1421
0.1421
0.1421
0.1421
-0.0101
-0.0101
-0.0101
-0.0101
-0.0101
-0.0101
-0.0101
-0.0101
-0.0114
-0.0114
-0.0114
-0.0114
0.2257
0.2257
0.2257
0.2257
0.2257
0.2257
0.2257
0.2257
-0.0113
-0.0113
-0.0113
-0.0113
-0.0113
-0.0113
-0.0113
-0.0113
1.2111
1.2111
1.2111
1.2111
1.2111
1.2111
1.2111
1.2111
-0.0118
-0.0118
-0.0118
-0.0118
-0.0118
-0.0118
-0.0118
-0.0118
-0.0127
-0.0127
-0.0127
-0.0127
-0.0127
-0.0127
-0.0127
-0.0127
0.7412
0.7412
0.7412
0.7412
0.7412
0.7412
0.7412
0.7412
-0.0122
-0.0122
-0.0122
-0.0122
-0.0122
-0.0122
-0.0122
-0.0122
-0.0109
-0.0109
-0.0109
-0.0109
-0.0109
-0.0109
-0.0109
-0.0109
0.3671
0.3671
0.3671
0.3671
0.3671
0.3671
0.3671
0.3671
-0.0118
-0.0118
-0.0118
-0.0118
-0.0118
-0.0118
-0.0118
-0.0118
-0.0109
-0.0109
-0.0109
-0.0109
-0.0109
-0.0109
-0.0109
-0.0109
0.0906
0.0906
0.0906
0.0906
0.0906
0.0906
0.0906
0.0906
-0.0122
-0.0122
-0.0122
-0.0122
-0.0116
-0.0116
-0.0116
-0.0116
-0.0116
-0.0116
-0.0116
-0.0116
-0.0105
-0.0105
-0.0105
-0.0105
-0.0105
-0.0105
-0.0105
-0.0105
2.169
2.169
2.169
2.169
2.169
2.169
2.169
2.169
-0.0116
-0.0116
-0.0116
-0.0116
-0.0116
-0.0116
-0.0116
-0.0116
-0.0114
-0.0114
-0.0114
-0.0114
-0.0114
-0.0114
-0.0114
-0.0114
2.1504
2.1504
2.1504
2.1504
2.1504
2.1504
2.1504
2.1504
-0.0118
-0.0118
-0.0118
-0.0118
-0.0118
-0.0118
-0.0118
-0.0118
-0.012
-0.012
-0.012
-0.012
-0.012
-0.012
-0.012
-0.012
1.7938
1.7938
1.7938
1.7938
1.7938
1.7938
1.7938
1.7938
-0.0113
-0.0113
-0.0113
-0.0113
-0.0113
-0.0113
-0.0113
-0.0113
-0.0109
-0.0109
-0.0109
-0.0109
-0.0109
-0.0109
-0.0109
-0.0109
1.7794
1.7794
1.7794
1.7794
1.7794
1.7794
1.7794
1.7794
-0.0122
-0.0122
-0.0122
-0.0122
-0.0111
-0.0111
-0.0111
-0.0111
-0.0111
-0.0111
-0.0111
-0.0111
-0.0118
-0.0118
-0.0118
-0.0118
-0.0118
-0.0118
-0.0118
-0.0118
1.9116
1.9116
1.9116
1.9116
1.9116
1.9116
1.9116
1.9116
-0.012
-0.012
-0.012
-0.012
-0.012
-0.012
-0.012
-0.012
-0.0111
-0.0111
-0.0111
-0.0111
-0.0111
-0.0111
-0.0111
-0.0111
1.8201
1.8201
1.8201
1.8201
1.8201
1.8201
1.8201
1.8201
-0.0113
-0.0113
-0.0113
-0.0113
-0.0113
-0.0113
-0.0113
-0.0113
-0.0114
-0.0114
-0.0114
-0.0114
-0.0114
-0.0114
-0.0114
-0.0114
1.7301
1.7301
1.7301
1.7301
1.7301
1.7301
1.7301
1.7301
-0.0111
-0.0111
-0.0111
-0.0111
-0.0111
-0.0111
-0.0111
-0.0111
-0.0103
-0.0103
-0.0103
-0.0103
-0.0103
-0.0103
-0.0103
-0.0103
1.5411
1.5411
1.5411
1.5411
1.5411
1.5411
1.5411
1.5411
-0.012
-0.012
-0.012
-0.012
-0.0107
-0.0107
-0.0107
-0.0107
-0.0107
-0.0107
-0.0107
-0.0107
-0.0111
-0.0111
-0.0111
-0.0111
-0.0111
-0.0111
-0.0111
-0.0111
1.5231
1.5231
1.5231
1.5231
1.5231
1.5231
1.5231
1.5231
-0.0114
-0.0114
-0.0114
-0.0114
-0.0114
-0.0114
-0.0114
-0.0114
-0.0107
-0.0107
-0.0107
-0.0107
-0.0107
-0.0107
-0.0107
-0.0107
1.6596
1.6596
1.6596
1.6596
1.6596
1.6596
1.6596
1.6596
-0.0124
-0.0124
-0.0124
-0.0124
-0.0124
-0.0124
-0.0124
-0.0124
-0.0113
-0.0113
-0.0113
-0.0113
-0.0113
-0.0113
-0.0113
-0.0113
1.8324
1.8324
1.8324
1.8324
1.8324
1.8324
1.8324
1.8324
-0.0098
-0.0098
-0.0098
-0.0098
-0.0098
-0.0098
-0.0098
-0.0098
-0.0122
-0.0122
-0.0122
-0.0122
-0.0122
-0.0122
-0.0122
-0.0122
1.8032
1.8032
1.8032
1.8032
1.8032
1.8032
1.8032
1.8032
-0.0114
-0.0114
-0.0114
-0.0114
-0.0103
-0.0103
-0.0103
-0.0103
-0.0103
-0.0103
-0.0103
-0.0103
-0.0114
-0.0114
-0.0114
-0.0114
-0.0114
-0.0114
-0.0114
-0.0114
0.69
0.69
0.69
0.69
0.69
0.69
0.69
0.69
-0.0118
-0.0118
-0.0118
-0.0118
-0.0118
-0.0118
-0.0118
-0.0118
-0.0122
-0.0122
-0.0122
-0.0122
-0.0122
-0.0122
-0.0122
-0.0122
1.0444
1.0444
1.0444
1.0444
1.0444
1.0444
1.0444
1.0444
-0.0113
-0.0113
-0.0113
-0.0113
-0.0113
-0.0113
-0.0113
-0.0113
-0.0124
-0.0124
-0.0124
-0.0124
-0.0124
-0.0124
-0.0124
-0.0124
1.3146
1.3146
1.3146
1.3146
1.3146
1.3146
1.3146
1.3146
-0.0116
-0.0116
-0.0116
-0.0116
-0.0116
-0.0116
-0.0116
-0.0116
-0.0109
-0.0109
-0.0109
-0.0109
-0.0109
-0.0109
-0.0109
-0.0109
1.6506
1.6506
1.6506
1.6506
1.6506
1.6506
1.6506
1.6506
-0.0129
-0.0129
-0.0129
-0.0129
-0.0103
-0.0103
-0.0103
-0.0103
-0.0103
-0.0103
-0.0103
-0.0103
-0.0111
-0.0111
-0.0111
-0.0111
-0.0111
-0.0111
-0.0111
-0.0111
0.0298
0.0298
0.0298
0.0298
0.0298
0.0298
0.0298
0.0298
0.0281
0.0281
0.0281
0.0281
0.0281
0.0281
0.0281
0.0281
-0.0114
-0.0114
-0.0114
-0.0114
-0.0114
-0.0114
-0.0114
-0.0114
0.1046
0.1046
0.1046
0.1046
0.1046
0.1046
0.1046
0.1046
-0.0026
-0.0026
-0.0026
-0.0026
-0.0026
-0.0026
-0.0026
-0.0026
-0.0118
-0.0118
-0.0118
-0.0118
-0.0118
-0.0118
-0.0118
-0.0118
0.2563
0.2563
0.2563
0.2563
0.2563
0.2563
0.2563
0.2563
-0.0094
-0.0094
-0.0094
-0.0094
-0.0094
-0.0094
-0.0094
-0.0094
-0.0109
-0.0109
-0.0109
-0.0109
-0.0109
-0.0109
-0.0109
-0.0109
0.138
0.138
0.138
0.138
0.138
0.138
0.138
0.138
-0.0107
-0.0107
-0.0107
-0.0107
-0.0105
-0.0105
-0.0105
-0.0105
-0.0105
-0.0105
-0.0105
-0.0105
-0.0109
-0.0109
-0.0109
-0.0109
-0.0109
-0.0109
-0.0109
-0.0109
-0.0116
-0.0116
-0.0116
-0.0116
-0.0116
-0.0116
-0.0116
-0.0116
0.4734
0.4734
0.4734
0.4734
0.4734
0.4734
0.4734
0.4734
-0.0109
-0.0109
-0.0109
-0.0109
-0.0109
-0.0109
-0.0109
-0.0109
-0.0118
-0.0118
-0.0118
-0.0118
-0.0118
-0.0118
-0.0118
-0.0118
0.2601
0.2601
0.2601
0.2601
0.2601
0.2601
0.2601
0.2601
-0.0116
-0.0116
-0.0116
-0.0116
-0.0116
-0.0116
-0.0116
-0.0116
-0.0096
-0.0096
-0.0096
-0.0096
-0.0096
-0.0096
-0.0096
-0.0096
0.0804
0.0804
0.0804
0.0804
0.0804
0.0804
0.0804
0.0804
-0.0116
-0.0116
-0.0116
-0.0116
-0.0116
-0.0116
-0.0116
-0.0116
0.0036
0.0036
0.0036
0.0036
0.0036
0.0036
0.0036
0.0036
0.0141
0.0141
0.0141
0.0141
-0.0101
-0.0101
-0.0101
-0.0101
-0.0101
-0.0101
-0.0101
-0.0101
-0.0116
-0.0116
-0.0116
-0.0116
-0.0116
-0.0116
-0.0116
-0.0116
-0.0114
-0.0114
-0.0114
-0.0114
-0.0114
-0.0114
-0.0114
-0.0114
1.2816
1.2816
1.2816
1.2816
1.2816
1.2816
1.2816
1.2816
-0.0118
-0.0118
-0.0118
-0.0118
-0.0118
-0.0118
-0.0118
-0.0118
-0.0113
-0.0113
-0.0113
-0.0113
-0.0113
-0.0113
-0.0113
-0.0113
0.5385
0.5385
0.5385
0.5385
0.5385
0.5385
0.5385
0.5385
-0.0109
-0.0109
-0.0109
-0.0109
-0.0109
-0.0109
-0.0109
-0.0109
-0.0107
-0.0107
-0.0107
-0.0107
-0.0107
-0.0107
-0.0107
-0.0107
0.0709
0.0709
0.0709
0.0709
0.0709
0.0709
0.0709
0.0709
-0.0122
-0.0122
-0.0122
-0.0122
-0.0122
-0.0122
-0.0122
-0.0122
-0.0113
-0.0113
-0.0113
-0.0113
-0.0113
-0.0113
-0.0113
-0.0113
0.1328
0.1328
0.1328
0.1328
-0.0113
-0.0113
-0.0113
-0.0113
-0.0113
-0.0113
-0.0113
-0.0113
-0.0122
-0.0122
-0.0122
-0.0122
-0.0122
-0.0122
-0.0122
-0.0122
-0.0116
-0.0116
-0.0116
-0.0116
-0.0116
-0.0116
-0.0116
-0.0116
1.4231
1.4231
1.4231
1.4231
1.4231
1.4231
1.4231
1.4231
-0.0122
-0.0122
-0.0122
-0.0122
-0.0122
-0.0122
-0.0122
-0.0122
-0.0111
-0.0111
-0.0111
-0.0111
-0.0111
-0.0111
-0.0111
-0.0111
1.2086
1.2086
1.2086
1.2086
1.2086
1.2086
1.2086
1.2086
-0.0118
-0.0118
-0.0118
-0.0118
-0.0118
-0.0118
-0.0118
-0.0118
-0.0107
-0.0107
-0.0107
-0.0107
-0.0107
-0.0107
-0.0107
-0.0107
1.5795
1.5795
1.5795
1.5795
1.5795
1.5795
1.5795
1.5795
-0.0122
-0.0122
-0.0122
-0.0122
-0.0122
-0.0122
-0.0122
-0.0122
-0.0099
-0.0099
-0.0099
-0.0099
-0.0099
-0.0099
-0.0099
-0.0099
1.5107
1.5107
1.5107
1.5107
-0.0105
-0.0105
-0.0105
-0.0105
-0.0105
-0.0105
-0.0105
-0.0105
-0.0113
-0.0113
-0.0113
-0.0113
-0.0113
-0.0113
-0.0113
-0.0113
-0.0116
-0.0116
-0.0116
-0.0116
-0.0116
-0.0116
-0.0116
-0.0116
1.4008
1.4008
1.4008
1.4008
1.4008
1.4008
1.4008
1.4008
-0.0114
-0.0114
-0.0114
-0.0114
-0.0114
-0.0114
-0.0114
-0.0114
-0.0118
-0.0118
-0.0118
-0.0118
-0.0118
-0.0118
-0.0118
-0.0118
1.3665
1.3665
1.3665
1.3665
1.3665
1.3665
1.3665
1.3665
-0.0114
-0.0114
-0.0114
-0.0114
-0.0114
-0.0114
-0.0114
-0.0114
-0.0098
-0.0098
-0.0098
-0.0098
-0.0098
-0.0098
-0.0098
-0.0098
1.3791
1.3791
1.3791
1.3791
1.3791
1.3791
1.3791
1.3791
-0.0114
-0.0114
-0.0114
-0.0114
-0.0114
-0.0114
-0.0114
-0.0114
-0.0107
-0.0107
-0.0107
-0.0107
-0.0107
-0.0107
-0.0107
-0.0107
1.7672
1.7672
1.7672
1.7672
-0.0103
-0.0103
-0.0103
-0.0103
-0.0103
-0.0103
-0.0103
-0.0103
-0.012
-0.012
-0.012
-0.012
-0.012
-0.012
-0.012
-0.012
-0.0109
-0.0109
-0.0109
-0.0109
-0.0109
-0.0109
-0.0109
-0.0109
0.8246
0.8246
0.8246
0.8246
0.8246
0.8246
0.8246
0.8246
-0.0118
-0.0118
-0.0118
-0.0118
-0.0118
-0.0118
-0.0118
-0.0118
-0.0114
-0.0114
-0.0114
-0.0114
-0.0114
-0.0114
-0.0114
-0.0114
1.0959
1.0959
1.0959
1.0959
1.0959
1.0959
1.0959
1.0959
-0.0113
-0.0113
-0.0113
-0.0113
-0.0113
-0.0113
-0.0113
-0.0113
-0.0122
-0.0122
-0.0122
-0.0122
-0.0122
-0.0122
-0.0122
-0.0122
1.4691
1.4691
1.4691
1.4691
1.4691
1.4691
1.4691
1.4691
-0.0107
-0.0107
-0.0107
-0.0107
-0.0107
-0.0107
-0.0107
-0.0107
-0.0113
-0.0113
-0.0113
-0.0113
-0.0113
-0.0113
-0.0113
-0.0113
1.4117
1.4117
1.4117
1.4117
-0.0105
-0.0105
-0.0105
-0.0105
-0.0105
-0.0105
-0.0105
-0.0105
-0.0103
-0.0103
-0.0103
-0.0103
-0.0103
-0.0103
-0.0103
-0.0103
-0.0114
-0.0114
-0.0114
-0.0114
-0.0114
-0.0114
-0.0114
-0.0114
0.2501
0.2501
0.2501
0.2501
0.2501
0.2501
0.2501
0.2501
-0.0111
-0.0111
-0.0111
-0.0111
-0.0111
-0.0111
-0.0111
-0.0111
-0.0105
-0.0105
-0.0105
-0.0105
-0.0105
-0.0105
-0.0105
-0.0105
0.4592
0.4592
0.4592
0.4592
0.4592
0.4592
0.4592
0.4592
-0.0113
-0.0113
-0.0113
-0.0113
-0.0113
-0.0113
-0.0113
-0.0113
-0.0101
-0.0101
-0.0101
-0.0101
-0.0101
-0.0101
-0.0101
-0.0101
0.7271
0.7271
0.7271
0.7271
0.7271
0.7271
0.7271
0.7271
-0.0109
-0.0109
-0.0109
-0.0109
-0.0109
-0.0109
-0.0109
-0.0109
-0.012
-0.012
-0.012
-0.012
-0.012
-0.012
-0.012
-0.012
1.0086
1.0086
1.0086
1.0086
-0.0107
-0.0107
-0.0107
-0.0107
-0.0107
-0.0107
-0.0107
-0.0107
1.3496
1.3496
1.3496
1.3496
1.3496
1.3496
1.3496
1.3496
-0.0107
-0.0107
-0.0107
-0.0107
-0.0107
-0.0107
-0.0107
-0.0107
-0.0116
-0.0116
-0.0116
-0.0116
-0.0116
-0.0116
-0.0116
-0.0116
0.1311
0.1311
0.1311
0.1311
0.1311
0.1311
0.1311
0.1311
-0.012
-0.012
-0.012
-0.012
-0.012
-0.012
-0.012
-0.012
-0.0099
-0.0099
-0.0099
-0.0099
-0.0099
-0.0099
-0.0099
-0.0099
0.0426
0.0426
0.0426
0.0426
0.0426
0.0426
0.0426
0.0426
-0.0116
-0.0116
-0.0116
-0.0116
-0.0116
-0.0116
-0.0116
-0.0116
-0.0045
-0.0045
-0.0045
-0.0045
-0.0045
-0.0045
-0.0045
-0.0045
0.0127
0.0127
0.0127
0.0127
0.0127
0.0127
0.0127
0.0127
-0.0118
-0.0118
-0.0118
-0.0118
-0.0118
-0.0118
-0.0118
-0.0118
0.0203
0.0203
0.0203
0.0203
-0.0075
-0.0075
-0.0075
-0.0075
-0.0075
-0.0075
-0.0075
-0.0075
1.1076
1.1076
1.1076
1.1076
1.1076
1.1076
1.1076
1.1076
-0.0101
-0.0101
-0.0101
-0.0101
-0.0101
-0.0101
-0.0101
-0.0101
-0.012
-0.012
-0.012
-0.012
-0.012
-0.012
-0.012
-0.012
1.1882
1.1882
1.1882
1.1882
1.1882
1.1882
1.1882
1.1882
-0.0118
-0.0118
-0.0118
-0.0118
-0.0118
-0.0118
-0.0118
-0.0118
-0.0113
-0.0113
-0.0113
-0.0113
-0.0113
-0.0113
-0.0113
-0.0113
0.6516
0.6516
0.6516
0.6516
0.6516
0.6516
0.6516
0.6516
-0.0111
-0.0111
-0.0111
-0.0111
-0.0111
-0.0111
-0.0111
-0.0111
-0.0107
-0.0107
-0.0107
-0.0107
-0.0107
-0.0107
-0.0107
-0.0107
0.201
0.201
0.201
0.201
0.201
0.201
0.201
0.201
-0.0118
-0.0118
-0.0118
-0.0118
-0.0118
-0.0118
-0.0118
-0.0118
-0.0103
-0.0103
-0.0103
-0.0103
0.0388
0.0388
0.0388
0.0388
0.0388
0.0388
0.0388
0.0388
0.9484
0.9484
0.9484
0.9484
0.9484
0.9484
0.9484
0.9484
-0.0116
-0.0116
-0.0116
-0.0116
-0.0116
-0.0116
-0.0116
-0.0116
-0.0116
-0.0116
-0.0116
-0.0116
-0.0116
-0.0116
-0.0116
-0.0116
0.9446
0.9446
0.9446
0.9446
0.9446
0.9446
0.9446
0.9446
-0.0124
-0.0124
-0.0124
-0.0124
-0.0124
-0.0124
-0.0124
-0.0124
-0.0114
-0.0114
-0.0114
-0.0114
-0.0114
-0.0114
-0.0114
-0.0114
0.789
0.789
0.789
0.789
0.789
0.789
0.789
0.789
-0.0122
-0.0122
-0.0122
-0.0122
-0.0122
-0.0122
-0.0122
-0.0122
-0.0101
-0.0101
-0.0101
-0.0101
-0.0101
-0.0101
-0.0101
-0.0101
0.8546
0.8546
0.8546
0.8546
0.8546
0.8546
0.8546
0.8546
-0.0101
-0.0101
-0.0101
-0.0101
-0.0101
-0.0101
-0.0101
-0.0101
-0.0113
-0.0113
-0.0113
-0.0113
0.474
0.474
0.474
0.474
0.474
0.474
0.474
0.474
1.5454
1.5454
1.5454
1.5454
1.5454
1.5454
1.5454
1.5454
-0.0126
-0.0126
-0.0126
-0.0126
-0.0126
-0.0126
-0.0126
-0.0126
-0.0116
-0.0116
-0.0116
-0.0116
-0.0116
-0.0116
-0.0116
-0.0116
1.3515
1.3515
1.3515
1.3515
1.3515
1.3515
1.3515
1.3515
-0.0114
-0.0114
-0.0114
-0.0114
-0.0114
-0.0114
-0.0114
-0.0114
-0.0109
-0.0109
-0.0109
-0.0109
-0.0109
-0.0109
-0.0109
-0.0109
1.4728
1.4728
1.4728
1.4728
1.4728
1.4728
1.4728
1.4728
-0.0111
-0.0111
-0.0111
-0.0111
-0.0111
-0.0111
-0.0111
-0.0111
-0.0113
-0.0113
-0.0113
-0.0113
-0.0113
-0.0113
-0.0113
-0.0113
1.4201
1.4201
1.4201
1.4201
1.4201
1.4201
1.4201
1.4201
-0.0116
-0.0116
-0.0116
-0.0116
-0.0116
-0.0116
-0.0116
-0.0116
-0.0101
-0.0101
-0.0101
-0.0101
1.1773
1.1773
1.1773
1.1773
1.1773
1.1773
1.1773
1.1773
0.3214
0.3214
0.3214
0.3214
0.3214
0.3214
0.3214
0.3214
-0.0116
-0.0116
-0.0116
-0.0116
-0.0116
-0.0116
-0.0116
-0.0116
-0.0111
-0.0111
-0.0111
-0.0111
-0.0111
-0.0111
-0.0111
-0.0111
0.3683
0.3683
0.3683
0.3683
0.3683
0.3683
0.3683
0.3683
-0.0116
-0.0116
-0.0116
-0.0116
-0.0116
-0.0116
-0.0116
-0.0116
-0.0111
-0.0111
-0.0111
-0.0111
-0.0111
-0.0111
-0.0111
-0.0111
0.6795
0.6795
0.6795
0.6795
0.6795
0.6795
0.6795
0.6795
-0.0131
-0.0131
-0.0131
-0.0131
-0.0131
-0.0131
-0.0131
-0.0131
-0.0111
-0.0111
-0.0111
-0.0111
-0.0111
-0.0111
-0.0111
-0.0111
0.9137
0.9137
0.9137
0.9137
0.9137
0.9137
0.9137
0.9137
-0.0114
-0.0114
-0.0114
-0.0114
-0.0114
-0.0114
-0.0114
-0.0114
-0.0114
-0.0114
-0.0114
-0.0114
1.2493
1.2493
1.2493
1.2493
1.2493
1.2493
1.2493
1.2493
0.0071
0.0071
0.0071
0.0071
0.0071
0.0071
0.0071
0.0071
0.0071
0.0071
0.0071
0.0071
0.0071
0.0071
0.0071
0.0071
-0.0107
-0.0107
-0.0107
-0.0107
-0.0107
-0.0107
-0.0107
-0.0107
0.0465
0.0465
0.0465
0.0465
0.0465
0.0465
0.0465
0.0465
-0.0081
-0.0081
-0.0081
-0.0081
-0.0081
-0.0081
-0.0081
-0.0081
-0.0103
-0.0103
-0.0103
-0.0103
-0.0103
-0.0103
-0.0103
-0.0103
0.1119
0.1119
0.1119
0.1119
0.1119
0.1119
0.1119
0.1119
-0.0126
-0.0103
-0.0103
-0.0103
-0.0103
-0.0103
-0.0103
-0.0103
-0.0103
0.2121
0.2121
0.2121
0.2121
0.2121
0.2121
0.2121
0.2121
-0.0114
-0.0114
-0.0114
-0.0114
-0.0114
-0.0114
-0.0114
-0.0114
-0.0103
-0.0103
-0.0103
-0.0103
-0.0103
-0.0103
-0.0103
-0.0103
0.1056
0.1056
0.1056
-0.0099
-0.0099
-0.0099
-0.0099
-0.0099
-0.0099
-0.0099
-0.0099
-0.012
-0.012
-0.012
-0.012
-0.012
-0.012
-0.012
-0.012
-0.0114
-0.0114
-0.0114
-0.0114
-0.0114
-0.0114
-0.0114
-0.0114
2.1184
2.1184
2.1184
2.1184
2.1184
2.1184
2.1184
2.1184
-0.012
-0.012
-0.012
-0.012
-0.012
-0.012
-0.012
-0.012
-0.0116
-0.0116
-0.0116
-0.0116
-0.0116
-0.0116
-0.0116
-0.0116
2.2776
2.2776
2.2776
2.2776
2.2776
2.2776
2.2776
2.2776
-0.012
-0.012
-0.012
-0.012
-0.012
-0.012
-0.012
-0.012
-0.0114
-0.0114
-0.0114
-0.0114
-0.0114
-0.0114
-0.0114
-0.0114
1.5298
1.5298
1.5298
1.5298
1.5298
1.5298
1.5298
1.5298
-0.0127
-0.0127
-0.0127
-0.0127
-0.0127
-0.0127
-0.0127
-0.0127
-0.012
-0.012
-0.012
-0.012
-0.012
-0.012
-0.012
-0.012
1.2165
1.2165
1.2165
1.2165
-0.0107
-0.0107
-0.0107
-0.0107
-0.0107
-0.0107
-0.0107
-0.0107
-0.0107
-0.0107
-0.0107
-0.0107
-0.0107
-0.0107
-0.0107
-0.0107
-0.0107
-0.0107
-0.0107
-0.0107
-0.0107
-0.0107
-0.0107
-0.0107
0.858
0.858
0.858
0.858
0.858
0.858
0.858
0.858
-0.0101
-0.0101
-0.0101
-0.0101
-0.0101
-0.0101
-0.0101
-0.0101
-0.0109
-0.0109
-0.0109
-0.0109
-0.0109
-0.0109
-0.0109
-0.0109
1.0807
1.0807
1.0807
1.0807
1.0807
1.0807
1.0807
1.0807
-0.0118
-0.0118
-0.0118
-0.0118
-0.0118
-0.0118
-0.0118
-0.0118
-0.0116
-0.0116
-0.0116
-0.0116
-0.0116
-0.0116
-0.0116
-0.0116
1.3371
1.3371
1.3371
1.3371
1.3371
1.3371
1.3371
1.3371
-0.0105
-0.0105
-0.0105
-0.0105
-0.0105
-0.0105
-0.0105
-0.0105
-0.0113
-0.0113
-0.0113
-0.0113
-0.0113
-0.0113
-0.0113
-0.0113
1.329
1.329
1.329
1.329
-0.0105
-0.0105
-0.0105
-0.0105
-0.0105
-0.0105
-0.0105
-0.0105
-0.0113
-0.0113
-0.0113
-0.0113
-0.0113
-0.0113
-0.0113
-0.0113
-0.0111
-0.0111
-0.0111
-0.0111
-0.0111
-0.0111
-0.0111
-0.0111
0.2811
0.2811
0.2811
0.2811
0.2811
0.2811
0.2811
0.2811
-0.0109
-0.0109
-0.0109
-0.0109
-0.0109
-0.0109
-0.0109
-0.0109
-0.0114
-0.0114
-0.0114
-0.0114
-0.0114
-0.0114
-0.0114
-0.0114
0.558
0.558
0.558
0.558
0.558
0.558
0.558
0.558
-0.012
-0.012
-0.012
-0.012
-0.012
-0.012
-0.012
-0.012
-0.0105
-0.0105
-0.0105
-0.0105
-0.0105
-0.0105
-0.0105
-0.0105
1.2776
1.2776
1.2776
1.2776
1.2776
1.2776
1.2776
1.2776
-0.0122
-0.0122
-0.0122
-0.0122
-0.0122
-0.0122
-0.0122
-0.0122
-0.0111
-0.0111
-0.0111
-0.0111
-0.0111
-0.0111
-0.0111
-0.0111
1.6148
1.6148
1.6148
1.6148
-0.0107
-0.0107
-0.0107
-0.0107
-0.0107
-0.0107
-0.0107
-0.0107
0.0184
0.0184
0.0184
0.0184
0.0184
0.0184
0.0184
0.0184
-0.012
-0.012
-0.012
-0.012
-0.012
-0.012
-0.012
-0.012
0.0189
0.0189
0.0189
0.0189
0.0189
0.0189
0.0189
0.0189
-0.003
-0.003
-0.003
-0.003
-0.003
-0.003
-0.003
-0.003
-0.0116
-0.0116
-0.0116
-0.0116
-0.0116
-0.0116
-0.0116
-0.0116
0.0973
0.0973
0.0973
0.0973
0.0973
0.0973
0.0973
0.0973
-0.0098
-0.0098
-0.0098
-0.0098
-0.0098
-0.0098
-0.0098
-0.0098
-0.0111
-0.0111
-0.0111
-0.0111
-0.0111
-0.0111
-0.0111
-0.0111
0.2383
0.2383
0.2383
0.2383
0.2383
0.2383
0.2383
0.2383
-0.0124
-0.0124
-0.0124
-0.0124
-0.0124
-0.0124
-0.0124
-0.0124
-0.0114
-0.0114
-0.0114
-0.0114
-0.0114
-0.0114
-0.0114
-0.0114
0.4541
0.4541
0.4541
0.4541
-0.0098
-0.0098
-0.0098
-0.0098
-0.0098
-0.0098
-0.0098
-0.0098
0.3096
0.3096
0.3096
0.3096
0.3096
0.3096
0.3096
0.3096
-0.0107
-0.0107
-0.0107
-0.0107
-0.0107
-0.0107
-0.0107
-0.0107
-0.0099
-0.0099
-0.0099
-0.0099
-0.0099
-0.0099
-0.0099
-0.0099
0.2889
0.2889
0.2889
0.2889
0.2889
0.2889
0.2889
0.2889
-0.0113
-0.0113
-0.0113
-0.0113
-0.0113
-0.0113
-0.0113
-0.0113
-0.0088
-0.0088
-0.0088
-0.0088
-0.0088
-0.0088
-0.0088
-0.0088
0.1228
0.1228
0.1228
0.1228
0.1228
0.1228
0.1228
0.1228
-0.0109
-0.0109
-0.0109
-0.0109
-0.0109
-0.0109
-0.0109
-0.0109
-0.0077
-0.0077
-0.0077
-0.0077
-0.0077
-0.0077
-0.0077
-0.0077
0.0439
0.0439
0.0439
0.0439
0.0439
0.0439
0.0439
0.0439
-0.0114
-0.0114
-0.0114
-0.0114
-0.0114
-0.0114
-0.0114
-0.0114
0.0058
0.0058
0.0058
0.0058
0.0015
0.0015
0.0015
0.0015
0.0015
0.0015
0.0015
0.0015
0.7796
0.7796
0.7796
0.7796
0.7796
0.7796
0.7796
0.7796
-0.012
-0.012
-0.012
-0.012
-0.012
-0.012
-0.012
-0.012
-0.0114
-0.0114
-0.0114
-0.0114
-0.0114
-0.0114
-0.0114
-0.0114
0.4719
0.4719
0.4719
0.4719
0.4719
0.4719
0.4719
0.4719
-0.012
-0.012
-0.012
-0.012
-0.012
-0.012
-0.012
-0.012
-0.0118
-0.0118
-0.0118
-0.0118
-0.0118
-0.0118
-0.0118
-0.0118
0.2327
0.2327
0.2327
0.2327
0.2327
0.2327
0.2327
0.2327
-0.012
-0.012
-0.012
-0.012
-0.012
-0.012
-0.012
-0.012
-0.0124
-0.0124
-0.0124
-0.0124
-0.0124
-0.0124
-0.0124
-0.0124
0.1584
0.1584
0.1584
0.1584
0.1584
0.1584
0.1584
0.1584
-0.0131
-0.0131
-0.0131
-0.0131
-0.0131
-0.0131
-0.0131
-0.0131
-0.0098
-0.0098
-0.0098
-0.0098
0.0336
0.0336
0.0336
0.0336
0.0336
0.0336
0.0336
0.0336
1.6727
1.6727
1.6727
1.6727
1.6727
1.6727
1.6727
1.6727
-0.0109
-0.0109
-0.0109
-0.0109
-0.0109
-0.0109
-0.0109
-0.0109
-0.012
-0.012
-0.012
-0.012
-0.012
-0.012
-0.012
-0.012
1.4066
1.4066
1.4066
1.4066
1.4066
1.4066
1.4066
1.4066
-0.0114
-0.0114
-0.0114
-0.0114
-0.0114
-0.0114
-0.0114
-0.0114
-0.0114
-0.0114
-0.0114
-0.0114
-0.0114
-0.0114
-0.0114
-0.0114
0.1485
0.1485
0.1485
0.1485
0.1485
0.1485
0.1485
0.1485
-0.0111
-0.0111
-0.0111
-0.0111
-0.0111
-0.0111
-0.0111
-0.0111
-0.0116
-0.0116
-0.0116
-0.0116
-0.0116
-0.0116
-0.0116
-0.0116
2.5536
2.5536
2.5536
2.5536
2.5536
2.5536
2.5536
2.5536
-0.012
-0.012
-0.012
-0.012
-0.012
-0.012
-0.012
-0.012
-0.0113
-0.0113
-0.0113
-0.0113
0.8332
0.8332
0.8332
0.8332
0.8332
0.8332
0.8332
0.8332
0.7438
0.7438
0.7438
0.7438
0.7438
0.7438
0.7438
0.7438
-0.0118
-0.0118
-0.0118
-0.0118
-0.0118
-0.0118
-0.0118
-0.0118
-0.0114
-0.0114
-0.0114
-0.0114
-0.0114
-0.0114
-0.0114
-0.0114
0.8332
0.8332
0.8332
0.8332
0.8332
0.8332
0.8332
0.8332
-0.0099
-0.0099
-0.0099
-0.0099
-0.0099
-0.0099
-0.0099
-0.0099
-0.0114
-0.0114
-0.0114
-0.0114
-0.0114
-0.0114
-0.0114
-0.0114
1.1344
1.1344
1.1344
1.1344
1.1344
1.1344
1.1344
1.1344
-0.0109
-0.0109
-0.0109
-0.0109
-0.0109
-0.0109
-0.0109
-0.0109
-0.0113
-0.0113
-0.0113
-0.0113
-0.0113
-0.0113
-0.0113
-0.0113
1.3162
1.3162
1.3162
1.3162
1.3162
1.3162
1.3162
1.3162
-0.0114
-0.0114
-0.0114
-0.0114
-0.0114
-0.0114
-0.0114
-0.0114
-0.0105
-0.0105
-0.0105
-0.0105
1.344
1.344
1.344
1.344
1.344
1.344
1.344
1.344
0.0744
0.0744
0.0744
0.0744
0.0744
0.0744
0.0744
0.0744
-0.012
-0.012
-0.012
-0.012
-0.012
-0.012
-0.012
-0.012
-0.0114
-0.0114
-0.0114
-0.0114
-0.0114
-0.0114
-0.0114
-0.0114
0.102
0.102
0.102
0.102
0.102
0.102
0.102
0.102
-0.0118
-0.0118
-0.0118
-0.0118
-0.0118
-0.0118
-0.0118
-0.0118
-0.0113
-0.0113
-0.0113
-0.0113
-0.0113
-0.0113
-0.0113
-0.0113
0.1373
0.1373
0.1373
0.1373
0.1373
0.1373
0.1373
0.1373
-0.0109
-0.0109
-0.0109
-0.0109
-0.0109
-0.0109
-0.0109
-0.0109
-0.0103
-0.0103
-0.0103
-0.0103
-0.0103
-0.0103
-0.0103
-0.0103
0.2839
0.2839
0.2839
0.2839
0.2839
0.2839
0.2839
0.2839
-0.0114
-0.0114
-0.0114
-0.0114
-0.0114
-0.0114
-0.0114
-0.0114
-0.012
-0.012
-0.012
-0.012
0.8531
0.8531
0.8531
0.8531
0.8531
0.8531
0.8531
0.8531
-0.0056
-0.0056
-0.0056
-0.0056
-0.0056
-0.0056
-0.0056
-0.0056
0.0669
0.0669
0.0669
0.0669
0.0669
0.0669
0.0669
0.0669
-0.012
-0.012
-0.012
-0.012
-0.012
-0.012
-0.012
-0.012
0.0038
0.0038
0.0038
0.0038
0.0038
0.0038
0.0038
0.0038
0.0116
0.0116
0.0116
0.0116
0.0116
0.0116
0.0116
0.0116
-0.012
-0.012
-0.012
-0.012
-0.012
-0.012
-0.012
-0.012
0.0298
0.0298
0.0298
0.0298
0.0298
0.0298
0.0298
0.0298
-0.0094
-0.0094
-0.0094
-0.0094
-0.0094
-0.0094
-0.0094
-0.0094
-0.0111
-0.0111
-0.0111
-0.0111
-0.0111
-0.0111
-0.0111
-0.0111
0.1226
0.1226
0.1226
0.1226
0.1226
0.1226
0.1226
0.1226
-0.0114
-0.0114
-0.0114
-0.0114
-0.0114
-0.0114
-0.0114
-0.0114
-0.0109
-0.0109
-0.0109
-0.0109
0.2453
0.2453
0.2453
0.2453
0.2453
0.2453
0.2453
0.2453
-0.0122
-0.0122
-0.0122
-0.0122
-0.0122
-0.0122
-0.0122
-0.0122
0.7314
0.7314
0.7314
0.7314
0.7314
0.7314
0.7314
0.7314
-0.0111
-0.0111
-0.0111
-0.0111
-0.0111
-0.0111
-0.0111
-0.0111
-0.0113
-0.0113
-0.0113
-0.0113
-0.0113
-0.0113
-0.0113
-0.0113
0.4371
0.4371
0.4371
0.4371
0.4371
0.4371
0.4371
0.4371
-0.0111
-0.0111
-0.0111
-0.0111
-0.0111
-0.0111
-0.0111
-0.0111
-0.0113
-0.0113
-0.0113
-0.0113
-0.0113
-0.0113
-0.0113
-0.0113
0.1869
0.1869
0.1869
0.1869
0.1869
0.1869
0.1869
0.1869
-0.0105
-0.0105
-0.0105
-0.0105
-0.0105
-0.0105
-0.0105
-0.0105
-0.0107
-0.0107
-0.0107
-0.0107
-0.0107
-0.0107
-0.0107
-0.0107
0.0816
0.0816
0.0816
0.0816
0.0816
0.0816
0.0816
0.0816
-0.0127
-0.0127
-0.0127
-0.0127
-0.0041
-0.0041
-0.0041
-0.0041
-0.0041
-0.0041
-0.0041
-0.0041
-0.0101
-0.0101
-0.0101
-0.0101
-0.0101
-0.0101
-0.0101
-0.0101
1.4706
1.4706
1.4706
1.4706
1.4706
1.4706
1.4706
1.4706
-0.0109
-0.0109
-0.0109
-0.0109
-0.0109
-0.0109
-0.0109
-0.0109
-0.0111
-0.0111
-0.0111
-0.0111
-0.0111
-0.0111
-0.0111
-0.0111
1.3277
1.3277
1.3277
1.3277
1.3277
1.3277
1.3277
1.3277
-0.0116
-0.0116
-0.0116
-0.0116
-0.0116
-0.0116
-0.0116
-0.0116
-0.012
-0.012
-0.012
-0.012
-0.012
-0.012
-0.012
-0.012
1.1529
1.1529
1.1529
1.1529
1.1529
1.1529
1.1529
1.1529
-0.0113
-0.0113
-0.0113
-0.0113
-0.0113
-0.0113
-0.0113
-0.0113
-0.0118
-0.0118
-0.0118
-0.0118
-0.0118
-0.0118
-0.0118
-0.0118
0.9429
0.9429
0.9429
0.9429
0.9429
0.9429
0.9429
0.9429
-0.0105
-0.0105
-0.0105
-0.0105
-0.0107
-0.0107
-0.0107
-0.0107
-0.0107
-0.0107
-0.0107
-0.0107
-0.0114
-0.0114
-0.0114
-0.0114
-0.0114
-0.0114
-0.0114
-0.0114
2.5515
2.5515
2.5515
2.5515
2.5515
2.5515
2.5515
2.5515
-0.0111
-0.0111
-0.0111
-0.0111
-0.0111
-0.0111
-0.0111
-0.0111
-0.0114
-0.0114
-0.0114
-0.0114
-0.0114
-0.0114
-0.0114
-0.0114
2.3331
2.3331
2.3331
2.3331
2.3331
2.3331
2.3331
2.3331
-0.0129
-0.0129
-0.0129
-0.0129
-0.0129
-0.0129
-0.0129
-0.0129
-0.0113
-0.0113
-0.0113
-0.0113
-0.0113
-0.0113
-0.0113
-0.0113
2.4285
2.4285
2.4285
2.4285
2.4285
2.4285
2.4285
2.4285
-0.0116
-0.0116
-0.0116
-0.0116
-0.0116
-0.0116
-0.0116
-0.0116
-0.0118
-0.0118
-0.0118
-0.0118
-0.0118
-0.0118
-0.0118
-0.0118
1.6082
1.6082
1.6082
1.6082
1.6082
1.6082
1.6082
1.6082
-0.0109
-0.0109
-0.0109
-0.0109
-0.0099
-0.0099
-0.0099
-0.0099
-0.0099
-0.0099
-0.0099
-0.0099
-0.0118
-0.0118
-0.0118
-0.0118
-0.0118
-0.0118
-0.0118
-0.0118
2.5682
2.5682
2.5682
2.5682
2.5682
2.5682
2.5682
2.5682
-0.0124
-0.0124
-0.0124
-0.0124
-0.0124
-0.0124
-0.0124
-0.0124
-0.0109
-0.0109
-0.0109
-0.0109
-0.0109
-0.0109
-0.0109
-0.0109
0.2972
0.2972
0.2972
0.2972
0.2972
0.2972
0.2972
0.2972
-0.0122
-0.0122
-0.0122
-0.0122
-0.0122
-0.0122
-0.0122
-0.0122
-0.0109
-0.0109
-0.0109
-0.0109
-0.0109
-0.0109
-0.0109
-0.0109
0.0171
0.0171
0.0171
0.0171
0.0171
0.0171
0.0171
0.0171
-0.0126
-0.0126
-0.0126
-0.0126
-0.0126
-0.0126
-0.0126
-0.0126
-0.012
-0.012
-0.012
-0.012
-0.012
-0.012
-0.012
-0.012
-0.0114
-0.0114
-0.0114
-0.0114
-0.0114
-0.0114
-0.0114
-0.0114
-0.0109
-0.0109
-0.0109
-0.0109
-0.0098
-0.0098
-0.0098
-0.0098
-0.0098
-0.0098
-0.0098
-0.0098
-0.0107
-0.0107
-0.0107
-0.0107
-0.0107
-0.0107
-0.0107
-0.0107
0.2914
0.2914
0.2914
0.2914
0.2914
0.2914
0.2914
0.2914
-0.0114
-0.0114
-0.0114
-0.0114
-0.0114
-0.0114
-0.0114
-0.0114
-0.0109
-0.0109
-0.0109
-0.0109
-0.0109
-0.0109
-0.0109
-0.0109
1.5219
1.5219
1.5219
1.5219
1.5219
1.5219
1.5219
1.5219
-0.0124
-0.0124
-0.0124
-0.0124
-0.0124
-0.0124
-0.0124
-0.0124
-0.012
-0.012
-0.012
-0.012
-0.012
-0.012
-0.012
-0.012
-0.0114
-0.0114
-0.0114
-0.0114
-0.0114
-0.0114
-0.0114
-0.0114
-0.0118
-0.0118
-0.0118
-0.0118
-0.0118
-0.0118
-0.0118
-0.0118
-0.0114
-0.0114
-0.0114
-0.0114
-0.0114
-0.0114
-0.0114
-0.0114
-0.0114
-0.0114
-0.0114
-0.0114
-0.0114
-0.0114
-0.0114
-0.0114
-0.0122
-0.0122
-0.0122
-0.0122
-0.0099
-0.0099
-0.0099
-0.0099
-0.0099
-0.0099
-0.0099
-0.0099
-0.0113
-0.0113
-0.0113
-0.0113
-0.0113
-0.0113
-0.0113
-0.0113
0.2543
0.2543
0.2543
0.2543
0.2543
0.2543
0.2543
0.2543
-0.0116
-0.0116
-0.0116
-0.0116
-0.0116
-0.0116
-0.0116
-0.0116
-0.0113
-0.0113
-0.0113
-0.0113
-0.0113
-0.0113
-0.0113
-0.0113
2.6593
2.6593
2.6593
2.6593
2.6593
2.6593
2.6593
2.6593
0.3893
0.3893
0.3893
0.3893
0.3893
0.3893
0.3893
0.3893
-0.0114
-0.0114
-0.0114
-0.0114
-0.0114
-0.0114
-0.0114
-0.0114
2.8678
2.8678
2.8678
2.8678
2.8678
2.8678
2.8678
2.8678
1.0267
1.0267
1.0267
1.0267
1.0267
1.0267
1.0267
1.0267
-0.0114
-0.0114
-0.0114
-0.0114
-0.0114
-0.0114
-0.0114
-0.0114
2.8684
2.8684
2.8684
2.8684
2.8684
2.8684
2.8684
2.8684
0.3017
0.3017
0.3017
0.3017
-0.0113
-0.0113
-0.0113
-0.0113
-0.0113
-0.0113
-0.0113
-0.0113
-0.0109
-0.0109
-0.0109
-0.0109
-0.0109
-0.0109
-0.0109
-0.0109
1.8671
1.8671
1.8671
1.8671
1.8671
1.8671
1.8671
1.8671
0.7041
0.7041
0.7041
0.7041
0.7041
0.7041
0.7041
0.7041
-0.0109
-0.0109
-0.0109
-0.0109
-0.0109
-0.0109
-0.0109
-0.0109
1.9144
1.9144
1.9144
1.9144
1.9144
1.9144
1.9144
1.9144
0.1534
0.1534
0.1534
0.1534
0.1534
0.1534
0.1534
0.1534
-0.0114
-0.0114
-0.0114
-0.0114
-0.0114
-0.0114
-0.0114
-0.0114
1.1518
1.1518
1.1518
1.1518
1.1518
1.1518
1.1518
1.1518
-0.012
-0.012
-0.012
-0.012
-0.012
-0.012
-0.012
-0.012
-0.0099
-0.0099
-0.0099
-0.0099
-0.0099
-0.0099
-0.0099
-0.0099
-0.0113
-0.0113
-0.0113
-0.0113
-0.0113
-0.0113
-0.0113
-0.0113
-0.0111
-0.0111
-0.0111
-0.0111
-0.0105
-0.0105
-0.0105
-0.0105
-0.0105
-0.0105
-0.0105
-0.0105
-0.012
-0.012
-0.012
-0.012
-0.012
-0.012
-0.012
-0.012
-0.0105
-0.0105
-0.0105
-0.0105
-0.0105
-0.0105
-0.0105
-0.0105
0.1371
0.1371
0.1371
0.1371
0.1371
0.1371
0.1371
0.1371
-0.0111
-0.0111
-0.0111
-0.0111
-0.0111
-0.0111
-0.0111
-0.0111
-0.0066
-0.0066
-0.0066
-0.0066
-0.0066
-0.0066
-0.0066
-0.0066
0.0848
0.0848
0.0848
0.0848
0.0848
0.0848
0.0848
0.0848
-0.0114
-0.0114
-0.0114
-0.0114
-0.0114
-0.0114
-0.0114
-0.0114
-0.0034
-0.0034
-0.0034
-0.0034
-0.0034
-0.0034
-0.0034
-0.0034
0.0306
0.0306
0.0306
0.0306
0.0306
0.0306
0.0306
0.0306
-0.0118
-0.0118
-0.0118
-0.0118
-0.0118
-0.0118
-0.0118
-0.0118
0.8901
0.8901
0.8901
0.8901
0.8901
0.8901
0.8901
0.8901
0.3373
0.3373
0.3373
0.3373
-0.0113
-0.0113
-0.0113
-0.0113
-0.0113
-0.0113
-0.0113
-0.0113
-0.0114
-0.0114
-0.0114
-0.0114
-0.0114
-0.0114
-0.0114
-0.0114
-0.012
-0.012
-0.012
-0.012
-0.012
-0.012
-0.012
-0.012
-0.0111
-0.0111
-0.0111
-0.0111
-0.0111
-0.0111
-0.0111
-0.0111
-0.0099
-0.0099
-0.0099
-0.0099
-0.0099
-0.0099
-0.0099
-0.0099
-0.012
-0.012
-0.012
-0.012
-0.012
-0.012
-0.012
-0.012
-0.0118
-0.0118
-0.0118
-0.0118
-0.0118
-0.0118
-0.0118
-0.0118
-0.012
-0.012
-0.012
-0.012
-0.012
-0.012
-0.012
-0.012
-0.0114
-0.0103
-0.0103
-0.0103
-0.0103
-0.0103
-0.0103
-0.0103
-0.0103
-0.0105
-0.0105
-0.0105
-0.0105
-0.0105
-0.0105
-0.0105
-0.0105
2.5166
2.5166
2.5166
2.5166
2.5166
2.5166
2.5166
2.5166
-0.0113
-0.0113
-0.0113
-0.0113
-0.0113
-0.0113
-0.0113
-0.0113
-0.0107
-0.0107
-0.0107
2.8493
2.8493
2.8493
2.8493
2.8493
2.8493
2.8493
2.8493
2.1488
2.1488
2.1488
2.1488
2.1488
2.1488
2.1488
2.1488
2.766
2.766
2.766
2.766
2.766
2.766
2.766
2.766
-0.0127
-0.0127
-0.0127
-0.0127
-0.0127
-0.0127
-0.0127
-0.0127
2.8684
2.8684
2.8684
2.8684
2.8684
2.8684
2.8684
2.8684
2.0411
2.0411
2.0411
2.0411
2.0411
2.0411
2.0411
2.0411
-0.0111
-0.0111
-0.0111
-0.0111
-0.0111
-0.0111
-0.0111
-0.0111
0.0026
0.0026
0.0026
0.0026
0.0026
0.0026
0.0026
0.0026
-0.0129
-0.0129
-0.0129
-0.0129
-0.0129
-0.0129
-0.0129
-0.0129
-0.0105
-0.0105
-0.0105
-0.0105
-0.0105
-0.0105
-0.0105
-0.0105
-0.0113
-0.0113
-0.0113
-0.0113
-0.0113
-0.0113
-0.0113
-0.0113
-0.0109
-0.0109
-0.0109
-0.0109
-0.0109
-0.0109
-0.0109
-0.0109
-0.0107
-0.0107
-0.0107
-0.0107
-0.0113
-0.0113
-0.0113
-0.0113
-0.0113
-0.0113
-0.0113
-0.0113
-0.0107
-0.0107
-0.0107
-0.0107
-0.0107
-0.0107
-0.0107
-0.0107
0.1922
0.1922
0.1922
0.1922
0.1922
0.1922
0.1922
0.1922
-0.0116
-0.0116
-0.0116
-0.0116
-0.0116
-0.0116
-0.0116
-0.0116
0.3917
0.3917
0.3917
0.3917
0.3917
0.3917
0.3917
0.3917
1.0389
1.0389
1.0389
1.0389
1.0389
1.0389
1.0389
1.0389
-0.0116
-0.0116
-0.0116
-0.0116
-0.0116
-0.0116
-0.0116
-0.0116
2.0762
2.0762
2.0762
2.0762
2.0762
2.0762
2.0762
2.0762
1.6043
1.6043
1.6043
1.6043
1.6043
1.6043
1.6043
1.6043
-0.0111
-0.0111
-0.0111
-0.0111
-0.0111
-0.0111
-0.0111
-0.0111
2.8232
2.8232
2.8232
2.8232
2.8232
2.8232
2.8232
2.8232
1.4552
1.4552
1.4552
1.4552
1.4552
1.4552
1.4552
1.4552
-0.0114
-0.0114
-0.0114
-0.0114
2.8648
2.8648
2.8648
2.8648
2.8648
2.8648
2.8648
2.8648
-0.0103
-0.0103
-0.0103
-0.0103
-0.0103
-0.0103
-0.0103
-0.0103
-0.0107
-0.0107
-0.0107
-0.0107
-0.0107
-0.0107
-0.0107
-0.0107
-0.0114
-0.0114
-0.0114
-0.0114
-0.0114
-0.0114
-0.0114
-0.0114
-0.0114
-0.0114
-0.0114
-0.0114
-0.0114
-0.0114
-0.0114
-0.0114
-0.0111
-0.0111
-0.0111
-0.0111
-0.0111
-0.0111
-0.0111
-0.0111
-0.0107
-0.0107
-0.0107
-0.0107
-0.0107
-0.0107
-0.0107
-0.0107
-0.0114
-0.0114
-0.0114
-0.0114
-0.0114
-0.0114
-0.0114
-0.0114
-0.0107
-0.0107
-0.0107
-0.0107
-0.0107
-0.0107
-0.0107
-0.0107
-0.0116
-0.0116
-0.0116
-0.0116
-0.0116
-0.0116
-0.0116
-0.0116
-0.0105
-0.0105
-0.0105
-0.0105
-0.0105
-0.0105
-0.0105
-0.0105
0.021
0.021
0.021
0.021
0.021
0.021
0.021
0.021
-0.0122
-0.0122
-0.0122
-0.0122
0.039
0.039
0.039
0.039
0.039
0.039
0.039
0.039
0.2668
0.2668
0.2668
0.2668
0.2668
0.2668
0.2668
0.2668
2.8684
2.8684
2.8684
2.8684
2.8684
2.8684
2.8684
2.8684
-0.0109
-0.0109
-0.0109
-0.0109
-0.0109
-0.0109
-0.0109
-0.0109
1.5547
1.5547
1.5547
1.5547
1.5547
1.5547
1.5547
1.5547
2.8678
2.8678
2.8678
2.8678
2.8678
2.8678
2.8678
2.8678
-0.0107
-0.0107
-0.0107
-0.0107
-0.0107
-0.0107
-0.0107
-0.0107
-0.0109
-0.0109
-0.0109
-0.0109
-0.0109
-0.0109
-0.0109
-0.0109
-0.0026
-0.0026
-0.0026
-0.0026
-0.0026
-0.0026
-0.0026
-0.0026
-0.0111
-0.0111
-0.0111
-0.0111
-0.0111
-0.0111
-0.0111
-0.0111
-0.0113
-0.0113
-0.0113
-0.0113
-0.0113
-0.0113
-0.0113
-0.0113
-0.0111
-0.0111
-0.0111
-0.0111
-0.0111
-0.0111
-0.0111
-0.0111
-0.0109
-0.0109
-0.0109
-0.0109
-0.0101
-0.0101
-0.0101
-0.0101
-0.0101
-0.0101
-0.0101
-0.0101
-0.012
-0.012
-0.012
-0.012
-0.012
-0.012
-0.012
-0.012
1.0667
1.0667
1.0667
1.0667
1.0667
1.0667
1.0667
1.0667
-0.0113
-0.0113
-0.0113
-0.0113
-0.0113
-0.0113
-0.0113
-0.0113
-0.0109
-0.0109
-0.0109
-0.0109
-0.0109
-0.0109
-0.0109
-0.0109
2.3085
2.3085
2.3085
2.3085
2.3085
2.3085
2.3085
2.3085
-0.0114
-0.0114
-0.0114
-0.0114
-0.0114
-0.0114
-0.0114
-0.0114
-0.012
-0.012
-0.012
-0.012
-0.012
-0.012
-0.012
-0.012
2.0321
2.0321
2.0321
2.0321
2.0321
2.0321
2.0321
2.0321
0.1811
0.1811
0.1811
0.1811
0.1811
0.1811
0.1811
0.1811
1.7843
1.7843
1.7843
1.7843
1.7843
1.7843
1.7843
1.7843
2.8579
2.8579
2.8579
2.8579
2.8579
2.8579
2.8579
2.8579
-0.0118
-0.0118
-0.0118
-0.0118
-0.0101
-0.0101
-0.0101
-0.0101
-0.0101
-0.0101
-0.0101
-0.0101
-0.0116
-0.0116
-0.0116
-0.0116
-0.0116
-0.0116
-0.0116
-0.0116
2.8354
2.8354
2.8354
2.8354
2.8354
2.8354
2.8354
2.8354
-0.0118
-0.0118
-0.0118
-0.0118
-0.0118
-0.0118
-0.0118
-0.0118
-0.0109
-0.0109
-0.0109
-0.0109
-0.0109
-0.0109
-0.0109
-0.0109
2.8663
2.8663
2.8663
2.8663
2.8663
2.8663
2.8663
2.8663
-0.0109
-0.0109
-0.0109
-0.0109
-0.0109
-0.0109
-0.0109
-0.0109
-0.0116
-0.0116
-0.0116
-0.0116
-0.0116
-0.0116
-0.0116
-0.0116
1.6183
1.6183
1.6183
1.6183
1.6183
1.6183
1.6183
1.6183
-0.0113
-0.0113
-0.0113
-0.0113
-0.0113
-0.0113
-0.0113
-0.0113
-0.0107
-0.0107
-0.0107
-0.0107
-0.0107
-0.0107
-0.0107
-0.0107
-0.0107
-0.0107
-0.0107
-0.0107
-0.0107
-0.0107
-0.0107
-0.0107
-0.0107
-0.0107
-0.0107
-0.0107
-0.0107
-0.0107
-0.0107
-0.0107
-0.0107
-0.0107
-0.0107
-0.0107
-0.0101
-0.0101
-0.0101
-0.0101
-0.0101
-0.0101
-0.0101
-0.0101
0.0298
0.0298
0.0298
0.0298
0.0298
0.0298
0.0298
0.0298
-0.0109
-0.0109
-0.0109
-0.0109
-0.0109
-0.0109
-0.0109
-0.0109
-0.0113
-0.0113
-0.0113
-0.0113
-0.0113
-0.0113
-0.0113
-0.0113
0.0073
0.0073
0.0073
0.0073
0.0073
0.0073
0.0073
0.0073
-0.0113
-0.0113
-0.0113
-0.0113
-0.0113
-0.0113
-0.0113
-0.0113
-0.0114
-0.0114
-0.0114
-0.0114
-0.0114
-0.0114
-0.0114
-0.0114
0.0966
0.0966
0.0966
0.0966
0.0966
0.0966
0.0966
0.0966
-0.0116
-0.0116
-0.0116
-0.0116
-0.0116
-0.0116
-0.0116
-0.0116
-0.012
-0.012
-0.012
-0.012
-0.012
-0.012
-0.012
-0.012
2.5753
2.5753
2.5753
2.5753
2.5753
2.5753
2.5753
2.5753
-0.0116
-0.0116
-0.0116
-0.0116
-0.0099
-0.0099
-0.0099
-0.0099
-0.0099
-0.0099
-0.0099
-0.0099
-0.0113
-0.0113
-0.0113
-0.0113
-0.0113
-0.0113
-0.0113
-0.0113
-0.0114
-0.0114
-0.0114
-0.0114
-0.0114
-0.0114
-0.0114
-0.0114
-0.0111
-0.0111
-0.0111
-0.0111
-0.0111
-0.0111
-0.0111
-0.0111
2.5449
2.5449
2.5449
2.5449
2.5449
2.5449
2.5449
2.5449
2.8678
2.8678
2.8678
2.8678
2.8678
2.8678
2.8678
2.8678
2.5607
2.5607
2.5607
2.5607
2.5607
2.5607
2.5607
2.5607
-0.0118
-0.0118
-0.0118
-0.0118
-0.0118
-0.0118
-0.0118
-0.0118
2.8575
2.8575
2.8575
2.8575
2.8575
2.8575
2.8575
2.8575
-0.0111
-0.0111
-0.0111
-0.0111
-0.0111
-0.0111
-0.0111
-0.0111
-0.0113
-0.0113
-0.0113
-0.0113
-0.0113
-0.0113
-0.0113
-0.0113
2.2731
2.2731
2.2731
2.2731
2.2731
2.2731
2.2731
2.2731
-0.012
-0.012
-0.012
-0.012
-0.0111
-0.0111
-0.0111
-0.0111
-0.0111
-0.0111
-0.0111
-0.0111
-0.0113
-0.0113
-0.0113
-0.0113
-0.0113
-0.0113
-0.0113
-0.0113
-0.0113
-0.0113
-0.0113
-0.0113
-0.0113
-0.0113
-0.0113
-0.0113
-0.0103
-0.0103
-0.0103
-0.0103
-0.0103
-0.0103
-0.0103
-0.0103
-0.0107
-0.0107
-0.0107
-0.0107
-0.0107
-0.0107
-0.0107
-0.0107
0.0045
0.0045
0.0045
0.0045
0.0045
0.0045
0.0045
0.0045
-0.0122
-0.0122
-0.0122
-0.0122
-0.0122
-0.0122
-0.0122
-0.0122
-0.0113
-0.0113
-0.0113
-0.0113
-0.0113
-0.0113
-0.0113
-0.0113
-0.0009
-0.0009
-0.0009
-0.0009
-0.0009
-0.0009
-0.0009
-0.0009
-0.0109
-0.0109
-0.0109
-0.0109
-0.0109
-0.0109
-0.0109
-0.0109
-0.0105
-0.0105
-0.0105
-0.0105
-0.0105
-0.0105
-0.0105
-0.0105
0.2618
0.2618
0.2618
0.2618
0.2618
0.2618
0.2618
0.2618
-0.0114
-0.0114
-0.0114
-0.0114
-0.0103
-0.0103
-0.0103
-0.0103
-0.0103
-0.0103
-0.0103
-0.0103
-0.0118
-0.0118
-0.0118
-0.0118
-0.0118
-0.0118
-0.0118
-0.0118
-0.0107
-0.0107
-0.0107
-0.0107
-0.0107
-0.0107
-0.0107
-0.0107
0.1067
0.1067
0.1067
0.1067
0.1067
0.1067
0.1067
0.1067
-0.012
-0.012
-0.012
-0.012
-0.012
-0.012
-0.012
-0.012
-0.0113
-0.0113
-0.0113
-0.0113
-0.0113
-0.0113
-0.0113
-0.0113
0.0039
0.0039
0.0039
0.0039
0.0039
0.0039
0.0039
0.0039
-0.0114
-0.0114
-0.0114
-0.0114
-0.0114
-0.0114
-0.0114
-0.0114
-0.0077
-0.0077
-0.0077
-0.0077
-0.0077
-0.0077
-0.0077
-0.0077
1.6849
1.6849
1.6849
1.6849
1.6849
1.6849
1.6849
1.6849
1.6721
1.6721
1.6721
1.6721
1.6721
1.6721
1.6721
1.6721
1.7117
1.7117
1.7117
1.7117
1.7117
1.7117
1.7117
1.7117
1.7122
1.7122
1.7122
1.7122
0.0488
0.0488
0.0488
0.0488
0.0488
0.0488
0.0488
0.0488
-0.0118
-0.0118
-0.0118
-0.0118
-0.0118
-0.0118
-0.0118
-0.0118
-0.0118
-0.0118
-0.0118
-0.0118
-0.0118
-0.0118
-0.0118
-0.0118
1.3553
1.3553
1.3553
1.3553
1.3553
1.3553
1.3553
1.3553
-0.0116
-0.0116
-0.0116
-0.0116
-0.0116
-0.0116
-0.0116
-0.0116
-0.0118
-0.0118
-0.0118
-0.0118
-0.0118
-0.0118
-0.0118
-0.0118
0.5591
0.5591
0.5591
0.5591
0.5591
0.5591
0.5591
0.5591
-0.0111
-0.0111
-0.0111
-0.0111
-0.0111
-0.0111
-0.0111
-0.0111
-0.0109
-0.0109
-0.0109
-0.0109
-0.0109
-0.0109
-0.0109
-0.0109
0.0263
0.0263
0.0263
0.0263
0.0263
0.0263
0.0263
0.0263
-0.0127
-0.0127
-0.0127
-0.0127
-0.0127
-0.0127
-0.0127
-0.0127
-0.0111
-0.0111
-0.0111
-0.0111
-0.0111
-0.0111
-0.0111
-0.0111
-0.0109
-0.0109
-0.0109
-0.0109
-0.0096
-0.0096
-0.0096
-0.0096
-0.0096
-0.0096
-0.0096
-0.0096
-0.0096
-0.0096
-0.0096
-0.0096
-0.0096
-0.0096
-0.0096
-0.0096
-0.0111
-0.0111
-0.0111
-0.0111
-0.0111
-0.0111
-0.0111
-0.0111
-0.0114
-0.0114
-0.0114
-0.0114
-0.0114
-0.0114
-0.0114
-0.0114
-0.0103
-0.0103
-0.0103
-0.0103
-0.0103
-0.0103
-0.0103
-0.0103
-0.0111
-0.0111
-0.0111
-0.0111
-0.0111
-0.0111
-0.0111
-0.0111
-0.0113
-0.0113
-0.0113
-0.0113
-0.0113
-0.0113
-0.0113
-0.0113
-0.0105
-0.0105
-0.0105
-0.0105
-0.0105
-0.0105
-0.0105
-0.0105
-0.0109
-0.0109
-0.0109
-0.0109
-0.0109
-0.0109
-0.0109
-0.0109
-0.0116
-0.0116
-0.0116
-0.0116
-0.0116
-0.0116
-0.0116
-0.0116
-0.0113
-0.0113
-0.0113
-0.0113
-0.0113
-0.0113
-0.0113
-0.0113
-0.0116
-0.0116
-0.0116
-0.0116
-0.0116
-0.0116
-0.0116
-0.0116
-0.0118
-0.0118
-0.0118
-0.0118
-0.0105
-0.0105
-0.0105
-0.0105
-0.0105
-0.0105
-0.0105
-0.0105
-0.0118
-0.0118
-0.0118
-0.0118
-0.0118
-0.0118
-0.0118
-0.0118
-0.0098
-0.0098
-0.0098
-0.0098
-0.0098
-0.0098
-0.0098
-0.0098
-0.0107
-0.0107
-0.0107
-0.0107
-0.0107
-0.0107
-0.0107
-0.0107
-0.0111
-0.0111
-0.0111
-0.0111
-0.0111
-0.0111
-0.0111
-0.0111
-0.0118
-0.0118
-0.0118
-0.0118
-0.0118
-0.0118
-0.0118
-0.0118
1.6477
1.6477
1.6477
1.6477
1.6477
1.6477
1.6477
1.6477
-0.0126
-0.0126
-0.0126
-0.0126
-0.0126
-0.0126
-0.0126
-0.0126
-0.0124
-0.0124
-0.0124
-0.0124
-0.0124
-0.0124
-0.0124
-0.0124
0.2661
0.2661
0.2661
0.2661
0.2661
0.2661
0.2661
0.2661
-0.0116
-0.0116
-0.0116
-0.0116
-0.0116
-0.0116
-0.0116
-0.0116
-0.0107
-0.0107
-0.0107
-0.0107
-0.0107
-0.0107
-0.0107
-0.0107
1.2662
1.2662
1.2662
1.2662
-0.0099
-0.0099
-0.0099
-0.0099
-0.0099
-0.0099
-0.0099
-0.0099
0.0058
0.0058
0.0058
0.0058
0.0058
0.0058
0.0058
0.0058
-0.0116
-0.0116
-0.0116
-0.0116
-0.0116
-0.0116
-0.0116
-0.0116
2.8579
2.8579
2.8579
2.8579
2.8579
2.8579
2.8579
2.8579
0.0804
0.0804
0.0804
0.0804
0.0804
0.0804
0.0804
0.0804
-0.0111
-0.0111
-0.0111
-0.0111
-0.0111
-0.0111
-0.0111
-0.0111
2.8588
2.8588
2.8588
2.8588
2.8588
2.8588
2.8588
2.8588
-0.0109
-0.0109
-0.0109
-0.0109
-0.0109
-0.0109
-0.0109
-0.0109
-0.0118
-0.0118
-0.0118
-0.0118
-0.0118
-0.0118
-0.0118
-0.0118
2.121
2.121
2.121
2.121
2.121
2.121
2.121
2.121
-0.0116
-0.0116
-0.0116
-0.0116
-0.0116
-0.0116
-0.0116
-0.0116
-0.0107
-0.0107
-0.0107
-0.0107
-0.0107
-0.0107
-0.0107
-0.0107
-0.0111
-0.0111
-0.0111
-0.0111
-0.0103
-0.0103
-0.0103
-0.0103
-0.0103
-0.0103
-0.0103
-0.0103
-0.0114
-0.0114
-0.0114
-0.0114
-0.0114
-0.0114
-0.0114
-0.0114
-0.0111
-0.0111
-0.0111
-0.0111
-0.0111
-0.0111
-0.0111
-0.0111
-0.0105
-0.0105
-0.0105
-0.0105
-0.0105
-0.0105
-0.0105
-0.0105
-0.0114
-0.0114
-0.0114
-0.0114
-0.0114
-0.0114
-0.0114
-0.0114
-0.0111
-0.0111
-0.0111
-0.0111
-0.0111
-0.0111
-0.0111
-0.0111
-0.0111
-0.0111
-0.0111
-0.0111
-0.0111
-0.0111
-0.0111
-0.0111
-0.0116
-0.0116
-0.0116
-0.0116
-0.0116
-0.0116
-0.0116
-0.0116
-0.012
-0.012
-0.012
-0.012
-0.012
-0.012
-0.012
-0.012
-0.0098
-0.0098
-0.0098
-0.0098
-0.0098
-0.0098
-0.0098
-0.0098
-0.0111
-0.0111
-0.0111
-0.0111
-0.0111
-0.0111
-0.0111
-0.0111
-0.0111
-0.0111
-0.0111
-0.0111
-0.0111
-0.0111
-0.0111
-0.0111
-0.0118
-0.0118
-0.0118
-0.0118
-0.0103
-0.0103
-0.0103
-0.0103
-0.0103
-0.0103
-0.0103
-0.0103
-0.0114
-0.0114
-0.0114
-0.0114
-0.0114
-0.0114
-0.0114
-0.0114
-0.0118
-0.0118
-0.0118
-0.0118
-0.0118
-0.0118
-0.0118
-0.0118
-0.0113
-0.0113
-0.0113
-0.0113
-0.0113
-0.0113
-0.0113
-0.0113
-0.012
-0.012
-0.012
-0.012
-0.012
-0.012
-0.012
-0.012
-0.0114
-0.0114
-0.0114
-0.0114
-0.0114
-0.0114
-0.0114
-0.0114
0.0075
0.0075
0.0075
0.0075
0.0075
0.0075
0.0075
0.0075
0.1436
0.1436
0.1436
0.1436
0.1436
0.1436
0.1436
0.1436
-0.0113
-0.0113
-0.0113
-0.0113
-0.0113
-0.0113
-0.0113
-0.0113
1.4859
1.4859
1.4859
1.4859
1.4859
1.4859
1.4859
1.4859
0.4813
0.4813
0.4813
0.4813
0.4813
0.4813
0.4813
0.4813
-0.0114
-0.0114
-0.0114
-0.0114
-0.0114
-0.0114
-0.0114
-0.0114
0.6176
0.6176
0.6176
0.6176
0.0268
0.0268
0.0268
0.0268
0.0268
0.0268
0.0268
0.0268
2.8682
2.8682
2.8682
2.8682
2.8682
2.8682
2.8682
2.8682
0.0144
0.0144
0.0144
0.0144
0.0144
0.0144
0.0144
0.0144
0.4665
0.4665
0.4665
0.4665
0.4665
0.4665
0.4665
0.4665
2.8654
2.8654
2.8654
2.8654
2.8654
2.8654
2.8654
2.8654
-0.0111
-0.0111
-0.0111
-0.0111
-0.0111
-0.0111
-0.0111
-0.0111
-0.0111
-0.0111
-0.0111
-0.0111
-0.0111
-0.0111
-0.0111
-0.0111
1.4689
1.4689
1.4689
1.4689
1.4689
1.4689
1.4689
1.4689
-0.0113
-0.0113
-0.0113
-0.0113
-0.0113
-0.0113
-0.0113
-0.0113
-0.0109
-0.0109
-0.0109
-0.0109
-0.0109
-0.0109
-0.0109
-0.0109
-0.012
-0.012
-0.012
-0.012
-0.012
-0.012
-0.012
-0.012
-0.0113
-0.0113
-0.0113
-0.0113
-0.0113
-0.0113
-0.0113
-0.0113
-0.0113
-0.0113
-0.0113
-0.0113
-0.0101
-0.0101
-0.0101
-0.0101
-0.0101
-0.0101
-0.0101
-0.0101
-0.0113
-0.0113
-0.0113
-0.0113
-0.0113
-0.0113
-0.0113
-0.0113
-0.0107
-0.0107
-0.0107
-0.0107
-0.0107
-0.0107
-0.0107
-0.0107
-0.0107
-0.0107
-0.0107
-0.0107
-0.0107
-0.0107
-0.0107
-0.0107
-0.0109
-0.0109
-0.0109
-0.0109
-0.0109
-0.0109
-0.0109
-0.0109
-0.0113
-0.0113
-0.0113
-0.0113
-0.0113
-0.0113
-0.0113
-0.0113
-0.0111
-0.0111
-0.0111
-0.0111
-0.0111
-0.0111
-0.0111
-0.0111
-0.0114
-0.0114
-0.0114
-0.0114
-0.0114
-0.0114
-0.0114
-0.0114
-0.0111
-0.0111
-0.0111
-0.0111
-0.0111
-0.0111
-0.0111
-0.0111
-0.0111
-0.0111
-0.0111
-0.0111
-0.0111
-0.0111
-0.0111
-0.0111
0.102
0.102
0.102
0.102
0.102
0.102
0.102
0.102
-0.0114
-0.0114
-0.0114
-0.0114
-0.0114
-0.0114
-0.0114
-0.0114
0.0011
0.0011
0.0011
0.0011
2.8688
2.8688
2.8688
2.8688
2.8688
2.8688
2.8688
2.8688
-0.0116
-0.0116
-0.0116
-0.0116
-0.0116
-0.0116
-0.0116
-0.0116
-0.0116
-0.0116
-0.0116
-0.0116
-0.0116
-0.0116
-0.0116
-0.0116
-0.0113
-0.0113
-0.0113
-0.0113
-0.0113
-0.0113
-0.0113
-0.0113
-0.0109
-0.0109
-0.0109
-0.0109
-0.0109
-0.0109
-0.0109
-0.0109
-0.0111
-0.0111
-0.0111
-0.0111
-0.0111
-0.0111
-0.0111
-0.0111
-0.0118
-0.0118
-0.0118
-0.0118
-0.0118
-0.0118
-0.0118
-0.0118
-0.0116
-0.0116
-0.0116
-0.0116
-0.0116
-0.0116
-0.0116
-0.0116
-0.0116
-0.0116
-0.0116
-0.0116
-0.0116
-0.0116
-0.0116
-0.0116
-0.0118
-0.0118
-0.0118
-0.0118
-0.0118
-0.0118
-0.0118
-0.0118
-0.0098
-0.0098
-0.0098
-0.0098
-0.0098
-0.0098
-0.0098
-0.0098
-0.0099
-0.0099
-0.0099
-0.0099
-0.0099
-0.0099
-0.0099
-0.0099
-0.0118
-0.0118
-0.0118
-0.0118
-0.0105
-0.0105
-0.0105
-0.0105
-0.0105
-0.0105
-0.0105
-0.0105
-0.0103
-0.0103
-0.0103
-0.0103
-0.0103
-0.0103
-0.0103
-0.0103
0.8353
0.8353
0.8353
0.8353
0.8353
0.8353
0.8353
0.8353
2.8149
2.8149
2.8149
2.8149
2.8149
2.8149
2.8149
2.8149
-0.0114
-0.0114
-0.0114
-0.0114
-0.0114
-0.0114
-0.0114
-0.0114
1.3556
1.3556
1.3556
1.3556
1.3556
1.3556
1.3556
1.3556
2.1579
2.1579
2.1579
2.1579
2.1579
2.1579
2.1579
2.1579
-0.012
-0.012
-0.012
-0.012
-0.012
-0.012
-0.012
-0.012
0.0517
0.0517
0.0517
0.0517
0.0517
0.0517
0.0517
0.0517
0.2531
0.2531
0.2531
0.2531
0.2531
0.2531
0.2531
0.2531
-0.0124
-0.0124
-0.0124
-0.0124
-0.0124
-0.0124
-0.0124
-0.0124
-0.0096
-0.0096
-0.0096
-0.0096
-0.0096
-0.0096
-0.0096
-0.0096
-0.0111
-0.0111
-0.0111
-0.0111
-0.0103
-0.0103
-0.0103
-0.0103
-0.0103
-0.0103
-0.0103
-0.0103
-0.012
-0.012
-0.012
-0.012
-0.012
-0.012
-0.012
-0.012
-0.0101
-0.0101
-0.0101
-0.0101
-0.0101
-0.0101
-0.0101
-0.0101
2.8101
2.8101
2.8101
2.8101
2.8101
2.8101
2.8101
2.8101
-0.0113
-0.0113
-0.0113
-0.0113
-0.0113
-0.0113
-0.0113
-0.0113
-0.0111
-0.0111
-0.0111
-0.0111
-0.0111
-0.0111
-0.0111
-0.0111
0.7382
0.7382
0.7382
0.7382
0.7382
0.7382
0.7382
0.7382
-0.0109
-0.0109
-0.0109
-0.0109
-0.0109
-0.0109
-0.0109
-0.0109
-0.0111
-0.0111
-0.0111
-0.0111
-0.0111
-0.0111
-0.0111
-0.0111
-0.0118
-0.0118
-0.0118
-0.0118
-0.0118
-0.0118
-0.0118
-0.0118
-0.0107
-0.0107
-0.0107
-0.0107
-0.0107
-0.0107
-0.0107
-0.0107
-0.0113
-0.0113
-0.0113
-0.0113
-0.0113
-0.0113
-0.0113
-0.0113
-0.0111
-0.0111
-0.0111
-0.0111
-0.0107
-0.0107
-0.0107
-0.0107
-0.0107
-0.0107
-0.0107
-0.0107
-0.0116
-0.0116
-0.0116
-0.0116
-0.0116
-0.0116
-0.0116
-0.0116
-0.0118
-0.0118
-0.0118
-0.0118
-0.0118
-0.0118
-0.0118
-0.0118
2.8487
2.8487
2.8487
2.8487
2.8487
2.8487
2.8487
2.8487
-0.0111
-0.0111
-0.0111
-0.0111
-0.0111
-0.0111
-0.0111
-0.0111
-0.0109
-0.0109
-0.0109
-0.0109
-0.0109
-0.0109
-0.0109
-0.0109
2.8697
2.8697
2.8697
2.8697
2.8697
2.8697
2.8697
2.8697
-0.0114
-0.0114
-0.0114
-0.0114
-0.0114
-0.0114
-0.0114
-0.0114
-0.0109
-0.0109
-0.0109
-0.0109
-0.0109
-0.0109
-0.0109
-0.0109
2.8693
2.8693
2.8693
2.8693
2.8693
2.8693
2.8693
2.8693
-0.0113
-0.0113
-0.0113
-0.0113
-0.0113
-0.0113
-0.0113
-0.0113
-0.0111
-0.0111
-0.0111
-0.0111
-0.0111
-0.0111
-0.0111
-0.0111
0.2571
0.2571
0.2571
0.2571
-0.0101
-0.0101
-0.0101
-0.0101
-0.0101
-0.0101
-0.0101
-0.0101
-0.0113
-0.0113
-0.0113
-0.0113
-0.0113
-0.0113
-0.0113
-0.0113
-0.0107
-0.0107
-0.0107
-0.0107
-0.0107
-0.0107
-0.0107
-0.0107
2.823
2.823
2.823
2.823
2.823
2.823
2.823
2.823
-0.0111
-0.0111
-0.0111
-0.0111
-0.0111
-0.0111
-0.0111
-0.0111
-0.0122
-0.0122
-0.0122
-0.0122
-0.0122
-0.0122
-0.0122
-0.0122
2.8016
2.8016
2.8016
2.8016
2.8016
2.8016
2.8016
2.8016
-0.0114
-0.0114
-0.0114
-0.0114
-0.0114
-0.0114
-0.0114
-0.0114
-0.0107
-0.0107
-0.0107
-0.0107
-0.0107
-0.0107
-0.0107
-0.0107
0.4485
0.4485
0.4485
0.4485
0.4485
0.4485
0.4485
0.4485
-0.012
-0.012
-0.012
-0.012
-0.012
-0.012
-0.012
-0.012
-0.0113
-0.0113
-0.0113
-0.0113
-0.0113
-0.0113
-0.0113
-0.0113
2.0422
2.0422
2.0422
2.0422
-0.0111
-0.0111
-0.0111
-0.0111
-0.0111
-0.0111
-0.0111
-0.0111
-0.0113
-0.0113
-0.0113
-0.0113
-0.0113
-0.0113
-0.0113
-0.0113
-0.0101
-0.0101
-0.0101
-0.0101
-0.0101
-0.0101
-0.0101
-0.0101
0.1101
0.1101
0.1101
0.1101
0.1101
0.1101
0.1101
0.1101
-0.0126
-0.0126
-0.0126
-0.0126
-0.0126
-0.0126
-0.0126
-0.0126
-0.0109
-0.0109
-0.0109
-0.0109
-0.0109
-0.0109
-0.0109
-0.0109
0.7611
0.7611
0.7611
0.7611
0.7611
0.7611
0.7611
0.7611
-0.0113
-0.0113
-0.0113
-0.0113
-0.0113
-0.0113
-0.0113
-0.0113
-0.012
-0.012
-0.012
-0.012
-0.012
-0.012
-0.012
-0.012
-0.0111
-0.0111
-0.0111
-0.0111
-0.0111
-0.0111
-0.0111
-0.0111
-0.012
-0.012
-0.012
-0.012
-0.012
-0.012
-0.012
-0.012
-0.0103
-0.0103
-0.0103
-0.0103
-0.0103
-0.0103
-0.0103
-0.0103
-0.0116
-0.0116
-0.0116
-0.0116
-0.0109
-0.0109
-0.0109
-0.0109
-0.0109
-0.0109
-0.0109
-0.0109
-0.0105
-0.0105
-0.0105
-0.0105
-0.0105
-0.0105
-0.0105
-0.0105
-0.0111
-0.0111
-0.0111
-0.0111
-0.0111
-0.0111
-0.0111
-0.0111
0.3444
0.3444
0.3444
0.3444
0.3444
0.3444
0.3444
0.3444
2.7947
2.7947
2.7947
2.7947
2.7947
2.7947
2.7947
2.7947
-0.0114
-0.0114
-0.0114
-0.0114
-0.0114
-0.0114
-0.0114
-0.0114
0.279
0.279
0.279
0.279
0.279
0.279
0.279
0.279
0.2809
0.2809
0.2809
0.2809
0.2809
0.2809
0.2809
0.2809
-0.012
-0.012
-0.012
-0.012
-0.012
-0.012
-0.012
-0.012
-0.0073
-0.0073
-0.0073
-0.0073
-0.0073
-0.0073
-0.0073
-0.0073
0.0997
0.0997
0.0997
0.0997
0.0997
0.0997
0.0997
0.0997
-0.0111
-0.0111
-0.0111
-0.0111
-0.0111
-0.0111
-0.0111
-0.0111
0.3322
0.3322
0.3322
0.3322
0.2822
0.2822
0.2822
0.2822
0.2822
0.2822
0.2822
0.2822
2.8695
2.8695
2.8695
2.8695
2.8695
2.8695
2.8695
2.8695
0.3054
0.3054
0.3054
0.3054
0.3054
0.3054
0.3054
0.3054
2.1866
2.1866
2.1866
2.1866
2.1866
2.1866
2.1866
2.1866
2.8611
2.8611
2.8611
2.8611
2.8611
2.8611
2.8611
2.8611
-0.0116
-0.0116
-0.0116
-0.0116
-0.0116
-0.0116
-0.0116
-0.0116
2.5723
2.5723
2.5723
2.5723
2.5723
2.5723
2.5723
2.5723
2.8689
2.8689
2.8689
2.8689
2.8689
2.8689
2.8689
2.8689
-0.012
-0.012
-0.012
-0.012
-0.012
-0.012
-0.012
-0.012
-0.0124
-0.0124
-0.0124
-0.0124
-0.0124
-0.0124
-0.0124
-0.0124
-0.0109
-0.0109
-0.0109
-0.0109
-0.0109
-0.0109
-0.0109
-0.0109
-0.0114
-0.0114
-0.0114
-0.0114
-0.0114
-0.0114
-0.0114
-0.0114
-0.0114
-0.0114
-0.0114
-0.0114
-0.0113
-0.0113
-0.0113
-0.0113
-0.0113
-0.0113
-0.0113
-0.0113
-0.0114
-0.0114
-0.0114
-0.0114
-0.0114
-0.0114
-0.0114
-0.0114
-0.0113
-0.0113
-0.0113
-0.0113
-0.0113
-0.0113
-0.0113
-0.0113
-0.012
-0.012
-0.012
-0.012
-0.012
-0.012
-0.012
-0.012
-0.0103
-0.0103
-0.0103
-0.0103
-0.0103
-0.0103
-0.0103
-0.0103
-0.0113
-0.0113
-0.0113
-0.0113
-0.0113
-0.0113
-0.0113
-0.0113
-0.0114
-0.0114
-0.0114
-0.0114
-0.0114
-0.0114
-0.0114
-0.0114
-0.0107
-0.0107
-0.0107
-0.0107
-0.0107
-0.0107
-0.0107
-0.0107
-0.0107
-0.0107
-0.0107
-0.0107
-0.0107
-0.0107
-0.0107
-0.0107
-0.0103
-0.0103
-0.0103
-0.0103
-0.0103
-0.0103
-0.0103
-0.0103
2.1131
2.1131
2.1131
2.1131
2.1131
2.1131
2.1131
2.1131
-0.0122
-0.0122
-0.0122
-0.0122
-0.0122
-0.0122
-0.0122
-0.0122
-0.0118
-0.0118
-0.0118
-0.0118
0.0004
0.0004
0.0004
0.0004
0.0004
0.0004
0.0004
0.0004
2.8691
2.8691
2.8691
2.8691
2.8691
2.8691
2.8691
2.8691
2.8684
2.8684
2.8684
2.8684
2.8684
2.8684
2.8684
2.8684
2.1418
2.1418
2.1418
2.1418
2.1418
2.1418
2.1418
2.1418
2.8693
2.8693
2.8693
2.8693
2.8693
2.8693
2.8693
2.8693
0.6486
0.6486
0.6486
0.6486
0.6486
0.6486
0.6486
0.6486
-0.0113
-0.0113
-0.0113
-0.0113
-0.0113
-0.0113
-0.0113
-0.0113
2.6023
2.6023
2.6023
2.6023
2.6023
2.6023
2.6023
2.6023
-0.012
-0.012
-0.012
-0.012
-0.012
-0.012
-0.012
-0.012
-0.0114
-0.0114
-0.0114
-0.0114
-0.0114
-0.0114
-0.0114
-0.0114
-0.0118
-0.0118
-0.0118
-0.0118
-0.0118
-0.0118
-0.0118
-0.0118
-0.0118
-0.0118
-0.0118
-0.0118
-0.0118
-0.0118
-0.0118
-0.0118
-0.0116
-0.0116
-0.0116
-0.0116
-0.0103
-0.0103
-0.0103
-0.0103
-0.0103
-0.0103
-0.0103
-0.0103
2.8695
2.8695
2.8695
2.8695
2.8695
2.8695
2.8695
2.8695
2.0743
2.0743
2.0743
2.0743
2.0743
2.0743
2.0743
2.0743
-0.0047
-0.0047
-0.0047
-0.0047
-0.0047
-0.0047
-0.0047
-0.0047
2.8702
2.8702
2.8702
2.8702
2.8702
2.8702
2.8702
2.8702
1.233
1.233
1.233
1.233
1.233
1.233
1.233
1.233
-0.0122
-0.0122
-0.0122
-0.0122
-0.0122
-0.0122
-0.0122
-0.0122
2.8689
2.8689
2.8689
2.8689
2.8689
2.8689
2.8689
2.8689
0.0799
0.0799
0.0799
0.0799
0.0799
0.0799
0.0799
0.0799
-0.0109
-0.0109
-0.0109
-0.0109
-0.0109
-0.0109
-0.0109
-0.0109
-0.0111
-0.0111
-0.0111
-0.0111
-0.0111
-0.0111
-0.0111
-0.0111
-0.0113
-0.0113
-0.0113
-0.0113
-0.0113
-0.0113
-0.0113
-0.0113
-0.0114
-0.0114
-0.0114
-0.0114
1.3828
1.3828
1.3828
1.3828
1.3828
1.3828
1.3828
1.3828
2.8699
2.8699
2.8699
2.8699
2.8699
2.8699
2.8699
2.8699
1.8339
1.8339
1.8339
1.8339
1.8339
1.8339
1.8339
1.8339
-0.0114
-0.0114
-0.0114
-0.0114
-0.0114
-0.0114
-0.0114
-0.0114
2.0111
2.0111
2.0111
2.0111
2.0111
2.0111
2.0111
2.0111
0.1357
0.1357
0.1357
0.1357
0.1357
0.1357
0.1357
0.1357
-0.0116
-0.0116
-0.0116
-0.0116
-0.0116
-0.0116
-0.0116
-0.0116
1.6239
1.6239
1.6239
1.6239
1.6239
1.6239
1.6239
1.6239
-0.0122
-0.0122
-0.0122
-0.0122
-0.0122
-0.0122
-0.0122
-0.0122
-0.0114
-0.0114
-0.0114
-0.0114
-0.0114
-0.0114
-0.0114
-0.0114
-0.0114
-0.0114
-0.0114
-0.0114
-0.0114
-0.0114
-0.0114
-0.0114
-0.0113
-0.0113
-0.0113
-0.0113
-0.0113
-0.0113
-0.0113
-0.0113
-0.0126
-0.0126
-0.0126
-0.0126
-0.0099
-0.0099
-0.0099
-0.0099
-0.0099
-0.0099
-0.0099
-0.0099
-0.0099
-0.0099
-0.0099
-0.0099
-0.0099
-0.0099
-0.0099
-0.0099
-0.0113
-0.0113
-0.0113
-0.0113
-0.0113
-0.0113
-0.0113
-0.0113
-0.0113
-0.0113
-0.0113
-0.0113
-0.0113
-0.0113
-0.0113
-0.0113
-0.0124
-0.0124
-0.0124
-0.0124
-0.0124
-0.0124
-0.0124
-0.0124
-0.0105
-0.0105
-0.0105
-0.0105
-0.0105
-0.0105
-0.0105
-0.0105
-0.0107
-0.0107
-0.0107
-0.0107
-0.0107
-0.0107
-0.0107
-0.0107
-0.0098
-0.0098
-0.0098
-0.0098
-0.0098
-0.0098
-0.0098
-0.0098
-0.0107
-0.0107
-0.0107
-0.0107
-0.0107
-0.0107
-0.0107
-0.0107
-0.0122
-0.0122
-0.0122
-0.0122
-0.0122
-0.0122
-0.0122
-0.0122
-0.0114
-0.0114
-0.0114
-0.0114
-0.0114
-0.0114
-0.0114
-0.0114
-0.0113
-0.0113
-0.0113
-0.0113
-0.0113
-0.0113
-0.0113
-0.0113
-0.0109
-0.0109
-0.0109
-0.0109
-0.0111
-0.0111
-0.0111
-0.0111
-0.0111
-0.0111
-0.0111
-0.0111
-0.0113
-0.0113
-0.0113
-0.0113
-0.0113
-0.0113
-0.0113
-0.0113
0.0013
0.0013
0.0013
0.0013
0.0013
0.0013
0.0013
0.0013
-0.0116
-0.0116
-0.0116
-0.0116
-0.0116
-0.0116
-0.0116
-0.0116
-0.0122
-0.0122
-0.0122
-0.0122
-0.0122
-0.0122
-0.0122
-0.0122
0.024
0.024
0.024
0.024
0.024
0.024
0.024
0.024
-0.0116
-0.0116
-0.0116
-0.0116
-0.0116
-0.0116
-0.0116
-0.0116
-0.0109
-0.0109
-0.0109
-0.0109
-0.0109
-0.0109
-0.0109
-0.0109
0.0047
0.0047
0.0047
0.0047
0.0047
0.0047
0.0047
0.0047
-0.0127
-0.0127
-0.0127
-0.0127
-0.0127
-0.0127
-0.0127
-0.0127
-0.0111
-0.0111
-0.0111
-0.0111
-0.0111
-0.0111
-0.0111
-0.0111
-0.0039
-0.0039
-0.0039
-0.0039
-0.0039
-0.0039
-0.0039
-0.0039
-0.0111
-0.0111
-0.0111
-0.0111
-0.0113
-0.0113
-0.0113
-0.0113
-0.0113
-0.0113
-0.0113
-0.0113
-0.0114
-0.0114
-0.0114
-0.0114
-0.0114
-0.0114
-0.0114
-0.0114
1.7383
1.7383
1.7383
1.7383
1.7383
1.7383
1.7383
1.7383
-0.0122
-0.0122
-0.0122
-0.0122
-0.0122
-0.0122
-0.0122
-0.0122
-0.0107
-0.0107
-0.0107
-0.0107
-0.0107
-0.0107
-0.0107
-0.0107
0.0508
0.0508
0.0508
0.0508
0.0508
0.0508
0.0508
0.0508
-0.0118
-0.0118
-0.0118
-0.0118
-0.0118
-0.0118
-0.0118
-0.0118
-0.0111
-0.0111
-0.0111
-0.0111
-0.0111
-0.0111
-0.0111
-0.0111
0.0705
0.0705
0.0705
0.0705
0.0705
0.0705
0.0705
0.0705
-0.0114
-0.0114
-0.0114
-0.0114
-0.0114
-0.0114
-0.0114
-0.0114
-0.0109
-0.0109
-0.0109
-0.0109
-0.0109
-0.0109
-0.0109
-0.0109
0.0122
0.0122
0.0122
0.0122
0.0122
0.0122
0.0122
0.0122
-0.0129
-0.0129
-0.0129
-0.0129
-0.0096
-0.0096
-0.0096
-0.0096
-0.0096
-0.0096
-0.0096
-0.0096
-0.0103
-0.0103
-0.0103
-0.0103
-0.0103
-0.0103
-0.0103
-0.0103
-0.0024
-0.0024
-0.0024
-0.0024
-0.0024
-0.0024
-0.0024
-0.0024
-0.0113
-0.0113
-0.0113
-0.0113
-0.0113
-0.0113
-0.0113
-0.0113
-0.0107
-0.0107
-0.0107
-0.0107
-0.0107
-0.0107
-0.0107
-0.0107
0.0428
0.0428
0.0428
0.0428
0.0428
0.0428
0.0428
0.0428
-0.0129
-0.0129
-0.0129
-0.0129
-0.0129
-0.0129
-0.0129
-0.0129
-0.0107
-0.0107
-0.0107
-0.0107
-0.0107
-0.0107
-0.0107
-0.0107
-0.0133
-0.0133
-0.0133
-0.0133
-0.0133
-0.0133
-0.0133
-0.0133
-0.0111
-0.0111
-0.0111
-0.0111
-0.0111
-0.0111
-0.0111
-0.0111
-0.0111
-0.0111
-0.0111
-0.0111
-0.0111
-0.0111
-0.0111
-0.0111
-0.0109
-0.0109
-0.0109
-0.0109
-0.0109
-0.0109
-0.0109
-0.0109
-0.0116
-0.0116
-0.0116
-0.0116
-0.0105
-0.0105
-0.0105
-0.0105
-0.0105
-0.0105
-0.0105
-0.0105
-0.0116
-0.0116
-0.0116
-0.0116
-0.0116
-0.0116
-0.0116
-0.0116
-0.0107
-0.0107
-0.0107
-0.0107
-0.0107
-0.0107
-0.0107
-0.0107
-0.0109
-0.0109
-0.0109
-0.0109
-0.0109
-0.0109
-0.0109
-0.0109
-0.0111
-0.0111
-0.0111
-0.0111
-0.0111
-0.0111
-0.0111
-0.0111
0.1256
0.1256
0.1256
0.1256
0.1256
0.1256
0.1256
0.1256
-0.0116
-0.0116
-0.0116
-0.0116
-0.0116
-0.0116
-0.0116
-0.0116
-0.0109
-0.0109
-0.0109
-0.0109
-0.0109
-0.0109
-0.0109
-0.0109
0.3506
0.3506
0.3506
0.3506
0.3506
0.3506
0.3506
0.3506
-0.0118
-0.0118
-0.0118
-0.0118
-0.0118
-0.0118
-0.0118
-0.0118
-0.0114
-0.0114
-0.0114
-0.0114
-0.0114
-0.0114
-0.0114
-0.0114
0.6341
0.6341
0.6341
0.6341
0.6341
0.6341
0.6341
0.6341
-0.0124
-0.0124
-0.0124
-0.0124
-0.0101
-0.0101
-0.0101
-0.0101
-0.0101
-0.0101
-0.0101
-0.0101
-0.0109
-0.0109
-0.0109
-0.0109
-0.0109
-0.0109
-0.0109
-0.0109
-0.0073
-0.0073
-0.0073
-0.0073
-0.0073
-0.0073
-0.0073
-0.0073
-0.0107
-0.0107
-0.0107
-0.0107
-0.0107
-0.0107
-0.0107
-0.0107
-0.0118
-0.0118
-0.0118
-0.0118
-0.0118
-0.0118
-0.0118
-0.0118
0.0026
0.0026
0.0026
0.0026
0.0026
0.0026
0.0026
0.0026
-0.0122
-0.0122
-0.0122
-0.0122
-0.0122
-0.0122
-0.0122
-0.0122
-0.0111
-0.0111
-0.0111
-0.0111
-0.0111
-0.0111
-0.0111
-0.0111
0.0214
0.0214
0.0214
0.0214
0.0214
0.0214
0.0214
0.0214
-0.0124
-0.0124
-0.0124
-0.0124
-0.0124
-0.0124
-0.0124
-0.0124
-0.0111
-0.0111
-0.0111
-0.0111
-0.0111
-0.0111
-0.0111
-0.0111
0.1144
0.1144
0.1144
0.1144
0.1144
0.1144
0.1144
0.1144
-0.0124
-0.0124
-0.0124
-0.0124
-0.0103
-0.0103
-0.0103
-0.0103
-0.0103
-0.0103
-0.0103
-0.0103
-0.0114
-0.0114
-0.0114
-0.0114
-0.0114
-0.0114
-0.0114
-0.0114
-0.0099
-0.0099
-0.0099
-0.0099
-0.0099
-0.0099
-0.0099
-0.0099
-0.0082
-0.0082
-0.0082
-0.0082
-0.0082
-0.0082
-0.0082
-0.0082
-0.0111
-0.0111
-0.0111
-0.0111
-0.0111
-0.0111
-0.0111
-0.0111
-0.012
-0.012
-0.012
-0.012
-0.012
-0.012
-0.012
-0.012
-0.0101
-0.0101
-0.0101
-0.0101
-0.0101
-0.0101
-0.0101
-0.0101
-0.0118
-0.0118
-0.0118
-0.0118
-0.0118
-0.0118
-0.0118
-0.0118
-0.0113
-0.0105
-0.0105
-0.0105
-0.0105
-0.0105
-0.0105
-0.0105
-0.0105
-0.0127
-0.0127
-0.0127
-0.0127
-0.0127
-0.0127
-0.0127
-0.0127
0.0926
0.0926
0.0926
0.0926
0.0926
0.0926
0.0926
0.0926
-0.012
-0.012
-0.012
-0.012
-0.012
-0.012
-0.012
-0.012
-0.0114
-0.0114
-0.0114
-0.0092
-0.0092
-0.0092
-0.0092
-0.0092
-0.0092
-0.0092
-0.0092
2.8704
2.8704
2.8704
2.8704
2.8704
2.8704
2.8704
2.8704
0.3632
0.3632
0.3632
0.3632
0.3632
0.3632
0.3632
0.3632
-0.0124
-0.0124
-0.0124
-0.0124
-0.0124
-0.0124
-0.0124
-0.0124
2.8629
2.8629
2.8629
2.8629
2.8629
2.8629
2.8629
2.8629
-0.0056
-0.0056
-0.0056
-0.0056
-0.0056
-0.0056
-0.0056
-0.0056
-0.0111
-0.0111
-0.0111
-0.0111
-0.0111
-0.0111
-0.0111
-0.0111
-0.0107
-0.0107
-0.0107
-0.0107
-0.0107
-0.0107
-0.0107
-0.0107
-0.0103
-0.0103
-0.0103
-0.0103
-0.0103
-0.0103
-0.0103
-0.0103
-0.0114
-0.0114
-0.0114
-0.0114
-0.0114
-0.0114
-0.0114
-0.0114
1.2197
1.2197
1.2197
1.2197
1.2197
1.2197
1.2197
1.2197
-0.012
-0.012
-0.012
-0.012
-0.012
-0.012
-0.012
-0.012
-0.0116
-0.0116
-0.0116
-0.0116
-0.0105
-0.0105
-0.0105
-0.0105
-0.0105
-0.0105
-0.0105
-0.0105
2.7141
2.7141
2.7141
2.7141
2.7141
2.7141
2.7141
2.7141
-0.0114
-0.0114
-0.0114
-0.0114
-0.0114
-0.0114
-0.0114
-0.0114
-0.012
-0.012
-0.012
-0.012
-0.012
-0.012
-0.012
-0.012
-0.0107
-0.0107
-0.0107
-0.0107
-0.0107
-0.0107
-0.0107
-0.0107
-0.0103
-0.0103
-0.0103
-0.0103
-0.0103
-0.0103
-0.0103
-0.0103
-0.0124
-0.0124
-0.0124
-0.0124
-0.0124
-0.0124
-0.0124
-0.0124
-0.0118
-0.0118
-0.0118
-0.0118
-0.0118
-0.0118
-0.0118
-0.0118
-0.0116
-0.0116
-0.0116
-0.0116
-0.0116
-0.0116
-0.0116
-0.0116
-0.0122
-0.0122
-0.0122
-0.0122
-0.0122
-0.0122
-0.0122
-0.0122
0.1196
0.1196
0.1196
0.1196
0.1196
0.1196
0.1196
0.1196
-0.0109
-0.0109
-0.0109
-0.0109
-0.0109
-0.0109
-0.0109
-0.0109
-0.0094
-0.0094
-0.0094
-0.0094
-0.0103
-0.0103
-0.0103
-0.0103
-0.0103
-0.0103
-0.0103
-0.0103
-0.0084
-0.0084
-0.0084
-0.0084
-0.0084
-0.0084
-0.0084
-0.0084
-0.0109
-0.0109
-0.0109
-0.0109
-0.0109
-0.0109
-0.0109
-0.0109
-0.0111
-0.0111
-0.0111
-0.0111
-0.0111
-0.0111
-0.0111
-0.0111
0.0413
0.0413
0.0413
0.0413
0.0413
0.0413
0.0413
0.0413
-0.0116
-0.0116
-0.0116
-0.0116
-0.0116
-0.0116
-0.0116
-0.0116
-0.0111
-0.0111
-0.0111
-0.0111
-0.0111
-0.0111
-0.0111
-0.0111
0.1365
0.1365
0.1365
0.1365
0.1365
0.1365
0.1365
0.1365
-0.0126
-0.0126
-0.0126
-0.0126
-0.0126
-0.0126
-0.0126
-0.0126
-0.0113
-0.0113
-0.0113
-0.0113
-0.0113
-0.0113
-0.0113
-0.0113
-0.0109
-0.0109
-0.0109
-0.0109
-0.0109
-0.0109
-0.0109
-0.0109
-0.0101
-0.0101
-0.0101
-0.0101
-0.0101
-0.0101
-0.0101
-0.0101
-0.0124
-0.0124
-0.0124
-0.0124
-0.0105
-0.0105
-0.0105
-0.0105
-0.0105
-0.0105
-0.0105
-0.0105
-0.0116
-0.0116
-0.0116
-0.0116
-0.0116
-0.0116
-0.0116
-0.0116
0.8953
0.8953
0.8953
0.8953
0.8953
0.8953
0.8953
0.8953
-0.0122
-0.0122
-0.0122
-0.0122
-0.0122
-0.0122
-0.0122
-0.0122
-0.0114
-0.0114
-0.0114
-0.0114
-0.0114
-0.0114
-0.0114
-0.0114
-0.0109
-0.0109
-0.0109
-0.0109
-0.0109
-0.0109
-0.0109
-0.0109
-0.0107
-0.0107
-0.0107
-0.0107
-0.0107
-0.0107
-0.0107
-0.0107
-0.0113
-0.0113
-0.0113
-0.0113
-0.0113
-0.0113
-0.0113
-0.0113
-0.0103
-0.0103
-0.0103
-0.0103
-0.0103
-0.0103
-0.0103
-0.0103
-0.0114
-0.0114
-0.0114
-0.0114
-0.0114
-0.0114
-0.0114
-0.0114
-0.0111
-0.0111
-0.0111
-0.0111
-0.0111
-0.0111
-0.0111
-0.0111
-0.0068
-0.0068
-0.0068
-0.0068
-0.0068
-0.0068
-0.0068
-0.0068
-0.0116
-0.0116
-0.0116
-0.0116
0.0114
0.0114
0.0114
0.0114
0.0114
0.0114
0.0114
0.0114
-0.0116
-0.0116
-0.0116
-0.0116
-0.0116
-0.0116
-0.0116
-0.0116
-0.0116
-0.0116
-0.0116
-0.0116
-0.0116
-0.0116
-0.0116
-0.0116
-0.0114
-0.0114
-0.0114
-0.0114
-0.0114
-0.0114
-0.0114
-0.0114
-0.0109
-0.0109
-0.0109
-0.0109
-0.0109
-0.0109
-0.0109
-0.0109
0.0073
0.0073
0.0073
0.0073
0.0073
0.0073
0.0073
0.0073
-0.012
-0.012
-0.012
-0.012
-0.012
-0.012
-0.012
-0.012
-0.0114
-0.0114
-0.0114
-0.0114
-0.0114
-0.0114
-0.0114
-0.0114
-0.0113
-0.0113
-0.0113
-0.0113
-0.0113
-0.0113
-0.0113
-0.0113
-0.0124
-0.0124
-0.0124
-0.0124
-0.0124
-0.0124
-0.0124
-0.0124
-0.0118
-0.0118
-0.0118
-0.0118
-0.0118
-0.0118
-0.0118
-0.0118
-0.0111
-0.0111
-0.0111
-0.0111
-0.0111
-0.0111
-0.0111
-0.0111
-0.0111
-0.0111
-0.0111
-0.0111
-0.0101
-0.0101
-0.0101
-0.0101
-0.0101
-0.0101
-0.0101
-0.0101
-0.0111
-0.0111
-0.0111
-0.0111
-0.0111
-0.0111
-0.0111
-0.0111
-0.0114
-0.0114
-0.0114
-0.0114
-0.0114
-0.0114
-0.0114
-0.0114
-0.0113
-0.0113
-0.0113
-0.0113
-0.0113
-0.0113
-0.0113
-0.0113
-0.0103
-0.0103
-0.0103
-0.0103
-0.0103
-0.0103
-0.0103
-0.0103
-0.0114
-0.0114
-0.0114
-0.0114
-0.0114
-0.0114
-0.0114
-0.0114
-0.0094
-0.0094
-0.0094
-0.0094
-0.0094
-0.0094
-0.0094
-0.0094
-0.0114
-0.0114
-0.0114
-0.0114
-0.0114
-0.0114
-0.0114
-0.0114
0.0714
0.0714
0.0714
0.0714
0.0714
0.0714
0.0714
0.0714
-0.0126
-0.0126
-0.0126
-0.0126
-0.0126
-0.0126
-0.0126
-0.0126
-0.0111
-0.0111
-0.0111
-0.0111
-0.0111
-0.0111
-0.0111
-0.0111
-0.0103
-0.0103
-0.0103
-0.0103
-0.0103
-0.0103
-0.0103
-0.0103
-0.0122
-0.0122
-0.0122
-0.0122
-0.0113
-0.0113
-0.0113
-0.0113
-0.0113
-0.0113
-0.0113
-0.0113
-0.0109
-0.0109
-0.0109
-0.0109
-0.0109
-0.0109
-0.0109
-0.0109
-0.0113
-0.0113
-0.0113
-0.0113
-0.0113
-0.0113
-0.0113
-0.0113
-0.0111
-0.0111
-0.0111
-0.0111
-0.0111
-0.0111
-0.0111
-0.0111
-0.0122
-0.0122
-0.0122
-0.0122
-0.0122
-0.0122
-0.0122
-0.0122
-0.0019
-0.0019
-0.0019
-0.0019
-0.0019
-0.0019
-0.0019
-0.0019
-0.0105
-0.0105
-0.0105
-0.0105
-0.0105
-0.0105
-0.0105
-0.0105
-0.0107
-0.0107
-0.0107
-0.0107
-0.0107
-0.0107
-0.0107
-0.0107
-0.0105
-0.0105
-0.0105
-0.0105
-0.0105
-0.0105
-0.0105
-0.0105
-0.0109
-0.0109
-0.0109
-0.0109
-0.0109
-0.0109
-0.0109
-0.0109
-0.0111
-0.0111
-0.0111
-0.0111
-0.0111
-0.0111
-0.0111
-0.0111
-0.0107
-0.0107
-0.0107
-0.0107
-0.0107
-0.0107
-0.0107
-0.0107
-0.0118
-0.0118
-0.0118
-0.0118
-0.0107
-0.0107
-0.0107
-0.0107
-0.0107
-0.0107
-0.0107
-0.0107
-0.0103
-0.0103
-0.0103
-0.0103
-0.0103
-0.0103
-0.0103
-0.0103
-0.0118
-0.0118
-0.0118
-0.0118
-0.0118
-0.0118
-0.0118
-0.0118
-0.012
-0.012
-0.012
-0.012
-0.012
-0.012
-0.012
-0.012
-0.0116
-0.0116
-0.0116
-0.0116
-0.0116
-0.0116
-0.0116
-0.0116
-0.0101
-0.0101
-0.0101
-0.0101
-0.0101
-0.0101
-0.0101
-0.0101
-0.0109
-0.0109
-0.0109
-0.0109
-0.0109
-0.0109
-0.0109
-0.0109
-0.0105
-0.0105
-0.0105
-0.0105
-0.0105
-0.0105
-0.0105
-0.0105
-0.0113
-0.0113
-0.0113
-0.0113
-0.0113
-0.0113
-0.0113
-0.0113
-0.0109
-0.0109
-0.0109
-0.0109
-0.0109
-0.0109
-0.0109
-0.0109
-0.0103
-0.0103
-0.0103
-0.0103
-0.0103
-0.0103
-0.0103
-0.0103
-0.0082
-0.0082
-0.0082
-0.0082
-0.0082
-0.0082
-0.0082
-0.0082
-0.0126
-0.0126
-0.0126
-0.0126
-0.0101
-0.0101
-0.0101
-0.0101
-0.0101
-0.0101
-0.0101
-0.0101
-0.012
-0.012
-0.012
-0.012
-0.012
-0.012
-0.012
-0.012
-0.0111
-0.0111
-0.0111
-0.0111
-0.0111
-0.0111
-0.0111
-0.0111
0.0075
0.0075
0.0075
0.0075
0.0075
0.0075
0.0075
0.0075
-0.0118
-0.0118
-0.0118
-0.0118
-0.0118
-0.0118
-0.0118
-0.0118
-0.0122
-0.0122
-0.0122
-0.0122
-0.0122
-0.0122
-0.0122
-0.0122
0.2983
0.2983
0.2983
0.2983
0.2983
0.2983
0.2983
0.2983
-0.0116
-0.0116
-0.0116
-0.0116
-0.0116
-0.0116
-0.0116
-0.0116
-0.0107
-0.0107
-0.0107
-0.0107
-0.0107
-0.0107
-0.0107
-0.0107
0.2451
0.2451
0.2451
0.2451
0.2451
0.2451
0.2451
0.2451
-0.0111
-0.0111
-0.0111
-0.0111
-0.0111
-0.0111
-0.0111
-0.0111
-0.0107
-0.0107
-0.0107
-0.0107
-0.0107
-0.0107
-0.0107
-0.0107
-0.0098
-0.0098
-0.0098
-0.0098
-0.0107
-0.0107
-0.0107
-0.0107
-0.0107
-0.0107
-0.0107
-0.0107
-0.0113
-0.0113
-0.0113
-0.0113
-0.0113
-0.0113
-0.0113
-0.0113
-0.0107
-0.0107
-0.0107
-0.0107
-0.0107
-0.0107
-0.0107
-0.0107
1.9524
1.9524
1.9524
1.9524
1.9524
1.9524
1.9524
1.9524
-0.0103
-0.0103
-0.0103
-0.0103
-0.0103
-0.0103
-0.0103
-0.0103
-0.0114
-0.0114
-0.0114
-0.0114
-0.0114
-0.0114
-0.0114
-0.0114
-0.0116
-0.0116
-0.0116
-0.0116
-0.0116
-0.0116
-0.0116
-0.0116
-0.0114
-0.0114
-0.0114
-0.0114
-0.0114
-0.0114
-0.0114
-0.0114
-0.0107
-0.0107
-0.0107
-0.0107
-0.0107
-0.0107
-0.0107
-0.0107
-0.0113
-0.0113
-0.0113
-0.0113
-0.0113
-0.0113
-0.0113
-0.0113
-0.0114
-0.0114
-0.0114
-0.0114
-0.0114
-0.0114
-0.0114
-0.0114
-0.0113
-0.0113
-0.0113
-0.0113
-0.0113
-0.0113
-0.0113
-0.0113
-0.012
-0.012
-0.012
-0.012
-0.0116
-0.0116
-0.0116
-0.0116
-0.0116
-0.0116
-0.0116
-0.0116
-0.0113
-0.0113
-0.0113
-0.0113
-0.0113
-0.0113
-0.0113
-0.0113
-0.0103
-0.0103
-0.0103
-0.0103
-0.0103
-0.0103
-0.0103
-0.0103
-0.0017
-0.0017
-0.0017
-0.0017
-0.0017
-0.0017
-0.0017
-0.0017
-0.0111
-0.0111
-0.0111
-0.0111
-0.0111
-0.0111
-0.0111
-0.0111
-0.0098
-0.0098
-0.0098
-0.0098
-0.0098
-0.0098
-0.0098
-0.0098
-0.0122
-0.0122
-0.0122
-0.0122
-0.0122
-0.0122
-0.0122
-0.0122
-0.0103
-0.0103
-0.0103
-0.0103
-0.0103
-0.0103
-0.0103
-0.0103
-0.0109
-0.0109
-0.0109
-0.0109
-0.0109
-0.0109
-0.0109
-0.0109
0.0861
0.0861
0.0861
0.0861
0.0861
0.0861
0.0861
0.0861
-0.0105
-0.0105
-0.0105
-0.0105
-0.0105
-0.0105
-0.0105
-0.0105
-0.0116
-0.0116
-0.0116
-0.0116
-0.0116
-0.0116
-0.0116
-0.0116
0.0251
0.0251
0.0251
0.0251
-0.0099
-0.0099
-0.0099
-0.0099
-0.0099
-0.0099
-0.0099
-0.0099
-0.0111
-0.0111
-0.0111
-0.0111
-0.0111
-0.0111
-0.0111
-0.0111
-0.0113
-0.0113
-0.0113
-0.0113
-0.0113
-0.0113
-0.0113
-0.0113
-0.0109
-0.0109
-0.0109
-0.0109
-0.0109
-0.0109
-0.0109
-0.0109
-0.0114
-0.0114
-0.0114
-0.0114
-0.0114
-0.0114
-0.0114
-0.0114
-0.0111
-0.0111
-0.0111
-0.0111
-0.0111
-0.0111
-0.0111
-0.0111
-0.0118
-0.0118
-0.0118
-0.0118
-0.0118
-0.0118
-0.0118
-0.0118
-0.0107
-0.0107
-0.0107
-0.0107
-0.0107
-0.0107
-0.0107
-0.0107
-0.0103
-0.0103
-0.0103
-0.0103
-0.0103
-0.0103
-0.0103
-0.0103
-0.0114
-0.0114
-0.0114
-0.0114
-0.0114
-0.0114
-0.0114
-0.0114
-0.0109
-0.0109
-0.0109
-0.0109
-0.0109
-0.0109
-0.0109
-0.0109
-0.0118
-0.0118
-0.0118
-0.0118
-0.0118
-0.0118
-0.0118
-0.0118
-0.0113
-0.0113
-0.0113
-0.0113
-0.0105
-0.0105
-0.0105
-0.0105
-0.0105
-0.0105
-0.0105
-0.0105
0.0053
0.0053
0.0053
0.0053
0.0053
0.0053
0.0053
0.0053
-0.0103
-0.0103
-0.0103
-0.0103
-0.0103
-0.0103
-0.0103
-0.0103
-0.0114
-0.0114
-0.0114
-0.0114
-0.0114
-0.0114
-0.0114
-0.0114
0.0026
0.0026
0.0026
0.0026
0.0026
0.0026
0.0026
0.0026
-0.0127
-0.0127
-0.0127
-0.0127
-0.0127
-0.0127
-0.0127
-0.0127
-0.0111
-0.0111
-0.0111
-0.0111
-0.0111
-0.0111
-0.0111
-0.0111
-0.0038
-0.0038
-0.0038
-0.0038
-0.0038
-0.0038
-0.0038
-0.0038
-0.0114
-0.0114
-0.0114
-0.0114
-0.0114
-0.0114
-0.0114
-0.0114
-0.009
-0.009
-0.009
-0.009
-0.009
-0.009
-0.009
-0.009
-0.0081
-0.0081
-0.0081
-0.0081
-0.0081
-0.0081
-0.0081
-0.0081
-0.0118
-0.0118
-0.0118
-0.0118
-0.0118
-0.0118
-0.0118
-0.0118
-0.0024
-0.0024
-0.0024
-0.0024
-0.0088
-0.0088
-0.0088
-0.0088
-0.0088
-0.0088
-0.0088
-0.0088
0.8886
0.8886
0.8886
0.8886
0.8886
0.8886
0.8886
0.8886
-0.012
-0.012
-0.012
-0.012
-0.012
-0.012
-0.012
-0.012
-0.0118
-0.0118
-0.0118
-0.0118
-0.0118
-0.0118
-0.0118
-0.0118
0.2008
0.2008
0.2008
0.2008
0.2008
0.2008
0.2008
0.2008
-0.0122
-0.0122
-0.0122
-0.0122
-0.0122
-0.0122
-0.0122
-0.0122
-0.0107
-0.0107
-0.0107
-0.0107
-0.0107
-0.0107
-0.0107
-0.0107
0.0681
0.0681
0.0681
0.0681
0.0681
0.0681
0.0681
0.0681
-0.0109
-0.0109
-0.0109
-0.0109
-0.0109
-0.0109
-0.0109
-0.0109
-0.0122
-0.0122
-0.0122
-0.0122
-0.0122
-0.0122
-0.0122
-0.0122
0.0362
0.0362
0.0362
0.0362
0.0362
0.0362
0.0362
0.0362
-0.012
-0.012
-0.012
-0.012
-0.012
-0.012
-0.012
-0.012
-0.0126
-0.0126
-0.0126
-0.0126
-0.0092
-0.0092
-0.0092
-0.0092
-0.0092
-0.0092
-0.0092
-0.0092
-0.0122
-0.0122
-0.0122
-0.0122
-0.0122
-0.0122
-0.0122
-0.0122
-0.0099
-0.0099
-0.0099
-0.0099
-0.0099
-0.0099
-0.0099
-0.0099
-0.0114
-0.0114
-0.0114
-0.0114
-0.0114
-0.0114
-0.0114
-0.0114
-0.0107
-0.0107
-0.0107
-0.0107
-0.0107
-0.0107
-0.0107
-0.0107
-0.0116
-0.0116
-0.0116
-0.0116
-0.0116
-0.0116
-0.0116
-0.0116
-0.0114
-0.0114
-0.0114
-0.0114
-0.0114
-0.0114
-0.0114
-0.0114
-0.0077
-0.0077
-0.0077
-0.0077
-0.0077
-0.0077
-0.0077
-0.0077
-0.0116
-0.0116
-0.0116
-0.0116
-0.0116
-0.0116
-0.0116
-0.0116
-0.0109
-0.0109
-0.0109
-0.0109
-0.0109
-0.0109
-0.0109
-0.0109
-0.0107
-0.0107
-0.0107
-0.0107
-0.0107
-0.0107
-0.0107
-0.0107
-0.0099
-0.0099
-0.0099
-0.0099
-0.0099
-0.0099
-0.0099
-0.0099
-0.0103
-0.0103
-0.0103
-0.0103
-0.0098
-0.0098
-0.0098
-0.0098
-0.0098
-0.0098
-0.0098
-0.0098
2.4681
2.4681
2.4681
2.4681
2.4681
2.4681
2.4681
2.4681
-0.0103
-0.0103
-0.0103
-0.0103
-0.0103
-0.0103
-0.0103
-0.0103
-0.0122
-0.0122
-0.0122
-0.0122
-0.0122
-0.0122
-0.0122
-0.0122
0.0726
0.0726
0.0726
0.0726
0.0726
0.0726
0.0726
0.0726
-0.0113
-0.0113
-0.0113
-0.0113
-0.0113
-0.0113
-0.0113
-0.0113
-0.0113
-0.0113
-0.0113
-0.0113
-0.0113
-0.0113
-0.0113
-0.0113
-0.0096
-0.0096
-0.0096
-0.0096
-0.0096
-0.0096
-0.0096
-0.0096
-0.0105
-0.0105
-0.0105
-0.0105
-0.0105
-0.0105
-0.0105
-0.0105
-0.0114
-0.0114
-0.0114
-0.0114
-0.0114
-0.0114
-0.0114
-0.0114
-0.012
-0.012
-0.012
-0.012
-0.012
-0.012
-0.012
-0.012
-0.0105
-0.0105
-0.0105
-0.0105
-0.0105
-0.0105
-0.0105
-0.0105
-0.0105
-0.0105
-0.0105
-0.0105
-0.0103
-0.0103
-0.0103
-0.0103
-0.0103
-0.0103
-0.0103
-0.0103
-0.0107
-0.0107
-0.0107
-0.0107
-0.0107
-0.0107
-0.0107
-0.0107
-0.0109
-0.0109
-0.0109
-0.0109
-0.0109
-0.0109
-0.0109
-0.0109
-0.0124
-0.0124
-0.0124
-0.0124
-0.0124
-0.0124
-0.0124
-0.0124
-0.0103
-0.0103
-0.0103
-0.0103
-0.0103
-0.0103
-0.0103
-0.0103
-0.0111
-0.0111
-0.0111
-0.0111
-0.0111
-0.0111
-0.0111
-0.0111
-0.0103
-0.0103
-0.0103
-0.0103
-0.0103
-0.0103
-0.0103
-0.0103
-0.0109
-0.0109
-0.0109
-0.0109
-0.0109
-0.0109
-0.0109
-0.0109
-0.0105
-0.0105
-0.0105
-0.0105
-0.0105
-0.0105
-0.0105
-0.0105
-0.0118
-0.0118
-0.0118
-0.0118
-0.0118
-0.0118
-0.0118
-0.0118
-0.0113
-0.0113
-0.0113
-0.0113
-0.0113
-0.0113
-0.0113
-0.0113
-0.0113
-0.0113
-0.0113
-0.0113
-0.0113
-0.0113
-0.0113
-0.0113
-0.0116
-0.0116
-0.0116
-0.0116
-0.0109
-0.0109
-0.0109
-0.0109
-0.0109
-0.0109
-0.0109
-0.0109
-0.0114
-0.0114
-0.0114
-0.0114
-0.0114
-0.0114
-0.0114
-0.0114
-0.0103
-0.0103
-0.0103
-0.0103
-0.0103
-0.0103
-0.0103
-0.0103
-0.0124
-0.0124
-0.0124
-0.0124
-0.0124
-0.0124
-0.0124
-0.0124
-0.0109
-0.0109
-0.0109
-0.0109
-0.0109
-0.0109
-0.0109
-0.0109
-0.0118
-0.0118
-0.0118
-0.0118
-0.0118
-0.0118
-0.0118
-0.0118
-0.0107
-0.0107
-0.0107
-0.0107
-0.0107
-0.0107
-0.0107
-0.0107
-0.0094
-0.0094
-0.0094
-0.0094
-0.0094
-0.0094
-0.0094
-0.0094
-0.012
-0.012
-0.012
-0.012
-0.012
-0.012
-0.012
-0.012
-0.0109
-0.0109
-0.0109
-0.0109
-0.0109
-0.0109
-0.0109
-0.0109
-0.0113
-0.0113
-0.0113
-0.0113
-0.0113
-0.0113
-0.0113
-0.0113
-0.0116
-0.0116
-0.0116
-0.0116
-0.0116
-0.0116
-0.0116
-0.0116
-0.0116
-0.0116
-0.0116
-0.0116
-0.0101
-0.0101
-0.0101
-0.0101
-0.0101
-0.0101
-0.0101
-0.0101
-0.0105
-0.0105
-0.0105
-0.0105
-0.0105
-0.0105
-0.0105
-0.0105
-0.0124
-0.0124
-0.0124
-0.0124
-0.0124
-0.0124
-0.0124
-0.0124
-0.0105
-0.0105
-0.0105
-0.0105
-0.0105
-0.0105
-0.0105
-0.0105
-0.0114
-0.0114
-0.0114
-0.0114
-0.0114
-0.0114
-0.0114
-0.0114
-0.0105
-0.0105
-0.0105
-0.0105
-0.0105
-0.0105
-0.0105
-0.0105
-0.0113
-0.0113
-0.0113
-0.0113
-0.0113
-0.0113
-0.0113
-0.0113
-0.0111
-0.0111
-0.0111
-0.0111
-0.0111
-0.0111
-0.0111
-0.0111
-0.0114
-0.0114
-0.0114
-0.0114
-0.0114
-0.0114
-0.0114
-0.0114
-0.0111
-0.0111
-0.0111
-0.0111
-0.0111
-0.0111
-0.0111
-0.0111
-0.0113
-0.0113
-0.0113
-0.0113
-0.0113
-0.0113
-0.0113
-0.0113
-0.0107
-0.0107
-0.0107
-0.0107
-0.0107
-0.0107
-0.0107
-0.0107
-0.0098
-0.0098
-0.0098
-0.0098
-0.0107
-0.0107
-0.0107
-0.0107
-0.0107
-0.0107
-0.0107
-0.0107
-0.0113
-0.0113
-0.0113
-0.0113
-0.0113
-0.0113
-0.0113
-0.0113
-0.0116
-0.0116
-0.0116
-0.0116
-0.0116
-0.0116
-0.0116
-0.0116
-0.0111
-0.0111
-0.0111
-0.0111
-0.0111
-0.0111
-0.0111
-0.0111
-0.0096
-0.0096
-0.0096
-0.0096
-0.0096
-0.0096
-0.0096
-0.0096
-0.0109
-0.0109
-0.0109
-0.0109
-0.0109
-0.0109
-0.0109
-0.0109
-0.0107
-0.0107
-0.0107
-0.0107
-0.0107
-0.0107
-0.0107
-0.0107
-0.0116
-0.0116
-0.0116
-0.0116
-0.0116
-0.0116
-0.0116
-0.0116
-0.0107
-0.0107
-0.0107
-0.0107
-0.0107
-0.0107
-0.0107
-0.0107
-0.0118
-0.0118
-0.0118
-0.0118
-0.0118
-0.0118
-0.0118
-0.0118
-0.0113
-0.0113
-0.0113
-0.0113
-0.0113
-0.0113
-0.0113
-0.0113
-0.0116
-0.0116
-0.0116
-0.0116
-0.0116
-0.0116
-0.0116
-0.0116
-0.0116
-0.0116
-0.0116
-0.0116
-0.0098
-0.0098
-0.0098
-0.0098
-0.0098
-0.0098
-0.0098
-0.0098
-0.0113
-0.0113
-0.0113
-0.0113
-0.0113
-0.0113
-0.0113
-0.0113
-0.0114
-0.0114
-0.0114
-0.0114
-0.0114
-0.0114
-0.0114
-0.0114
-0.0113
-0.0113
-0.0113
-0.0113
-0.0113
-0.0113
-0.0113
-0.0113
-0.0114
-0.0114
-0.0114
-0.0114
-0.0114
-0.0114
-0.0114
-0.0114
-0.0103
-0.0103
-0.0103
-0.0103
-0.0103
-0.0103
-0.0103
-0.0103
-0.0111
-0.0111
-0.0111
-0.0111
-0.0111
-0.0111
-0.0111
-0.0111
-0.0105
-0.0105
-0.0105
-0.0105
-0.0105
-0.0105
-0.0105
-0.0105
-0.0116
-0.0116
-0.0116
-0.0116
-0.0116
-0.0116
-0.0116
-0.0116
-0.0113
-0.0113
-0.0113
-0.0113
-0.0113
-0.0113
-0.0113
-0.0113
-0.0114
-0.0114
-0.0114
-0.0114
-0.0114
-0.0114
-0.0114
-0.0114
-0.0111
-0.0111
-0.0111
-0.0111
-0.0111
-0.0111
-0.0111
-0.0111
-0.0103
-0.0103
-0.0103
-0.0103
-0.0107
-0.0107
-0.0107
-0.0107
-0.0107
-0.0107
-0.0107
-0.0107
-0.0101
-0.0101
-0.0101
-0.0101
-0.0101
-0.0101
-0.0101
-0.0101
-0.0113
-0.0113
-0.0113
-0.0113
-0.0113
-0.0113
-0.0113
-0.0113
-0.0113
-0.0113
-0.0113
-0.0113
-0.0113
-0.0113
-0.0113
-0.0113
-0.0113
-0.0113
-0.0113
-0.0113
-0.0113
-0.0113
-0.0113
-0.0113
-0.0096
-0.0096
-0.0096
-0.0096
-0.0096
-0.0096
-0.0096
-0.0096
-0.0116
-0.0116
-0.0116
-0.0116
-0.0116
-0.0116
-0.0116
-0.0116
-0.0126
-0.0126
-0.0126
-0.0126
-0.0126
-0.0126
-0.0126
-0.0126
-0.0114
-0.0114
-0.0114
-0.0114
-0.0114
-0.0114
-0.0114
-0.0114
-0.0116
-0.0116
-0.0116
-0.0116
-0.0116
-0.0116
-0.0116
-0.0116
-0.0111
-0.0111
-0.0111
-0.0111
-0.0111
-0.0111
-0.0111
-0.0111
-0.0113
-0.0113
-0.0113
-0.0113
-0.0113
-0.0113
-0.0113
-0.0113
-0.0114
-0.0114
-0.0114
-0.0114
-0.0113
-0.0113
-0.0113
-0.0113
-0.0113
-0.0113
-0.0113
-0.0113
-0.0122
-0.0122
-0.0122
-0.0122
-0.0122
-0.0122
-0.0122
-0.0122
-0.0101
-0.0101
-0.0101
-0.0101
-0.0101
-0.0101
-0.0101
-0.0101
-0.0105
-0.0105
-0.0105
-0.0105
-0.0105
-0.0105
-0.0105
-0.0105
0.0497
0.0497
0.0497
0.0497
0.0497
0.0497
0.0497
0.0497
-0.0127
-0.0127
-0.0127
-0.0127
-0.0127
-0.0127
-0.0127
-0.0127
-0.0111
-0.0111
-0.0111
-0.0111
-0.0111
-0.0111
-0.0111
-0.0111
0.0233
0.0233
0.0233
0.0233
0.0233
0.0233
0.0233
0.0233
-0.0118
-0.0118
-0.0118
-0.0118
-0.0118
-0.0118
-0.0118
-0.0118
-0.0122
-0.0122
-0.0122
-0.0122
-0.0122
-0.0122
-0.0122
-0.0122
-0.0116
-0.0116
-0.0116
-0.0116
-0.0116
-0.0116
-0.0116
-0.0116
-0.0109
-0.0109
-0.0109
-0.0109
-0.0109
-0.0109
-0.0109
-0.0109
-0.0111
-0.0111
-0.0111
-0.0111
-0.0101
-0.0101
-0.0101
-0.0101
-0.0101
-0.0101
-0.0101
-0.0101
-0.0111
-0.0111
-0.0111
-0.0111
-0.0111
-0.0111
-0.0111
-0.0111
-0.0111
-0.0111
-0.0111
-0.0111
-0.0111
-0.0111
-0.0111
-0.0111
-0.0118
-0.0118
-0.0118
-0.0118
-0.0118
-0.0118
-0.0118
-0.0118
-0.0118
-0.0118
-0.0118
-0.0118
-0.0118
-0.0118
-0.0118
-0.0118
-0.0113
-0.0113
-0.0113
-0.0113
-0.0113
-0.0113
-0.0113
-0.0113
-0.0111
-0.0111
-0.0111
-0.0111
-0.0111
-0.0111
-0.0111
-0.0111
-0.0114
-0.0114
-0.0114
-0.0114
-0.0114
-0.0114
-0.0114
-0.0114
-0.0111
-0.0111
-0.0111
-0.0111
-0.0111
-0.0111
-0.0111
-0.0111
-0.0114
-0.0114
-0.0114
-0.0114
-0.0114
-0.0114
-0.0114
-0.0114
-0.0107
-0.0107
-0.0107
-0.0107
-0.0107
-0.0107
-0.0107
-0.0107
-0.0101
-0.0101
-0.0101
-0.0101
-0.0101
-0.0101
-0.0101
-0.0101
-0.0105
-0.0105
-0.0105
-0.0105
-0.0107
-0.0107
-0.0107
-0.0107
-0.0107
-0.0107
-0.0107
-0.0107
-0.0105
-0.0105
-0.0105
-0.0105
-0.0105
-0.0105
-0.0105
-0.0105
-0.0122
-0.0122
-0.0122
-0.0122
-0.0122
-0.0122
-0.0122
-0.0122
-0.0118
-0.0118
-0.0118
-0.0118
-0.0118
-0.0118
-0.0118
-0.0118
-0.0126
-0.0126
-0.0126
-0.0126
-0.0126
-0.0126
-0.0126
-0.0126
-0.0114
-0.0114
-0.0114
-0.0114
-0.0114
-0.0114
-0.0114
-0.0114
-0.0103
-0.0103
-0.0103
-0.0103
-0.0103
-0.0103
-0.0103
-0.0103
-0.0103
-0.0103
-0.0103
-0.0103
-0.0103
-0.0103
-0.0103
-0.0103
-0.0116
-0.0116
-0.0116
-0.0116
-0.0116
-0.0116
-0.0116
-0.0116
-0.0113
-0.0113
-0.0113
-0.0113
-0.0113
-0.0113
-0.0113
-0.0113
-0.0114
-0.0114
-0.0114
-0.0114
-0.0114
-0.0114
-0.0114
-0.0114
-0.0111
-0.0111
-0.0111
-0.0111
-0.0111
-0.0111
-0.0111
-0.0111
-0.012
-0.012
-0.012
-0.012
-0.0099
-0.0099
-0.0099
-0.0099
-0.0099
-0.0099
-0.0099
-0.0099
-0.0107
-0.0107
-0.0107
-0.0107
-0.0107
-0.0107
-0.0107
-0.0107
-0.0099
-0.0099
-0.0099
-0.0099
-0.0099
-0.0099
-0.0099
-0.0099
-0.0109
-0.0109
-0.0109
-0.0109
-0.0109
-0.0109
-0.0109
-0.0109
-0.0113
-0.0113
-0.0113
-0.0113
-0.0113
-0.0113
-0.0113
-0.0113
-0.0111
-0.0111
-0.0111
-0.0111
-0.0111
-0.0111
-0.0111
-0.0111
-0.012
-0.012
-0.012
-0.012
-0.012
-0.012
-0.012
-0.012
-0.0111
-0.0111
-0.0111
-0.0111
-0.0111
-0.0111
-0.0111
-0.0111
-0.0105
-0.0105
-0.0105
-0.0105
-0.0105
-0.0105
-0.0105
-0.0105
-0.0114
-0.0114
-0.0114
-0.0114
-0.0114
-0.0114
-0.0114
-0.0114
-0.0113
-0.0113
-0.0113
-0.0113
-0.0113
-0.0113
-0.0113
-0.0113
-0.0122
-0.0122
-0.0122
-0.0122
-0.0122
-0.0122
-0.0122
-0.0122
-0.0105
-0.0105
-0.0105
-0.0105
-0.0099
-0.0099
-0.0099
-0.0099
-0.0099
-0.0099
-0.0099
-0.0099
-0.0111
-0.0111
-0.0111
-0.0111
-0.0111
-0.0111
-0.0111
-0.0111
-0.0094
-0.0094
-0.0094
-0.0094
-0.0094
-0.0094
-0.0094
-0.0094
-0.0111
-0.0111
-0.0111
-0.0111
-0.0111
-0.0111
-0.0111
-0.0111
-0.0103
-0.0103
-0.0103
-0.0103
-0.0103
-0.0103
-0.0103
-0.0103
-0.0105
-0.0105
-0.0105
-0.0105
-0.0105
-0.0105
-0.0105
-0.0105
-0.0113
-0.0113
-0.0113
-0.0113
-0.0113
-0.0113
-0.0113
-0.0113
-0.0124
-0.0124
-0.0124
-0.0124
-0.0124
-0.0124
-0.0124
-0.0124
-0.0113
-0.0113
-0.0113
-0.0113
-0.0113
-0.0113
-0.0113
-0.0113
-0.0109
-0.0109
-0.0109
-0.0109
-0.0109
-0.0109
-0.0109
-0.0109
-0.0114
-0.0114
-0.0114
-0.0114
-0.0114
-0.0114
-0.0114
-0.0114
-0.012
-0.012
-0.012
-0.012
-0.012
-0.012
-0.012
-0.012
-0.0114
-0.0114
-0.0114
-0.0114
-0.0109
-0.0109
-0.0109
-0.0109
-0.0109
-0.0109
-0.0109
-0.0109
-0.0109
-0.0109
-0.0109
-0.0109
-0.0109
-0.0109
-0.0109
-0.0109
-0.012
-0.012
-0.012
-0.012
-0.012
-0.012
-0.012
-0.012
-0.0105
-0.0105
-0.0105
-0.0105
-0.0105
-0.0105
-0.0105
-0.0105
-0.0122
-0.0122
-0.0122
-0.0122
-0.0122
-0.0122
-0.0122
-0.0122
-0.0105
-0.0105
-0.0105
-0.0105
-0.0105
-0.0105
-0.0105
-0.0105
-0.0118
-0.0118
-0.0118
-0.0118
-0.0118
-0.0118
-0.0118
-0.0118
-0.0114
-0.0114
-0.0114
-0.0114
-0.0114
-0.0114
-0.0114
-0.0114
-0.0116
-0.0116
-0.0116
-0.0116
-0.0116
-0.0116
-0.0116
-0.0116
-0.0107
-0.0107
-0.0107
-0.0107
-0.0107
-0.0107
-0.0107
-0.0107
-0.0109
-0.0109
-0.0109
-0.0109
-0.0109
-0.0109
-0.0109
-0.0109
-0.0105
-0.0105
-0.0105
-0.0105
-0.0105
-0.0105
-0.0105
-0.0105
-0.0127
-0.0127
-0.0127
-0.0127
-0.0103
-0.0103
-0.0103
-0.0103
-0.0103
-0.0103
-0.0103
-0.0103
-0.0124
-0.0124
-0.0124
-0.0124
-0.0124
-0.0124
-0.0124
-0.0124
-0.0114
-0.0114
-0.0114
-0.0114
-0.0114
-0.0114
-0.0114
-0.0114
-0.0105
-0.0105
-0.0105
-0.0105
-0.0105
-0.0105
-0.0105
-0.0105
-0.0111
-0.0111
-0.0111
-0.0111
-0.0111
-0.0111
-0.0111
-0.0111
-0.0116
-0.0116
-0.0116
-0.0116
-0.0116
-0.0116
-0.0116
-0.0116
-0.012
-0.012
-0.012
-0.012
-0.012
-0.012
-0.012
-0.012
-0.0109
-0.0109
-0.0109
-0.0109
-0.0109
-0.0109
-0.0109
-0.0109
-0.0099
-0.0099
-0.0099
-0.0099
-0.0099
-0.0099
-0.0099
-0.0099
-0.0113
-0.0113
-0.0113
-0.0113
-0.0113
-0.0113
-0.0113
-0.0113
-0.0111
-0.0111
-0.0111
-0.0111
-0.0111
-0.0111
-0.0111
-0.0111
-0.0111
-0.0111
-0.0111
-0.0111
-0.0111
-0.0111
-0.0111
-0.0111
-0.0098
-0.0098
-0.0098
-0.0098
-0.0101
-0.0101
-0.0101
-0.0101
-0.0101
-0.0101
-0.0101
-0.0101
-0.0107
-0.0107
-0.0107
-0.0107
-0.0107
-0.0107
-0.0107
-0.0107
-0.0107
-0.0107
-0.0107
-0.0107
-0.0107
-0.0107
-0.0107
-0.0107
-0.0116
-0.0116
-0.0116
-0.0116
-0.0116
-0.0116
-0.0116
-0.0116
-0.0114
-0.0114
-0.0114
-0.0114
-0.0114
-0.0114
-0.0114
-0.0114
-0.0124
-0.0124
-0.0124
-0.0124
-0.0124
-0.0124
-0.0124
-0.0124
-0.012
-0.012
-0.012
-0.012
-0.012
-0.012
-0.012
-0.012
-0.0114
-0.0114
-0.0114
-0.0114
-0.0114
-0.0114
-0.0114
-0.0114
-0.0109
-0.0109
-0.0109
-0.0109
-0.0109
-0.0109
-0.0109
-0.0109
-0.0114
-0.0114
-0.0114
-0.0114
-0.0114
-0.0114
-0.0114
-0.0114
-0.0111
-0.0111
-0.0111
-0.0111
-0.0111
-0.0111
-0.0111
-0.0111
-0.0107
-0.0107
-0.0107
-0.0107
-0.0107
-0.0107
-0.0107
-0.0107
-0.0113
-0.0113
-0.0113
-0.0113
-0.0107
-0.0107
-0.0107
-0.0107
-0.0107
-0.0107
-0.0107
-0.0107
-0.012
-0.012
-0.012
-0.012
-0.012
-0.012
-0.012
-0.012
-0.0113
-0.0113
-0.0113
-0.0113
-0.0113
-0.0113
-0.0113
-0.0113
-0.0113
-0.0113
-0.0113
-0.0113
-0.0113
-0.0113
-0.0113
-0.0113
-0.0107
-0.0107
-0.0107
-0.0107
-0.0107
-0.0107
-0.0107
-0.0107
-0.0113
-0.0113
-0.0113
-0.0113
-0.0113
-0.0113
-0.0113
-0.0113
-0.0111
-0.0111
-0.0111
-0.0111
-0.0111
-0.0111
-0.0111
-0.0111
-0.0099
-0.0099
-0.0099
-0.0099
-0.0099
-0.0099
-0.0099
-0.0099
-0.0105
-0.0105
-0.0105
-0.0105
-0.0105
-0.0105
-0.0105
-0.0105
-0.0116
-0.0116
-0.0116
-0.0116
-0.0116
-0.0116
-0.0116
-0.0116
-0.0109
-0.0109
-0.0109
-0.0109
-0.0109
-0.0109
-0.0109
-0.0109
-0.0114
-0.0114
-0.0114
-0.0114
-0.0114
-0.0114
-0.0114
-0.0114
-0.0113
-0.0113
-0.0113
-0.0113
-0.0113
-0.0113
-0.0113
-0.0113
-0.0113
-0.0113
-0.0113
-0.0113
-0.0111
-0.0111
-0.0111
-0.0111
-0.0111
-0.0111
-0.0111
-0.0111
-0.0109
-0.0109
-0.0109
-0.0109
-0.0109
-0.0109
-0.0109
-0.0109
-0.0107
-0.0107
-0.0107
-0.0107
-0.0107
-0.0107
-0.0107
-0.0107
-0.0105
-0.0105
-0.0105
-0.0105
-0.0105
-0.0105
-0.0105
-0.0105
-0.012
-0.012
-0.012
-0.012
-0.012
-0.012
-0.012
-0.012
-0.0105
-0.0105
-0.0105
-0.0105
-0.0105
-0.0105
-0.0105
-0.0105
-0.0105
-0.0105
-0.0105
-0.0105
-0.0105
-0.0105
-0.0105
-0.0105
-0.0111
-0.0111
-0.0111
-0.0111
-0.0111
-0.0111
-0.0111
-0.0111
-0.0105
-0.0105
-0.0105
-0.0105
-0.0105
-0.0105
-0.0105
-0.0105
-0.0114
-0.0114
-0.0114
-0.0114
-0.0114
-0.0114
-0.0114
-0.0114
-0.0107
-0.0107
-0.0107
-0.0107
-0.0107
-0.0107
-0.0107
-0.0107
-0.0114
-0.0114
-0.0114
-0.0114
-0.0092
-0.0092
-0.0092
-0.0092
-0.0092
-0.0092
-0.0092
-0.0092
-0.0105
-0.0105
-0.0105
-0.0105
-0.0105
-0.0105
-0.0105
-0.0105
-0.0109
-0.0109
-0.0109
-0.0109
-0.0109
-0.0109
-0.0109
-0.0109
-0.0114
-0.0114
-0.0114
-0.0114
-0.0114
-0.0114
-0.0114
-0.0114
-0.0111
-0.0111
-0.0111
-0.0111
-0.0111
-0.0111
-0.0111
-0.0111
-0.0105
-0.0105
-0.0105
-0.0105
-0.0105
-0.0105
-0.0105
-0.0105
-0.0113
-0.0113
-0.0113
-0.0113
-0.0113
-0.0113
-0.0113
-0.0113
-0.0111
-0.0111
-0.0111
-0.0111
-0.0111
-0.0111
-0.0111
-0.0111
-0.0116
-0.0116
-0.0116
-0.0116
-0.0116
-0.0116
-0.0116
-0.0116
-0.0124
-0.0124
-0.0124
-0.0124
-0.0124
-0.0124
-0.0124
-0.0124
-0.0109
-0.0109
-0.0109
-0.0109
-0.0109
-0.0109
-0.0109
-0.0109
-0.0101
-0.0101
-0.0101
-0.0101
-0.0101
-0.0101
-0.0101
-0.0101
-0.0111
-0.0111
-0.0111
-0.0111
-0.0101
-0.0101
-0.0101
-0.0101
-0.0101
-0.0101
-0.0101
-0.0101
-0.0105
-0.0105
-0.0105
-0.0105
-0.0105
-0.0105
-0.0105
-0.0105
-0.0118
-0.0118
-0.0118
-0.0118
-0.0118
-0.0118
-0.0118
-0.0118
-0.0107
-0.0107
-0.0107
-0.0107
-0.0107
-0.0107
-0.0107
-0.0107
-0.0113
-0.0113
-0.0113
-0.0113
-0.0113
-0.0113
-0.0113
-0.0113
-0.0107
-0.0107
-0.0107
-0.0107
-0.0107
-0.0107
-0.0107
-0.0107
-0.0105
-0.0105
-0.0105
-0.0105
-0.0105
-0.0105
-0.0105
-0.0105
-0.0124
-0.0124
-0.0124
-0.0124
-0.0124
-0.0124
-0.0124
-0.0124
-0.0113
-0.0113
-0.0113
-0.0113
-0.0113
-0.0113
-0.0113
-0.0113
-0.0113
-0.0113
-0.0113
-0.0113
-0.0113
-0.0113
-0.0113
-0.0113
-0.0105
-0.0105
-0.0105
-0.0105
-0.0105
-0.0105
-0.0105
-0.0105
-0.0107
-0.0107
-0.0107
-0.0107
-0.0107
-0.0107
-0.0107
-0.0107
-0.0105
-0.0105
-0.0105
-0.0105
-0.0101
-0.0101
-0.0101
-0.0101
-0.0101
-0.0101
-0.0101
-0.0101
-0.0114
-0.0114
-0.0114
-0.0114
-0.0114
-0.0114
-0.0114
-0.0114
-0.0111
-0.0111
-0.0111
-0.0111
-0.0111
-0.0111
-0.0111
-0.0111
-0.0092
-0.0092
-0.0092
-0.0092
-0.0092
-0.0092
-0.0092
-0.0092
-0.0111
-0.0111
-0.0111
-0.0111
-0.0111
-0.0111
-0.0111
-0.0111
-0.0105
-0.0105
-0.0105
-0.0105
-0.0105
-0.0105
-0.0105
-0.0105
-0.0116
-0.0116
-0.0116
-0.0116
-0.0116
-0.0116
-0.0116
-0.0116
-0.0105
-0.0105
-0.0105
-0.0105
-0.0105
-0.0105
-0.0105
-0.0105
-0.0118
-0.0118
-0.0118
-0.0118
-0.0118
-0.0118
-0.0118
-0.0118
-0.0116
-0.0116
-0.0116
-0.0116
-0.0116
-0.0116
-0.0116
-0.0116
-0.0118
-0.0118
-0.0118
-0.0118
-0.0118
-0.0118
-0.0118
-0.0118
-0.0113
-0.0113
-0.0113
-0.0113
-0.0113
-0.0113
-0.0113
-0.0113
-0.0101
-0.0101
-0.0101
-0.0101
-0.0105
-0.0105
-0.0105
-0.0105
-0.0105
-0.0105
-0.0105
-0.0105
-0.0103
-0.0103
-0.0103
-0.0103
-0.0103
-0.0103
-0.0103
-0.0103
-0.0105
-0.0105
-0.0105
-0.0105
-0.0105
-0.0105
-0.0105
-0.0105
-0.0107
-0.0107
-0.0107
-0.0107
-0.0107
-0.0107
-0.0107
-0.0107
-0.0086
-0.0086
-0.0086
-0.0086
-0.0086
-0.0086
-0.0086
-0.0086
-0.0111
-0.0111
-0.0111
-0.0111
-0.0111
-0.0111
-0.0111
-0.0111
-0.0114
-0.0114
-0.0114
-0.0114
-0.0114
-0.0114
-0.0114
-0.0114
-0.0066
-0.0066
-0.0066
-0.0066
-0.0066
-0.0066
-0.0066
-0.0066
-0.0114
-0.0114
-0.0114
-0.0114
-0.0114
-0.0114
-0.0114
-0.0114
-0.0101
-0.0101
-0.0101
-0.0101
-0.0101
-0.0101
-0.0101
-0.0101
-0.0114
-0.0114
-0.0114
-0.0114
-0.0114
-0.0114
-0.0114
-0.0114
-0.0105
-0.0105
-0.0105
-0.0105
-0.0105
-0.0105
-0.0105
-0.0105
-0.0107
-0.0107
-0.0107
-0.0107
-0.0109
-0.0109
-0.0109
-0.0109
-0.0109
-0.0109
-0.0109
-0.0109
-0.012
-0.012
-0.012
-0.012
-0.012
-0.012
-0.012
-0.012
-0.0118
-0.0118
-0.0118
-0.0118
-0.0118
-0.0118
-0.0118
-0.0118
-0.0105
-0.0105
-0.0105
-0.0105
-0.0105
-0.0105
-0.0105
-0.0105
-0.0116
-0.0116
-0.0116
-0.0116
-0.0116
-0.0116
-0.0116
-0.0116
-0.0105
-0.0105
-0.0105
-0.0105
-0.0103
-0.0103
-0.0103
-0.0103
-0.0103
-0.0103
-0.0103
-0.0103
-0.0118
-0.0118
-0.0118
-0.0118
-0.0118
-0.0118
-0.0118
-0.0118
-0.0101
-0.0101
-0.0101
-0.0101
-0.0101
-0.0101
-0.0101
-0.0101
-0.0113
-0.0113
-0.0113
-0.0113
-0.0113
-0.0113
-0.0113
-0.0113
-0.0111
-0.0111
-0.0111
-0.0111
-0.0111
-0.0111
-0.0111
-0.0111
-0.0101
-0.0101
-0.0101
-0.0101
-0.0101
-0.0101
-0.0101
-0.0101
-0.0099
-0.0099
-0.0099
-0.0099
-0.0099
-0.0099
-0.0099
-0.0099
-0.0116
-0.0116
-0.0116
-0.0116
-0.0116
-0.0116
-0.0116
-0.0116
-0.0116
-0.0116
-0.0116
-0.0116
-0.0116
-0.0116
-0.0116
-0.0116
-0.0114
-0.0114
-0.0114
-0.0114
-0.0114
-0.0114
-0.0114
-0.0114
-0.0109
-0.0109
-0.0109
-0.0109
-0.0109
-0.0109
-0.0109
-0.0109
-0.0109
-0.0109
-0.0109
-0.0109
-0.0109
-0.0109
-0.0109
-0.0109
-0.0107
-0.0107
-0.0107
-0.0107
-0.0107
-0.0107
-0.0107
-0.0107
-0.0114
-0.0114
-0.0114
-0.0114
-0.0114
-0.0114
-0.0114
-0.0114
-0.0118
-0.0118
-0.0118
-0.0118
-0.0118
-0.0118
-0.0118
-0.0118
-0.0116
-0.0116
-0.0116
-0.0116
-0.0116
-0.0116
-0.0116
-0.0116
-0.0116
-0.0116
-0.0116
-0.0116
-0.0116
-0.0116
-0.0116
-0.0116
-0.0114
-0.0114
-0.0114
-0.0114
-0.0114
-0.0114
-0.0114
-0.0114
-0.0116
-0.0116
-0.0116
-0.0116
-0.0116
-0.0116
-0.0116
-0.0116
-0.0114
-0.0114
-0.0114
-0.0114
-0.0107
-0.0107
-0.0107
-0.0107
-0.0107
-0.0107
-0.0107
-0.0107
-0.0111
-0.0111
-0.0111
-0.0111
-0.0111
-0.0111
-0.0111
-0.0111
-0.0111
-0.0111
-0.0111
-0.0111
-0.0111
-0.0111
-0.0111
-0.0111
-0.0105
-0.0105
-0.0105
-0.0105
-0.0105
-0.0105
-0.0105
-0.0105
-0.0116
-0.0116
-0.0116
-0.0116
-0.0116
-0.0116
-0.0116
-0.0116
-0.0111
-0.0111
-0.0111
-0.0111
-0.0111
-0.0111
-0.0111
-0.0111
-0.0124
-0.0124
-0.0124
-0.0124
-0.0124
-0.0124
-0.0124
-0.0124
-0.0107
-0.0107
-0.0107
-0.0107
-0.0107
-0.0107
-0.0107
-0.0107
-0.0111
-0.0111
-0.0111
-0.0111
-0.0111
-0.0111
-0.0111
-0.0111
-0.0105
-0.0105
-0.0105
-0.0105
-0.0105
-0.0105
-0.0105
-0.0105
-0.012
-0.012
-0.012
-0.012
-0.012
-0.012
-0.012
-0.012
-0.0105
-0.0105
-0.0105
-0.0105
-0.0105
-0.0105
-0.0105
-0.0105
-0.0107
-0.0107
-0.0107
-0.0107
-0.0103
-0.0103
-0.0103
-0.0103
-0.0103
-0.0103
-0.0103
-0.0103
-0.0111
-0.0111
-0.0111
-0.0111
-0.0111
-0.0111
-0.0111
-0.0111
-0.012
-0.012
-0.012
-0.012
-0.012
-0.012
-0.012
-0.012
-0.0111
-0.0111
-0.0111
-0.0111
-0.0111
-0.0111
-0.0111
-0.0111
-0.0126
-0.0126
-0.0126
-0.0126
-0.0126
-0.0126
-0.0126
-0.0126
-0.0099
-0.0099
-0.0099
-0.0099
-0.0099
-0.0099
-0.0099
-0.0099
