1.196703
1.198315
1.236996
1.212015
1.232967
1.228938
1.43282
1.494066
1.50293
1.485201
1.490842
1.487619
1.443297
1.433626
1.441685
1.482784
1.525494
1.421538
1.358681
1.34337
1.393333
1.379634
1.332894
1.369963
1.312747
1.353846
1.340147
1.324835
1.320806
1.562564
1.560146
1.578681
1.53033
1.558535
1.536777
1.598828
1.571429
1.543223
1.611722
1.543223
1.58674
1.400586
1.419121
1.386886
1.398168
1.35304
1.373993
1.396557
1.353846
1.41348
1.374799
1.392527
1.352234
1.578681
1.565788
1.565788
1.57707
1.552088
1.557729
1.612527
1.607692
1.577875
1.577875
1.598022
1.454579
1.423956
1.359487
1.43685
1.423956
1.391722
1.355458
1.411062
1.36674
1.367546
1.353846
1.349011
1.547253
1.582711
1.560146
1.58674
1.63348
1.612527
1.584322
1.601245
1.574652
1.625421
1.60044
1.611722
1.422344
1.442491
1.393333
1.386886
1.41348
1.362711
1.350623
1.356264
1.397363
1.349817
1.40381
1.374799
1.599634
1.589963
1.591575
1.564176
1.578681
1.581905
1.569011
1.591575
1.564176
1.602051
1.622198
1.598828
1.467473
1.431209
1.426374
1.400586
1.39011
1.368352
1.379634
1.400586
1.371575
1.425568
1.38044
1.611722
1.59641
1.638315
1.578681
1.60044
1.637509
1.644762
1.589963
1.580293
1.603663
1.599634
1.614139
1.431209
1.442491
1.382051
1.391722
1.425568
1.363516
1.398974
1.381245
1.402198
1.379634
1.353846
1.369157
1.570623
1.637509
1.582711
1.571429
1.613333
1.607692
1.58674
1.644762
1.575458
1.648791
1.584322
1.461831
1.41348
1.444103
1.388498
1.394945
1.372381
1.379634
1.415897
1.430403
1.408645
1.379634
1.361905
1.58674
1.587546
1.611722
1.578681
1.601245
1.614139
1.609304
1.575458
1.639927
1.597216
1.61978
1.629451
1.487619
1.480366
1.472308
1.469084
1.462637
1.410256
1.418315
1.431209
1.430403
1.427179
1.470696
1.639121
1.610916
1.662491
1.623809
1.610916
1.660879
1.593187
1.607692
1.671355
1.627839
1.603663
1.626227
1.415897
1.368352
1.411062
1.381245
1.369157
1.35304
1.403004
1.415897
1.364322
1.398974
1.370769
1.411062
1.626227
1.61978
1.641538
1.637509
1.639121
1.576264
1.645568
1.585934
1.637509
1.601245
1.623004
1.449744
1.43685
1.448938
1.484396
1.405421
1.398168
1.410256
1.427179
1.406227
1.428791
1.431209
1.381245
1.637509
1.675385
1.676996
1.664103
1.686667
1.663297
1.685055
1.660879
1.664103
1.63348
1.689084
1.701978
1.491648
1.507766
1.504542
1.49326
1.417509
1.456996
1.465861
1.419927
1.462637
1.411062
1.440073
1.43282
1.685861
1.668938
1.701978
1.739853
1.731795
1.707619
1.686667
1.671355
1.712454
1.705201
1.739048
1.547253
1.542418
1.474725
1.543223
1.494872
1.523077
1.525494
1.484396
1.499707
1.498095
1.475531
1.452967
1.719707
1.741465
1.684249
1.742271
1.764835
1.678608
1.704396
1.686667
1.714872
1.718901
1.692308
1.510989
1.478755
1.517436
1.47956
1.523077
1.44652
1.462637
1.514213
1.468278
1.474725
1.492454
1.440073
1.632674
1.623004
1.683443
1.679414
1.663297
1.611722
1.681026
1.61011
1.606886
1.614139
1.616557
1.647985
1.449744
1.495678
1.491648
1.440073
1.452967
1.426374
1.435238
1.42315
1.428791
1.407839
1.405421
1.411062
1.664908
1.588352
1.607692
1.64315
1.659267
1.590769
1.642344
1.599634
1.64315
1.637509
1.632674
1.452161
1.448132
1.405421
1.386886
1.426374
1.423956
1.427179
1.406227
1.328059
1.369157
1.379634
1.388498
1.598022
1.573846
1.609304
1.554505
1.590769
1.560146
1.54967
1.593187
1.598022
1.57304
1.610916
1.569011
1.386886
1.405421
1.386886
1.349011
1.364322
1.340952
1.403004
1.328059
1.371575
1.361905
1.36674
1.581905
1.598828
1.588352
1.548864
1.616557
1.565788
1.571429
1.589157
1.546447
1.594799
1.560146
1.564176
1.409451
1.430403
1.341758
1.341758
1.405421
1.396557
1.375604
1.372381
1.344982
1.36674
1.307912
1.315971
1.581905
1.565788
1.548059
1.565788
1.54
1.517436
1.564176
1.57304
1.601245
1.568205
1.525494
1.542418
1.358681
1.396557
1.387692
1.379634
1.330476
1.369157
1.369157
1.328864
1.319194
1.327253
1.332894
1.54
1.53033
1.547253
1.57304
1.555311
1.575458
1.562564
1.599634
1.569011
1.598828
1.594799
1.587546
1.547253
1.392527
1.391722
1.352234
1.381245
1.393333
1.381245
1.372381
1.388498
1.34337
1.39011
1.357875
1.602051
1.560952
1.583517
1.581905
1.546447
1.548864
1.580293
1.541612
1.593993
1.57707
1.585934
1.589963
1.361905
1.369963
1.368352
1.355458
1.340147
1.367546
1.362711
1.362711
1.344176
1.369963
1.323223
1.303077
1.584322
1.593993
1.57304
1.559341
1.557729
1.534359
1.603663
1.551282
1.589963
1.564176
1.581905
1.379634
1.350623
1.339341
1.362711
1.34337
1.330476
1.32
1.332088
1.324029
1.302271
1.369157
1.362711
1.301465
1.595604
1.572234
1.534359
1.528718
1.560146
1.523883
1.534359
1.525494
1.575458
1.525494
1.5263
1.372381
1.372381
1.353846
1.340952
1.353846
1.348205
1.304689
1.327253
1.365934
1.365934
1.315165
1.326447
1.534359
1.559341
1.561758
1.560146
1.510989
1.521465
1.519048
1.531941
1.54
1.590769
1.547253
1.523077
1.338535
1.32
1.349817
1.323223
1.3337
1.361099
1.382051
1.365934
1.328059
1.326447
1.326447
1.304689
1.556117
1.548059
1.548864
1.514213
1.535165
1.572234
1.546447
1.568205
1.533553
1.561758
1.517436
1.551282
1.34337
1.348205
1.332894
1.299853
1.313553
1.298242
1.315971
1.328059
1.342564
1.278901
1.353846
1.573846
1.523077
1.497289
1.510989
1.543223
1.531136
1.562564
1.58674
1.542418
1.501319
1.576264
1.594799
1.375604
1.38044
1.375604
1.302271
1.338535
1.31033
1.307912
1.356264
1.281319
1.324029
1.332894
1.276484
1.53033
1.543223
1.512601
1.494066
1.555311
1.520659
1.538388
1.569011
1.524689
1.556117
1.554505
1.534359
1.392527
1.327253
1.368352
1.316777
1.353846
1.307106
1.300659
1.316777
1.339341
1.302271
1.29663
1.536777
1.561758
1.552088
1.546447
1.573846
1.573846
1.524689
1.517436
1.544835
1.58674
1.523883
1.598022
1.331282
1.361099
1.335311
1.320806
1.355458
1.390916
1.369157
1.383663
1.35304
1.371575
1.302271
1.318388
1.525494
1.522271
1.573846
1.556117
1.515018
1.557729
1.58674
1.565788
1.519853
1.589963
1.585934
1.365128
1.340952
1.341758
1.379634
1.370769
1.340147
1.383663
1.361905
1.326447
1.345788
1.361905
1.332894
1.534359
1.559341
1.581905
1.531941
1.573846
1.552894
1.584322
1.539194
1.569817
1.552894
1.604469
1.598828
1.415092
1.373993
1.354652
1.379634
1.385275
1.328059
1.374799
1.369157
1.328059
1.332894
1.332894
1.604469
1.585934
1.54967
1.560146
1.583517
1.602857
1.545641
1.576264
1.568205
1.613333
1.601245
1.611722
1.407839
1.372381
1.355458
1.344982
1.34337
1.39978
1.36674
1.335311
1.355458
1.311941
1.384469
1.379634
1.559341
1.560146
1.582711
1.551282
1.609304
1.617363
1.557729
1.575458
1.57304
1.636703
1.585934
1.612527
1.649597
1.405421
1.378828
1.344176
1.379634
1.392527
1.346593
1.328059
1.368352
1.384469
1.394945
1.552088
1.543223
1.571429
1.599634
1.565788
1.564176
1.578681
1.560146
1.609304
1.617363
1.581905
1.61011
1.355458
1.367546
1.396557
1.405421
1.367546
1.406227
1.406227
1.341758
1.324029
1.373187
1.332088
1.636703
1.622198
1.560146
1.59641
1.598828
1.59641
1.606886
1.632674
1.617363
1.63348
1.646374
1.591575
1.428791
1.390916
1.372381
1.419121
1.418315
1.35304
1.409451
1.362711
1.362711
1.379634
1.359487
1.401392
1.623004
1.606886
1.621392
1.623809
1.556117
1.589963
1.587546
1.620586
1.627033
1.61978
1.648791
1.620586
1.351429
1.356264
1.401392
1.389304
1.339341
1.391722
1.328059
1.382051
1.354652
1.34337
1.3337
1.340952
1.579487
1.561758
1.531941
1.551282
1.551282
1.587546
1.573846
1.585934
1.573846
1.632674
1.599634
1.430403
1.429597
1.392527
1.359487
1.375604
1.411062
1.383663
1.356264
1.379634
1.342564
1.36674
1.353846
1.547253
1.542418
1.590769
1.534359
1.589157
1.560146
1.616557
1.598828
1.61011
1.585128
1.54
1.585934
1.345788
1.359487
1.346593
1.372381
1.39011
1.388498
1.332894
1.32967
1.31033
1.303077
1.319194
1.353846
1.533553
1.544029
1.58674
1.562564
1.560952
1.59641
1.610916
1.599634
1.552894
1.570623
1.583517
1.603663
1.384469
1.394139
1.328059
1.351429
1.38044
1.368352
1.364322
1.315971
1.322418
1.3337
1.328864
1.588352
1.561758
1.523883
1.532747
1.556117
1.604469
1.535165
1.533553
1.536777
1.539194
1.547253
1.606081
1.353846
1.330476
1.323223
1.322418
1.340952
1.344982
1.368352
1.319194
1.352234
1.32
1.336117
1.35707
1.552088
1.560146
1.552088
1.57304
1.53033
1.558535
1.53033
1.585934
1.560146
1.56337
1.552088
1.572234
1.474725
1.462637
1.459414
1.440073
1.435238
1.465861
1.46022
1.495678
1.462637
1.445714
1.444103
1.488425
1.805128
1.805128
1.841392
1.844615
1.796264
1.809963
1.83978
1.826081
1.80674
1.805934
1.84381
1.84381
1.439267
1.382051
1.344982
1.354652
1.367546
1.335311
1.344176
1.312747
1.364322
1.367546
1.352234
1.365128
1.352234
1.401392
1.34337
1.370769
1.396557
1.383663
1.412674
1.396557
1.35304
1.368352
1.435238
1.301465
1.277289
1.253114
1.26359
1.274872
1.269231
1.212821
1.257949
1.251502
1.268425
1.225714
1.285348
1.528718
1.560146
1.569817
1.564176
1.552894
1.562564
1.560146
1.520659
1.532747
1.560952
1.538388
1.386886
1.379634
1.342564
1.357875
1.319194
1.379634
1.301465
1.373993
1.328059
1.349011
1.285348
1.331282
1.539194
1.564982
1.556117
1.554505
1.534359
1.591575
1.543223
1.580293
1.585934
1.53033
1.552088
1.552894
1.353846
1.369157
1.317582
1.359487
1.323223
1.35304
1.322418
1.356264
1.35304
1.361905
1.344176
1.303883
1.519853
1.57707
1.534359
1.585934
1.560146
1.559341
1.585934
1.521465
1.552894
1.577875
1.588352
1.332088
1.391722
1.349011
1.317582
1.358681
1.337729
1.328059
1.367546
1.298242
1.317582
1.353846
1.298242
1.572234
1.574652
1.585934
1.564176
1.589157
1.585934
1.572234
1.599634
1.572234
1.571429
1.573846
1.34337
1.34337
1.377216
1.320806
1.338535
1.299048
1.311136
1.302271
1.322418
1.328059
1.365934
1.346593
1.527106
1.585934
1.58674
1.546447
1.538388
1.585128
1.61011
1.569011
1.548864
1.531941
1.583517
1.593993
1.358681
1.355458
1.328059
1.353846
1.353846
1.351429
1.303077
1.287766
1.303077
1.282125
1.307106
1.277289
1.508571
1.534359
1.511795
1.556923
1.585934
1.558535
1.558535
1.547253
1.573846
1.531941
1.534359
1.353846
1.352234
1.356264
1.378828
1.345788
1.328059
1.361099
1.336117
1.311136
1.307912
1.34337
1.357875
1.556117
1.545641
1.508571
1.520659
1.519048
1.535971
1.50696
1.545641
1.512601
1.558535
1.534359
1.508571
1.314359
1.35304
1.328059
1.354652
1.31033
1.289377
1.282125
1.34337
1.288571
1.302271
1.327253
1.300659
1.552088
1.508571
1.509377
1.546447
1.570623
1.559341
1.573846
1.543223
1.569011
1.562564
1.554505
1.328059
1.312747
1.325641
1.34337
1.32
1.31033
1.311136
1.36674
1.307106
1.322418
1.286154
1.351429
1.32
1.508571
1.495678
1.528718
1.525494
1.529524
1.547253
1.53033
1.565788
1.572234
1.560952
1.552088
1.546447
1.338535
1.311136
1.317582
1.302271
1.381245
1.34337
1.349817
1.301465
1.315165
1.292601
1.282125
1.523077
1.534359
1.522271
1.557729
1.539194
1.535971
1.573846
1.581905
1.543223
1.552894
1.599634
1.555311
1.353846
1.346593
1.35304
1.337729
1.328059
1.313553
1.337729
1.365934
1.351429
1.324029
1.361905
1.57304
1.606886
1.594799
1.547253
1.552088
1.612527
1.569011
1.564982
1.632674
1.625421
1.620586
1.577875
1.431209
1.403004
1.375604
1.386886
1.388498
1.422344
1.336117
1.405421
1.410256
1.359487
1.365128
1.369157
1.622198
1.602857
1.624615
1.648791
1.637509
1.609304
1.585934
1.607692
1.610916
1.663297
1.602857
1.422344
1.442491
1.39978
1.444103
1.412674
1.400586
1.445714
1.427179
1.419927
1.44652
1.409451
1.409451
1.591575
1.643956
1.591575
1.602857
1.584322
1.656044
1.606081
1.626227
1.658462
1.597216
1.674579
1.647985
1.417509
1.435238
1.384469
1.409451
1.365128
1.40381
1.406227
1.415897
1.383663
1.403004
1.35707
1.330476
1.615751
1.598828
1.614945
1.560146
1.590769
1.581905
1.628645
1.572234
1.579487
1.623004
1.575458
1.368352
1.346593
1.335311
1.382857
1.314359
1.351429
1.336923
1.36674
1.302271
1.348205
1.307912
1.311136
1.575458
1.567399
1.564176
1.560146
1.532747
1.521465
1.561758
1.564176
1.534359
1.578681
1.574652
1.388498
1.311136
1.311136
1.357875
1.326447
1.330476
1.302271
1.351429
1.339341
1.3337
1.302271
1.298242
1.543223
1.510989
1.5263
1.51663
1.552894
1.501319
1.498095
1.560146
1.552894
1.570623
1.558535
1.548059
1.314359
1.342564
1.311941
1.320806
1.319194
1.337729
1.291795
1.328864
1.324835
1.336923
1.336923
1.274872
1.544835
1.508571
1.54967
1.570623
1.573846
1.556923
1.510183
1.548864
1.589963
1.572234
1.543223
1.383663
1.317582
1.344176
1.35304
1.357875
1.349817
1.29663
1.284542
1.353846
1.348205
1.34337
1.272454
1.554505
1.535165
1.544029
1.559341
1.500513
1.551282
1.517436
1.57304
1.56337
1.575458
1.534359
1.512601
1.349817
1.315165
1.361099
1.367546
1.328864
1.319194
1.349011
1.287766
1.282125
1.328059
1.3337
1.275678
1.512601
1.557729
1.513407
1.508571
1.560146
1.568205
1.523883
1.575458
1.571429
1.544835
1.589963
1.5263
1.375604
1.32967
1.339341
1.354652
1.295018
1.344982
1.320806
1.358681
1.319194
1.283736
1.298242
1.560146
1.571429
1.54
1.562564
1.51663
1.521465
1.514213
1.523077
1.521465
1.576264
1.504542
1.537582
1.591575
1.328059
1.327253
1.315971
1.314359
1.303883
1.355458
1.353846
1.328059
1.323223
1.324029
1.303883
1.510989
1.527106
1.532747
1.514213
1.517436
1.524689
1.536777
1.585934
1.534359
1.589963
1.588352
1.58674
1.32967
1.336923
1.348205
1.345788
1.364322
1.356264
1.320806
1.334505
1.305494
1.288571
1.313553
1.547253
1.578681
1.521465
1.567399
1.569011
1.58674
1.560146
1.588352
1.557729
1.547253
1.541612
1.554505
1.351429
1.340147
1.338535
1.36674
1.368352
1.354652
1.361905
1.355458
1.3063
1.309524
1.332088
1.293407
1.54967
1.520659
1.496483
1.528718
1.497289
1.556923
1.512601
1.508571
1.506154
1.562564
1.503736
1.520659
1.369963
1.361099
1.298242
1.313553
1.342564
1.303077
1.328864
1.300659
1.302271
1.348205
1.278095
1.531136
1.54
1.561758
1.521465
1.551282
1.570623
1.499707
1.580293
1.531136
1.560146
1.53033
1.580293
1.51663
1.313553
1.353846
1.379634
1.354652
1.328059
1.307912
1.339341
1.300659
1.328059
1.351429
1.307912
1.581099
1.573846
1.520659
1.557729
1.521465
1.558535
1.571429
1.506154
1.523883
1.569817
1.560952
1.569011
1.358681
1.327253
1.361905
1.332088
1.340147
1.301465
1.341758
1.307106
1.330476
1.311136
1.328059
1.518242
1.574652
1.532747
1.581099
1.5263
1.57707
1.532747
1.53033
1.568205
1.578681
1.593993
1.527106
1.589963
1.375604
1.339341
1.341758
1.307912
1.328059
1.297436
1.358681
1.287766
1.3063
1.302271
1.302271
1.559341
1.534359
1.562564
1.494872
1.548059
1.508571
1.552894
1.508571
1.528718
1.533553
1.510183
1.584322
1.365128
1.365128
1.351429
1.294212
1.307912
1.340147
1.361099
1.323223
1.302271
1.34337
1.302271
1.522271
1.546447
1.534359
1.504542
1.575458
1.575458
1.564982
1.593187
1.535165
1.564982
1.556117
1.574652
1.340147
1.323223
1.323223
1.353846
1.302271
1.363516
1.287766
1.32967
1.353846
1.302271
1.276484
1.324029
1.523883
1.531136
1.529524
1.527106
1.531941
1.560952
1.542418
1.57707
1.552088
1.585934
1.555311
1.378828
1.330476
1.371575
1.35304
1.328059
1.351429
1.344982
1.342564
1.313553
1.346593
1.32967
1.319194
1.544029
1.510183
1.515824
1.508571
1.546447
1.531941
1.534359
1.575458
1.527106
1.535165
1.585934
1.589963
1.316777
1.369963
1.313553
1.332088
1.372381
1.319194
1.328059
1.340952
1.353846
1.295018
1.301465
1.556117
1.494872
1.546447
1.51663
1.572234
1.584322
1.552894
1.507766
1.589963
1.560146
1.538388
1.560146
1.332894
1.290183
1.319194
1.359487
1.353846
1.327253
1.299853
1.361905
1.361099
1.328059
1.302271
1.282125
1.513407
1.521465
1.552088
1.513407
1.538388
1.532747
1.560146
1.574652
1.59641
1.585934
1.5263
1.514213
1.318388
1.373993
1.35304
1.307106
1.317582
1.367546
1.328059
1.320806
1.340952
1.332088
1.35304
1.607692
1.556117
1.572234
1.606886
1.551282
1.589963
1.623004
1.609304
1.556117
1.571429
1.620586
1.637509
1.367546
1.378022
1.362711
1.3337
1.38044
1.32967
1.3337
1.38044
1.349011
1.36674
1.346593
1.351429
1.315971
1.560952
1.557729
1.565788
1.519048
1.567399
1.556117
1.565788
1.529524
1.588352
1.581099
1.602857
1.388498
1.346593
1.386886
1.371575
1.379634
1.340147
1.314359
1.335311
1.346593
1.336923
1.361905
1.569011
1.510183
1.551282
1.548059
1.558535
1.560146
1.54
1.531941
1.533553
1.536777
1.545641
1.562564
1.580293
1.31033
1.324835
1.38044
1.377216
1.330476
1.323223
1.307912
1.377216
1.328059
1.302271
1.328864
1.50696
1.573846
1.575458
1.506154
1.545641
1.561758
1.515824
1.578681
1.546447
1.571429
1.576264
1.594799
1.344982
1.307106
1.32
1.364322
1.369963
1.369963
1.290183
1.349011
1.304689
1.304689
1.319194
1.289377
1.595604
1.573846
1.583517
1.589963
1.544029
1.556117
1.591575
1.548059
1.602857
1.554505
1.609304
1.565788
1.338535
1.34337
1.336923
1.363516
1.324029
1.317582
1.309524
1.303077
1.353846
1.278901
1.302271
1.547253
1.585934
1.512601
1.569817
1.523077
1.499707
1.514213
1.53033
1.585128
1.585128
1.538388
1.535971
1.316777
1.3337
1.349817
1.337729
1.3337
1.304689
1.348205
1.295018
1.340147
1.353846
1.365128
1.328059
1.542418
1.500513
1.536777
1.560146
1.531136
1.506154
1.550476
1.535165
1.556117
1.523883
1.54
1.585934
1.328059
1.368352
1.353846
1.378828
1.302271
1.303883
1.357875
1.364322
1.328864
1.349817
1.312747
1.293407
1.712454
1.668132
1.674579
1.693114
1.725348
1.684249
1.725348
1.739853
1.742271
1.707619
1.733407
1.639927
1.599634
1.602857
1.594799
1.61978
1.575458
1.541612
1.552894
1.565788
1.566593
1.482784
1.558535
1.560146
1.574652
1.496483
1.508571
1.518242
1.495678
1.498095
1.541612
1.525494
1.475531
1.524689
1.197509
1.168498
1.207179
1.224908
1.178974
1.216044
1.197509
1.173333
1.22652
1.18381
1.236996
1.204762
1.414286
1.466667
1.473114
1.454579
1.452967
1.44652
1.462637
1.499707
1.472308
1.474725
1.47956
1.536777
1.334505
1.328059
1.301465
1.290183
1.307106
1.324029
1.303077
1.323223
1.304689
1.330476
1.326447
1.288571
1.546447
1.505348
1.565788
1.528718
1.537582
1.542418
1.548864
1.556117
1.542418
1.576264
1.519048
1.323223
1.365128
1.351429
1.313553
1.362711
1.364322
1.325641
1.313553
1.353846
1.352234
1.328059
1.327253
1.513407
1.504542
1.520659
1.51663
1.533553
1.573846
1.517436
1.599634
1.535165
1.547253
1.58674
1.594799
1.32
1.354652
1.304689
1.297436
1.35304
1.337729
1.312747
1.341758
1.295018
1.320806
1.36674
1.294212
1.599634
1.548059
1.54967
1.589963
1.560952
1.546447
1.546447
1.602857
1.598022
1.59641
1.539194
1.54967
1.359487
1.322418
1.328059
1.365934
1.354652
1.359487
1.353846
1.32967
1.304689
1.325641
1.344176
1.557729
1.554505
1.564982
1.552894
1.61011
1.572234
1.585934
1.565788
1.611722
1.594799
1.611722
1.556923
1.327253
1.38044
1.384469
1.324029
1.314359
1.373993
1.348205
1.382051
1.352234
1.327253
1.370769
1.332894
1.580293
1.519853
1.543223
1.558535
1.599634
1.604469
1.5263
1.588352
1.570623
1.598828
1.561758
1.54967
1.378828
1.328059
1.364322
1.351429
1.323223
1.312747
1.335311
1.353846
1.371575
1.336923
1.349011
1.557729
1.520659
1.585934
1.53033
1.585934
1.544835
1.565788
1.546447
1.585934
1.555311
1.534359
1.561758
1.349011
1.323223
1.328059
1.319194
1.355458
1.302271
1.315971
1.314359
1.325641
1.340147
1.354652
1.321612
1.545641
1.547253
1.562564
1.514213
1.508571
1.58674
1.594799
1.561758
1.585934
1.535971
1.573846
1.340952
1.294212
1.336923
1.367546
1.311136
1.288571
1.311941
1.286154
1.315165
1.303077
1.346593
1.288571
1.508571
1.560146
1.560146
1.578681
1.578681
1.548059
1.588352
1.60044
1.572234
1.570623
1.544835
1.552894
1.328059
1.316777
1.357875
1.316777
1.335311
1.349011
1.346593
1.290183
1.293407
1.307912
1.323223
1.565788
1.564982
1.534359
1.577875
1.546447
1.578681
1.567399
1.581905
1.545641
1.588352
1.565788
1.534359
1.377216
1.340147
1.317582
1.336923
1.328059
1.328864
1.32
1.324029
1.346593
1.335311
1.3337
1.344176
1.542418
1.54967
1.585934
1.585128
1.574652
1.599634
1.573846
1.571429
1.585934
1.614139
1.639121
1.585934
1.398168
1.423956
1.405421
1.353846
1.394945
1.405421
1.377216
1.418315
1.365128
1.35304
1.394945
1.611722
1.598022
1.578681
1.588352
1.622198
1.602857
1.571429
1.632674
1.659267
1.594799
1.585934
1.620586
1.419121
1.420733
1.40381
1.375604
1.409451
1.371575
1.363516
1.371575
1.38044
1.35707
1.385275
1.415897
1.611722
1.658462
1.663297
1.625421
1.613333
1.681026
1.613333
1.664908
1.681026
1.681026
1.709231
1.407033
1.409451
1.414286
1.405421
1.403004
1.452967
1.43685
1.370769
1.370769
1.427985
1.398168
1.38044
1.606886
1.593187
1.573846
1.626227
1.572234
1.61011
1.637509
1.585934
1.611722
1.59641
1.635897
1.602857
1.427179
1.40381
1.346593
1.369963
1.40381
1.392527
1.328059
1.327253
1.359487
1.350623
1.326447
1.378022
1.585128
1.561758
1.591575
1.54
1.598828
1.578681
1.602857
1.544835
1.567399
1.593187
1.574652
1.583517
1.379634
1.349817
1.340952
1.356264
1.307106
1.294212
1.31033
1.340147
1.3063
1.324029
1.298242
1.293407
1.585934
1.54
1.581099
1.523077
1.581905
1.528718
1.535165
1.548864
1.603663
1.593993
1.560146
1.545641
1.36674
1.339341
1.377216
1.340147
1.370769
1.315971
1.359487
1.349817
1.293407
1.303883
1.34337
1.56337
1.560146
1.556923
1.519048
1.570623
1.585128
1.580293
1.544835
1.554505
1.560952
1.560146
1.543223
1.341758
1.302271
1.348205
1.287766
1.351429
1.338535
1.294212
1.317582
1.29663
1.340952
1.328864
1.340147
1.57707
1.560952
1.552088
1.570623
1.560146
1.560952
1.532747
1.53033
1.538388
1.581099
1.601245
1.583517
1.319194
1.278901
1.328059
1.307106
1.316777
1.328059
1.331282
1.338535
1.295018
1.309524
1.311941
1.508571
1.561758
1.50696
1.562564
1.521465
1.560952
1.519048
1.535971
1.546447
1.560952
1.581905
1.587546
1.379634
1.348205
1.328864
1.328059
1.332088
1.279707
1.265201
1.328059
1.324029
1.328059
1.29663
1.324029
1.580293
1.509377
1.560146
1.548864
1.575458
1.572234
1.520659
1.560146
1.520659
1.536777
1.58674
1.362711
1.302271
1.301465
1.361099
1.348205
1.293407
1.332088
1.298242
1.357875
1.315971
1.325641
1.28696
1.54967
1.557729
1.558535
1.51663
1.569817
1.498901
1.560952
1.54
1.509377
1.585934
1.569011
1.538388
1.337729
1.365934
1.328059
1.341758
1.325641
1.342564
1.344982
1.312747
1.327253
1.327253
1.314359
1.302271
1.342564
1.319194
1.552894
1.527106
1.520659
1.535165
1.573846
1.57304
1.5263
1.552088
1.560146
1.344982
1.297436
1.315971
1.305494
1.328059
1.318388
1.323223
1.349817
1.313553
1.301465
1.275678
1.290989
1.514213
1.53033
1.559341
1.510183
1.569817
1.589963
1.539194
1.554505
1.534359
1.531136
1.597216
1.567399
1.36674
1.328059
1.302271
1.357875
1.350623
1.302271
1.302271
1.301465
1.295018
1.328059
1.302271
1.328059
1.534359
1.585934
1.525494
1.556923
1.569817
1.590769
1.593993
1.559341
1.531941
1.552894
1.58674
1.303077
1.397363
1.368352
1.340952
1.36674
1.313553
1.353846
1.294212
1.291795
1.341758
1.315165
1.35304
1.578681
1.584322
1.543223
1.510183
1.558535
1.585934
1.571429
1.534359
1.560146
1.5263
1.569011
1.560146
1.340147
1.317582
1.365934
1.307106
1.328059
1.349011
1.336923
1.326447
1.304689
1.324029
1.314359
1.32967
1.545641
1.54967
1.575458
1.558535
1.535165
1.537582
1.555311
1.560952
1.536777
1.59641
1.584322
1.352234
1.383663
1.341758
1.328864
1.353846
1.315165
1.349817
1.34337
1.338535
1.375604
1.328059
1.302271
1.60044
1.595604
1.585128
1.577875
1.564176
1.546447
1.548059
1.566593
1.548059
1.548059
1.554505
1.578681
1.3063
1.361905
1.341758
1.336117
1.379634
1.364322
1.352234
1.358681
1.324029
1.294212
1.355458
1.34337
1.593993
1.564176
1.546447
1.588352
1.519048
1.606886
1.585934
1.539194
1.613333
1.544835
1.560952
1.392527
1.32
1.354652
1.332088
1.377216
1.372381
1.353846
1.364322
1.362711
1.340952
1.302271
1.302271
1.551282
1.583517
1.548059
1.583517
1.56337
1.591575
1.598022
1.583517
1.557729
1.565788
1.560146
1.599634
1.382051
1.313553
1.38044
1.378022
1.391722
1.351429
1.379634
1.368352
1.332894
1.328059
1.361905
1.339341
1.548059
1.543223
1.546447
1.585934
1.571429
1.558535
1.57707
1.603663
1.561758
1.576264
1.573846
1.400586
1.328059
1.377216
1.349817
1.357875
1.328059
1.304689
1.344982
1.359487
1.32
1.378828
1.339341
1.357875
1.585934
1.559341
1.585934
1.598022
1.571429
1.534359
1.571429
1.590769
1.590769
1.609304
1.635897
1.355458
1.373993
1.371575
1.330476
1.374799
1.341758
1.344982
1.295018
1.311136
1.34337
1.326447
1.341758
1.570623
1.57707
1.533553
1.556117
1.556923
1.557729
1.536777
1.536777
1.611722
1.569011
1.552088
1.372381
1.374799
1.384469
1.368352
1.323223
1.365934
1.344176
1.332088
1.388498
1.315165
1.385275
1.317582
1.588352
1.54967
1.607692
1.585934
1.571429
1.569817
1.57707
1.569011
1.571429
1.606081
1.557729
1.561758
1.368352
1.394139
1.377216
1.369157
1.316777
1.302271
1.314359
1.361099
1.31033
1.307912
1.302271
1.510989
1.590769
1.583517
1.575458
1.540806
1.569011
1.57304
1.590769
1.581905
1.622198
1.560146
1.627033
1.350623
1.345788
1.407839
1.395751
1.351429
1.371575
1.307912
1.369157
1.328059
1.365934
1.332894
1.390916
1.61011
1.623809
1.621392
1.61978
1.587546
1.598828
1.573846
1.631868
1.627033
1.562564
1.642344
1.577875
1.377216
1.394139
1.346593
1.328059
1.346593
1.335311
1.326447
1.311136
1.324029
1.338535
1.354652
1.598828
1.575458
1.573846
1.5263
1.585934
1.599634
1.589963
1.598022
1.587546
1.590769
1.560146
1.557729
1.375604
1.327253
1.370769
1.368352
1.344982
1.320806
1.340952
1.354652
1.344982
1.302271
1.347399
1.290989
1.524689
1.537582
1.520659
1.555311
1.585934
1.557729
1.578681
1.60044
1.534359
1.572234
1.525494
1.351429
1.289377
1.346593
1.327253
1.351429
1.339341
1.326447
1.332894
1.303883
1.328864
1.301465
1.336117
1.514213
1.523077
1.512601
1.581099
1.57707
1.590769
1.546447
1.560952
1.556117
1.60044
1.552088
1.58674
1.328059
1.359487
1.354652
1.378828
1.351429
1.338535
1.378022
1.346593
1.351429
1.279707
1.324029
1.51663
1.5263
1.578681
1.560146
1.552894
1.546447
1.559341
1.552894
1.532747
1.588352
1.552894
1.535165
1.349817
1.34337
1.323223
1.3337
1.344176
1.332088
1.335311
1.335311
1.307106
1.322418
1.3063
1.3337
1.257949
1.585934
1.531941
1.510183
1.538388
1.5263
1.585934
1.54
1.57304
1.593993
1.535165
1.539194
1.534359
1.353846
1.302271
1.36674
1.301465
1.298242
1.353846
1.318388
1.303077
1.325641
1.309524
1.340147
1.590769
1.534359
1.56337
1.545641
1.562564
1.567399
1.601245
1.639121
1.628645
1.598022
1.649597
1.593187
1.53033
1.573846
1.517436
1.545641
1.543223
1.519853
1.581905
1.556117
1.583517
1.535165
1.519048
1.49326
1.59641
1.585128
1.591575
1.547253
1.575458
1.584322
1.564176
1.59641
1.562564
1.575458
1.552894
1.628645
1.187839
1.19348
1.219267
1.232967
1.207985
1.173333
1.224102
1.216044
1.175751
1.228938
1.188645
1.409451
1.365128
1.419927
1.427985
1.394139
1.379634
1.39011
1.389304
1.440073
1.445714
1.412674
1.478755
1.328864
1.267619
1.294212
1.288571
1.328864
1.269231
1.297436
1.314359
1.313553
1.261978
1.301465
1.260366
1.585934
1.588352
1.577875
1.570623
1.581905
1.589963
1.546447
1.60044
1.568205
1.534359
1.587546
1.358681
1.358681
1.32
1.328059
1.349817
1.326447
1.323223
1.297436
1.299853
1.303077
1.31033
1.346593
1.276484
1.522271
1.524689
1.598022
1.54
1.536777
1.543223
1.608498
1.585934
1.555311
1.594799
1.558535
1.571429
1.352234
1.298242
1.336923
1.389304
1.31033
1.328059
1.351429
1.332088
1.292601
1.324029
1.300659
1.545641
1.589963
1.590769
1.57707
1.591575
1.575458
1.548864
1.591575
1.558535
1.548864
1.577875
1.610916
1.342564
1.365934
1.340952
1.318388
1.325641
1.31033
1.326447
1.353846
1.325641
1.337729
1.312747
1.290989
1.51663
1.514213
1.591575
1.54967
1.598828
1.528718
1.556117
1.564982
1.593993
1.545641
1.537582
1.317582
1.332894
1.374799
1.339341
1.386886
1.375604
1.361905
1.320806
1.370769
1.34337
1.340952
1.322418
1.529524
1.548864
1.587546
1.521465
1.598828
1.552894
1.585934
1.550476
1.587546
1.562564
1.548864
1.614139
1.378828
1.349817
1.378828
1.357875
1.311136
1.38044
1.353846
1.315165
1.340147
1.328864
1.341758
1.535971
1.539194
1.539194
1.58674
1.610916
1.602051
1.589963
1.608498
1.562564
1.544835
1.583517
1.573846
1.379634
1.382051
1.344982
1.31033
1.32
1.363516
1.353846
1.313553
1.344176
1.316777
1.328059
1.340147
1.508571
1.531136
1.534359
1.57707
1.514213
1.557729
1.594799
1.598828
1.590769
1.54967
1.574652
1.601245
1.32967
1.362711
1.324835
1.3337
1.359487
1.373993
1.330476
1.335311
1.313553
1.344982
1.359487
1.303077
1.585128
1.580293
1.589157
1.560146
1.534359
1.568205
1.534359
1.542418
1.611722
1.599634
1.607692
1.325641
1.377216
1.336117
1.354652
1.327253
1.35304
1.345788
1.307106
1.377216
1.357875
1.353846
1.294212
1.552894
1.58674
1.572234
1.552894
1.558535
1.560952
1.546447
1.564982
1.614139
1.585934
1.606886
1.552894
1.361905
1.394139
1.393333
1.388498
1.353846
1.349817
1.371575
1.381245
1.386886
1.324029
1.353846
1.598022
1.581099
1.632674
1.575458
1.59641
1.663297
1.618974
1.637509
1.672967
1.660073
1.607692
1.611722
1.36674
1.415092
1.359487
1.417509
1.362711
1.369157
1.384469
1.362711
1.378022
1.394945
1.373993
1.391722
1.630256
1.590769
1.593993
1.681026
1.681026
1.639121
1.634286
1.611722
1.616557
1.644762
1.681026
1.448132
1.414286
1.436044
1.423956
1.425568
1.393333
1.443297
1.392527
1.361905
1.397363
1.373187
1.387692
1.676996
1.663297
1.685861
1.701172
1.685055
1.655238
1.660879
1.697949
1.712454
1.668938
1.656044
1.646374
1.431209
1.474725
1.434432
1.465861
1.464249
1.474725
1.448938
1.464249
1.457802
1.404615
1.389304
1.603663
1.627033
1.688278
1.625421
1.61978
1.664908
1.676996
1.670549
1.662491
1.654432
1.675385
1.639927
1.38044
1.388498
1.412674
1.377216
1.42315
1.358681
1.368352
1.387692
1.370769
1.415092
1.411062
1.373993
1.610916
1.569011
1.606081
1.607692
1.574652
1.564982
1.613333
1.578681
1.598022
1.628645
1.635897
1.356264
1.349011
1.353846
1.367546
1.328059
1.370769
1.313553
1.328059
1.328059
1.336117
1.328059
1.345788
1.535165
1.538388
1.589963
1.572234
1.542418
1.581099
1.559341
1.57707
1.559341
1.624615
1.598828
1.567399
1.340147
1.362711
1.31033
1.356264
1.338535
1.301465
1.335311
1.282125
1.302271
1.327253
1.295824
1.534359
1.585128
1.50696
1.514213
1.523077
1.580293
1.560146
1.534359
1.551282
1.580293
1.552894
1.593993
1.339341
1.355458
1.364322
1.349817
1.288571
1.299048
1.276484
1.327253
1.3337
1.287766
1.293407
1.276484
1.573846
1.572234
1.515824
1.561758
1.574652
1.57707
1.585934
1.53033
1.560146
1.58674
1.524689
1.584322
1.365128
1.361905
1.318388
1.298242
1.355458
1.324029
1.344176
1.320806
1.28696
1.290183
1.340952
1.541612
1.534359
1.545641
1.587546
1.581905
1.552088
1.590769
1.564982
1.591575
1.608498
1.581905
1.576264
1.302271
1.328059
1.323223
1.358681
1.35304
1.324835
1.301465
1.328059
1.345788
1.287766
1.319194
1.341758
1.580293
1.577875
1.541612
1.528718
1.583517
1.544029
1.558535
1.564176
1.517436
1.519048
1.57707
1.337729
1.365934
1.353846
1.349817
1.311136
1.357875
1.367546
1.29663
1.349011
1.328059
1.328864
1.339341
1.508571
1.523883
1.556923
1.552088
1.544835
1.554505
1.561758
1.54967
1.535971
1.545641
1.560952
1.547253
1.37641
1.299853
1.316777
1.32967
1.370769
1.31033
1.355458
1.344982
1.353846
1.344982
1.320806
1.362711
1.565788
1.558535
1.552894
1.58674
1.587546
1.540806
1.574652
1.573846
1.584322
1.534359
1.602857
1.388498
1.34337
1.358681
1.378022
1.353846
1.29663
1.350623
1.3063
1.328059
1.326447
1.31033
1.298242
1.336923
1.585934
1.585934
1.587546
1.520659
1.581099
1.594799
1.546447
1.58674
1.559341
1.606081
1.548059
1.326447
1.32967
1.332894
1.314359
1.330476
1.363516
1.370769
1.351429
1.31033
1.299048
1.291795
1.291795
1.588352
1.56337
1.554505
1.550476
1.585934
1.578681
1.581905
1.569011
1.58674
1.606081
1.574652
1.582711
1.332894
1.3337
1.328864
1.328059
1.369157
1.369963
1.330476
1.3063
1.358681
1.348205
1.311941
1.305494
1.555311
1.593993
1.560146
1.56337
1.562564
1.585934
1.598022
1.585934
1.565788
1.575458
1.611722
1.317582
1.381245
1.379634
1.379634
1.327253
1.353846
1.353846
1.357875
1.300659
1.314359
1.338535
1.336117
1.581905
1.59641
1.587546
1.604469
1.548864
1.534359
1.622198
1.560146
1.610916
1.598828
1.593187
1.552088
1.328059
1.377216
1.323223
1.307106
1.328059
1.353846
1.340952
1.335311
1.378828
1.332088
1.314359
1.590769
1.545641
1.569011
1.560146
1.597216
1.594799
1.560146
1.61011
1.610916
1.58674
1.57707
1.560952
1.336923
1.340952
1.291795
1.35304
1.338535
1.302271
1.315971
1.340952
1.284542
1.291795
1.32
1.340952
1.523883
1.610916
1.572234
1.560146
1.559341
1.533553
1.572234
1.575458
1.607692
1.594799
1.628645
1.602857
1.370769
1.320806
1.365934
1.3337
1.324029
1.363516
1.359487
1.311136
1.304689
1.325641
1.274872
1.277289
1.54967
1.580293
1.534359
1.598022
1.597216
1.552894
1.560952
1.606081
1.581099
1.612527
1.578681
1.340952
1.319194
1.377216
1.332894
1.315165
1.356264
1.328864
1.315971
1.284542
1.339341
1.303077
1.331282
1.535971
1.598828
1.565788
1.610916
1.572234
1.61011
1.611722
1.583517
1.585934
1.646374
1.587546
1.623004
1.407839
1.404615
1.375604
1.353846
1.385275
1.3337
1.388498
1.36674
1.379634
1.383663
1.365128
1.344176
1.58674
1.606081
1.555311
1.588352
1.590769
1.560952
1.568205
1.584322
1.620586
1.632674
1.564982
1.385275
1.349011
1.307912
1.356264
1.32
1.332088
1.348205
1.286154
1.324029
1.289377
1.328059
1.315971
1.560146
1.587546
1.533553
1.564176
1.548864
1.548059
1.560146
1.598022
1.612527
1.562564
1.610916
1.554505
1.328059
1.3337
1.379634
1.314359
1.303077
1.356264
1.327253
1.327253
1.344982
1.302271
1.354652
1.349817
1.578681
1.585934
1.577875
1.57304
1.593993
1.54967
1.552894
1.53033
1.538388
1.552088
1.536777
1.341758
1.328059
1.361099
1.357875
1.317582
1.351429
1.362711
1.331282
1.307106
1.330476
1.340952
1.34337
1.559341
1.522271
1.558535
1.54967
1.588352
1.611722
1.577875
1.601245
1.54
1.556923
1.593993
1.60044
1.585934
1.353846
1.359487
1.361099
1.325641
1.340952
1.302271
1.303077
1.28696
1.307106
1.290183
1.340147
1.608498
1.555311
1.519048
1.577875
1.571429
1.575458
1.559341
1.562564
1.556117
1.620586
1.597216
1.556117
1.351429
1.32967
1.311136
1.297436
1.361099
1.3337
1.336923
1.289377
1.364322
1.314359
1.324029
1.341758
1.548864
1.578681
1.59641
1.57304
1.544835
1.569011
1.560146
1.611722
1.591575
1.570623
1.598828
1.340952
1.340952
1.295018
1.31033
1.323223
1.324029
1.336117
1.327253
1.358681
1.311136
1.288571
1.352234
1.656044
1.676996
1.681026
1.726154
1.697143
1.73663
1.697143
1.701978
1.726154
1.766447
1.707619
1.779341
1.359487
1.409451
1.394945
1.384469
1.350623
1.370769
1.328059
1.340147
1.340952
1.276484
1.325641
1.35707
1.398168
1.378022
1.39978
1.351429
1.398168
1.379634
1.367546
1.353846
1.353846
1.341758
1.353846
1.200733
1.186227
1.199927
1.22652
1.194286
1.182198
1.236996
1.170916
1.223297
1.22652
1.190256
1.224102
1.475531
1.465055
1.503736
1.527106
1.511795
1.495678
1.519048
1.548059
1.494872
1.519853
1.510183
1.569817
1.394945
1.34337
1.34337
1.332894
1.341758
1.325641
1.336117
1.353846
1.340952
1.303883
1.351429
1.574652
1.588352
1.542418
1.545641
1.593993
1.546447
1.560146
1.601245
1.585934
1.61978
1.569011
1.624615
1.355458
1.379634
1.379634
1.328059
1.371575
1.315165
1.355458
1.328059
1.295018
1.295018
1.349817
1.342564
1.598022
1.585934
1.611722
1.601245
1.616557
1.623809
1.618974
1.616557
1.611722
1.617363
1.616557
1.328059
1.324835
1.346593
1.394139
1.317582
1.367546
1.38044
1.319194
1.32967
1.371575
1.32
1.336117
1.345788
1.567399
1.593187
1.597216
1.618974
1.577875
1.636703
1.622198
1.609304
1.58674
1.625421
1.606081
1.383663
1.378022
1.328864
1.400586
1.39011
1.350623
1.35707
1.39011
1.3337
1.338535
1.340147
1.300659
1.609304
1.555311
1.589963
1.599634
1.631062
1.585934
1.631868
1.57304
1.569011
1.575458
1.568205
1.598022
1.405421
1.383663
1.328864
1.383663
1.323223
1.358681
1.331282
1.324029
1.362711
1.302271
1.367546
1.612527
1.598022
1.544029
1.602857
1.635897
1.612527
1.626227
1.639121
1.585934
1.588352
1.637509
1.627033
1.338535
1.369157
1.341758
1.336923
1.352234
1.326447
1.340952
1.342564
1.364322
1.328059
1.39011
1.362711
1.555311
1.558535
1.612527
1.609304
1.612527
1.575458
1.609304
1.646374
1.585128
1.598022
1.564982
1.328864
1.36674
1.324029
1.361905
1.353846
1.307912
1.355458
1.349011
1.328864
1.302271
1.330476
1.324835
1.588352
1.627839
1.602857
1.60044
1.585934
1.60044
1.585934
1.575458
1.572234
1.612527
1.595604
1.637509
1.361905
1.340952
1.356264
1.353846
1.369963
1.381245
1.315165
1.31033
1.351429
1.317582
1.368352
1.32
1.560146
1.611722
1.617363
1.560146
1.622198
1.572234
1.604469
1.577875
1.626227
1.628645
1.576264
1.599634
1.417509
1.390916
1.381245
1.348205
1.345788
1.38044
1.417509
1.378022
1.337729
1.354652
1.314359
1.593187
1.637509
1.593187
1.639927
1.649597
1.645568
1.613333
1.631868
1.656044
1.584322
1.598022
1.663297
1.401392
1.436044
1.391722
1.427179
1.425568
1.36674
1.349817
1.369157
1.389304
1.385275
1.355458
1.353846
1.641538
1.610916
1.685861
1.622198
1.618974
1.693114
1.636703
1.708425
1.665714
1.665714
1.665714
1.467473
1.444908
1.39978
1.474725
1.439267
1.407839
1.461831
1.449744
1.451355
1.464249
1.435238
1.451355
1.649597
1.667326
1.701172
1.668132
1.686667
1.693114
1.661685
1.660879
1.688278
1.667326
1.685055
1.502125
1.480366
1.430403
1.433626
1.433626
1.436044
1.459414
1.467473
1.401392
1.443297
1.461831
1.470696
1.66652
1.665714
1.730183
1.701172
1.674579
1.674579
1.706813
1.69956
1.68022
1.674579
1.730183
1.716483
1.406227
1.452161
1.398168
1.396557
1.427179
1.398168
1.391722
1.372381
1.435238
1.379634
1.387692
1.604469
1.65685
1.629451
1.585934
1.625421
1.607692
1.618974
1.606081
1.599634
1.604469
1.661685
1.678608
1.361099
1.359487
1.406227
1.39978
1.341758
1.379634
1.341758
1.324029
1.369963
1.328059
1.379634
1.327253
1.392527
1.339341
1.551282
1.539194
1.535971
1.560952
1.598022
1.585934
1.595604
1.594799
1.552088
1.353846
1.37641
1.315165
1.387692
1.365128
1.312747
1.3063
1.307106
1.313553
1.354652
1.328059
1.320806
1.555311
1.533553
1.534359
1.568205
1.548059
1.598828
1.598828
1.538388
1.582711
1.544835
1.582711
1.611722
1.348205
1.289377
1.287766
1.294212
1.31033
1.303077
1.298242
1.267619
1.325641
1.331282
1.286154
1.284542
1.554505
1.522271
1.544835
1.513407
1.573846
1.572234
1.552088
1.512601
1.527106
1.543223
1.581099
1.291795
1.318388
1.328059
1.328059
1.323223
1.285348
1.269231
1.309524
1.236996
1.315971
1.312747
1.271648
1.513407
1.520659
1.570623
1.561758
1.510183
1.57707
1.541612
1.546447
1.519048
1.534359
1.577875
1.533553
1.346593
1.328864
1.377216
1.290989
1.35304
1.357875
1.354652
1.307106
1.307912
1.290183
1.317582
1.560146
1.519048
1.512601
1.531136
1.593993
1.578681
1.538388
1.564982
1.611722
1.599634
1.599634
1.597216
1.315165
1.353846
1.328059
1.291795
1.303883
1.319194
1.322418
1.34337
1.270842
1.338535
1.35304
1.324029
1.51663
1.571429
1.507766
1.547253
1.551282
1.585934
1.585934
1.534359
1.591575
1.567399
1.534359
1.328059
1.3063
1.340952
1.35707
1.357875
1.307106
1.293407
1.332088
1.312747
1.340147
1.327253
1.274066
1.572234
1.557729
1.561758
1.572234
1.587546
1.605275
1.543223
1.590769
1.534359
1.558535
1.545641
1.607692
1.303883
1.338535
1.340147
1.345788
1.300659
1.341758
1.301465
1.339341
1.336117
1.283736
1.281319
1.513407
1.581099
1.581099
1.556117
1.536777
1.594799
1.541612
1.575458
1.560146
1.589963
1.572234
1.564176
1.301465
1.354652
1.302271
1.347399
1.297436
1.309524
1.344982
1.324835
1.302271
1.297436
1.353846
1.327253
1.510989
1.585128
1.54
1.585128
1.603663
1.551282
1.585128
1.554505
1.598022
1.60044
1.557729
1.59641
1.337729
1.367546
1.323223
1.302271
1.313553
1.353846
1.355458
1.300659
1.328059
1.325641
1.341758
1.598022
1.572234
1.544835
1.572234
1.601245
1.539194
1.57707
1.548864
1.556117
1.572234
1.585934
1.568205
1.342564
1.295018
1.373993
1.353846
1.309524
1.299048
1.375604
1.357875
1.285348
1.291795
1.28696
1.3337
1.591575
1.585128
1.575458
1.527106
1.534359
1.561758
1.60044
1.534359
1.555311
1.618974
1.54
1.606081
1.369157
1.357875
1.356264
1.301465
1.332894
1.32
1.357875
1.340952
1.34337
1.346593
1.324835
1.330476
1.585128
1.528718
1.529524
1.599634
1.598828
1.560146
1.583517
1.575458
1.560146
1.539194
1.598828
1.545641
1.354652
1.316777
1.356264
1.291795
1.29663
1.324029
1.340952
1.332088
1.295018
1.332088
1.294212
1.535971
1.599634
1.534359
1.534359
1.559341
1.578681
1.614139
1.628645
1.559341
1.594799
1.591575
1.562564
1.336117
1.311136
1.355458
1.282125
1.351429
1.302271
1.355458
1.328059
1.301465
1.353846
1.3063
1.299853
1.552894
1.585934
1.610916
1.544029
1.613333
1.582711
1.581905
1.621392
1.548059
1.58674
1.564982
1.560146
1.328864
1.331282
1.394139
1.40381
1.353846
1.401392
1.372381
1.344982
1.378828
1.367546
1.34337
1.621392
1.635897
1.560146
1.598828
1.622198
1.572234
1.644762
1.616557
1.615751
1.637509
1.587546
1.585934
1.352234
1.338535
1.3337
1.3337
1.323223
1.312747
1.342564
1.322418
1.32
1.307106
1.320806
1.299853
1.510989
1.583517
1.54
1.59641
1.529524
1.538388
1.557729
1.545641
1.601245
1.559341
1.584322
1.552894
1.602857
1.3337
1.315165
1.3063
1.3063
1.299048
1.276484
1.353846
1.332088
1.34337
1.340952
1.344982
1.336923
1.606886
1.565788
1.59641
1.548059
1.593993
1.545641
1.562564
1.543223
1.622198
1.615751
1.585934
1.309524
1.304689
1.297436
1.319194
1.339341
1.317582
1.276484
1.285348
1.325641
1.288571
1.283736
1.3063
1.578681
1.534359
1.528718
1.54967
1.603663
1.523883
1.556923
1.569011
1.54
1.590769
1.558535
1.550476
1.303883
1.305494
1.312747
1.305494
1.324029
1.313553
1.311136
1.287766
1.3337
1.270842
1.278095
1.344176
1.585128
1.529524
1.569817
1.572234
1.54
1.610916
1.60044
1.625421
1.542418
1.597216
1.557729
1.583517
1.367546
1.299853
1.357875
1.300659
1.328059
1.325641
1.354652
1.346593
1.295018
1.344982
1.31033
1.337729
1.519048
1.534359
1.554505
1.578681
1.534359
1.599634
1.5263
1.564176
1.543223
1.587546
1.598828
1.560146
1.317582
1.330476
1.293407
1.35304
1.341758
1.332088
1.313553
1.283736
1.32967
1.276484
1.341758
1.597216
1.570623
1.58674
1.607692
1.548864
1.546447
1.621392
1.580293
1.618974
1.585934
1.654432
1.639121
1.534359
1.539194
1.510183
1.573846
1.517436
1.488425
1.569011
1.574652
1.572234
1.577875
1.560952
1.544835
1.625421
1.655238
1.616557
1.612527
1.598022
1.664908
1.621392
1.66652
1.60044
1.603663
1.601245
1.182198
1.214432
1.216044
1.173333
1.198315
1.189451
1.164469
1.186227
1.228938
1.219267
1.223297
1.163663
1.375604
1.401392
1.41348
1.379634
1.378022
1.43685
1.433626
1.439267
1.432015
1.448132
1.456996
1.391722
1.280513
1.290183
1.299853
1.236996
1.274872
1.307912
1.255531
1.300659
1.299048
1.3063
1.287766
1.291795
1.550476
1.598828
1.560146
1.546447
1.575458
1.571429
1.555311
1.542418
1.551282
1.585128
1.544835
1.283736
1.328059
1.312747
1.291795
1.349817
1.292601
1.300659
1.311136
1.275678
1.340952
1.295018
1.277289
1.585128
1.606081
1.61011
1.612527
1.585934
1.594799
1.585128
1.554505
1.624615
1.568205
1.58674
1.585128
1.340952
1.340147
1.362711
1.291795
1.336923
1.360293
1.312747
1.277289
1.291795
1.351429
1.294212
1.561758
1.546447
1.551282
1.626227
1.60044
1.565788
1.570623
1.593993
1.578681
1.570623
1.571429
1.564176
1.38044
1.382051
1.373993
1.379634
1.38044
1.325641
1.315971
1.358681
1.341758
1.374799
1.313553
1.378022
1.578681
1.598828
1.623809
1.552894
1.560146
1.561758
1.565788
1.636703
1.577875
1.612527
1.590769
1.327253
1.349011
1.379634
1.364322
1.31033
1.340952
1.331282
1.332894
1.356264
1.372381
1.302271
1.324029
1.611722
1.561758
1.610916
1.588352
1.602051
1.581099
1.598828
1.599634
1.57707
1.565788
1.611722
1.610916
1.391722
1.324835
1.314359
1.368352
1.332894
1.375604
1.370769
1.34337
1.381245
1.38044
1.346593
1.325641
1.550476
1.560146
1.571429
1.601245
1.616557
1.611722
1.63348
1.573846
1.577875
1.603663
1.551282
1.307106
1.314359
1.31033
1.361099
1.340147
1.341758
1.328059
1.349011
1.304689
1.359487
1.289377
1.354652
1.568205
1.559341
1.622198
1.606081
1.573846
1.568205
1.614139
1.555311
1.613333
1.57304
1.611722
1.54967
1.340147
1.344982
1.302271
1.303883
1.325641
1.356264
1.359487
1.35304
1.351429
1.356264
1.341758
1.591575
1.57707
1.623004
1.601245
1.617363
1.629451
1.569011
1.580293
1.585934
1.577875
1.562564
1.564982
1.382051
1.353846
1.328059
1.371575
1.312747
1.357875
1.323223
1.313553
1.302271
1.359487
1.34337
1.312747
1.614139
1.583517
1.598828
1.607692
1.58674
1.598828
1.58674
1.571429
1.64718
1.591575
1.628645
1.638315
1.336117
1.382051
1.39011
1.36674
1.389304
1.311941
1.370769
1.340952
1.377216
1.349817
1.372381
1.627033
1.618974
1.590769
1.620586
1.663297
1.60044
1.602051
1.624615
1.588352
1.628645
1.674579
1.648791
1.415897
1.344982
1.378022
1.379634
1.36674
1.355458
1.364322
1.370769
1.391722
1.353846
1.42315
1.40381
1.68022
1.678608
1.656044
1.632674
1.701172
1.654432
1.632674
1.636703
1.665714
1.71326
1.663297
1.705201
1.458608
1.44652
1.394945
1.423956
1.422344
1.45619
1.394945
1.444103
1.430403
1.444908
1.401392
1.41348
1.634286
1.635092
1.714872
1.637509
1.676996
1.68989
1.657656
1.697143
1.68989
1.68022
1.714066
1.701172
1.444103
1.43685
1.409451
1.405421
1.417509
1.384469
1.397363
1.410256
1.443297
1.452967
1.39011
1.648791
1.668938
1.623809
1.642344
1.681026
1.694725
1.639927
1.667326
1.688278
1.688278
1.701978
1.638315
1.365934
1.419927
1.405421
1.409451
1.405421
1.357875
1.414286
1.375604
1.384469
1.406227
1.325641
1.379634
1.629451
1.606886
1.598022
1.570623
1.578681
1.616557
1.629451
1.642344
1.581905
1.632674
1.585934
1.36674
1.365934
1.373993
1.303077
1.305494
1.304689
1.353846
1.353846
1.342564
1.324835
1.291795
1.340952
1.59641
1.572234
1.575458
1.552894
1.552894
1.584322
1.544835
1.56337
1.558535
1.60044
1.610916
1.603663
1.340952
1.335311
1.330476
1.336923
1.290989
1.346593
1.287766
1.355458
1.35304
1.339341
1.32967
1.28293
1.54
1.512601
1.560952
1.542418
1.588352
1.574652
1.545641
1.59641
1.564176
1.535165
1.601245
1.609304
1.302271
1.322418
1.302271
1.302271
1.29663
1.323223
1.291795
1.328864
1.292601
1.340952
1.270842
1.577875
1.585934
1.536777
1.523077
1.572234
1.532747
1.613333
1.559341
1.556117
1.59641
1.585934
1.606081
1.342564
1.314359
1.361905
1.35304
1.301465
1.328059
1.290183
1.311136
1.294212
1.340147
1.338535
1.328059
1.519048
1.545641
1.527912
1.583517
1.560146
1.548864
1.544029
1.591575
1.567399
1.573846
1.604469
1.355458
1.323223
1.324029
1.307106
1.291795
1.348205
1.293407
1.349817
1.29663
1.289377
1.312747
1.328059
1.508571
1.517436
1.531136
1.544835
1.578681
1.597216
1.578681
1.577875
1.589963
1.610916
1.57304
1.585934
1.352234
1.309524
1.35304
1.34337
1.346593
1.32967
1.323223
1.276484
1.265201
1.293407
1.299048
1.307912
1.531941
1.585934
1.543223
1.542418
1.57304
1.574652
1.533553
1.582711
1.597216
1.547253
1.562564
1.3063
1.34337
1.330476
1.34337
1.351429
1.282125
1.276484
1.349817
1.342564
1.285348
1.295824
1.346593
1.331282
1.589963
1.535971
1.598828
1.57304
1.535971
1.611722
1.610916
1.611722
1.581099
1.559341
1.546447
1.368352
1.328059
1.370769
1.364322
1.349817
1.341758
1.356264
1.357875
1.271648
1.282125
1.319194
1.293407
1.542418
1.577875
1.58674
1.548059
1.559341
1.602857
1.598828
1.604469
1.547253
1.541612
1.560146
1.311941
1.340147
1.34337
1.348205
1.326447
1.307106
1.328059
1.344176
1.344982
1.358681
1.324029
1.295018
1.581905
1.594799
1.54967
1.560952
1.548059
1.599634
1.552088
1.615751
1.560146
1.602051
1.606081
1.571429
1.336117
1.361905
1.304689
1.373993
1.315971
1.353846
1.325641
1.284542
1.3337
1.351429
1.346593
1.327253
1.58674
1.574652
1.552894
1.598828
1.599634
1.577875
1.598828
1.583517
1.59641
1.544835
1.548059
1.367546
1.35707
1.328059
1.298242
1.331282
1.282125
1.286154
1.307106
1.361905
1.300659
1.290183
1.32
1.302271
1.591575
1.578681
1.589963
1.548864
1.622198
1.573846
1.552894
1.571429
1.588352
1.59641
1.613333
1.354652
1.317582
1.312747
1.312747
1.301465
1.302271
1.311941
1.28696
1.3063
1.319194
1.285348
1.302271
1.535971
1.546447
1.604469
1.547253
1.585934
1.541612
1.609304
1.570623
1.627033
1.59641
1.560146
1.625421
1.311136
1.353846
1.361905
1.282125
1.354652
1.318388
1.338535
1.29663
1.327253
1.326447
1.340147
1.53033
1.607692
1.544029
1.565788
1.555311
1.598828
1.601245
1.604469
1.587546
1.603663
1.543223
1.555311
1.383663
1.35304
1.341758
1.384469
1.315165
1.385275
1.369963
1.335311
1.332894
1.375604
1.317582
1.379634
1.562564
1.560146
1.573846
1.583517
1.611722
1.564176
1.559341
1.590769
1.571429
1.622198
1.591575
1.365934
1.353846
1.359487
1.304689
1.330476
1.345788
1.331282
1.285348
1.281319
1.338535
1.340147
1.314359
1.61011
1.601245
1.534359
1.585934
1.564176
1.561758
1.562564
1.591575
1.603663
1.598828
1.560146
1.611722
1.336117
1.301465
1.354652
1.303883
1.361905
1.302271
1.328059
1.353846
1.3337
1.289377
1.290989
1.300659
1.575458
1.570623
1.552894
1.561758
1.606081
1.584322
1.57304
1.599634
1.557729
1.551282
1.604469
1.315971
1.32
1.299853
1.301465
1.348205
1.314359
1.324835
1.266007
1.309524
1.303077
1.298242
1.338535
1.560146
1.599634
1.585934
1.552894
1.538388
1.550476
1.542418
1.534359
1.59641
1.573846
1.547253
1.533553
1.338535
1.328059
1.272454
1.340952
1.288571
1.305494
1.283736
1.27326
1.287766
1.332088
1.32967
1.311941
1.560146
1.556117
1.575458
1.548864
1.58674
1.571429
1.601245
1.533553
1.556923
1.588352
1.547253
1.305494
1.311941
1.294212
1.320806
1.294212
1.325641
1.324835
1.289377
1.29663
1.290183
1.302271
1.267619
1.552894
1.510989
1.550476
1.519048
1.535165
1.534359
1.585934
1.58674
1.57304
1.606886
1.558535
1.558535
1.277289
1.336117
1.328059
1.340147
1.281319
1.316777
1.328059
1.304689
1.289377
1.280513
1.276484
1.312747
1.510989
1.534359
1.545641
1.529524
1.577875
1.585934
1.534359
1.545641
1.573846
1.531941
1.590769
1.486813
1.480366
1.418315
1.472308
1.443297
1.44652
1.484396
1.482784
1.484396
1.466667
1.415092
1.484396
1.664908
1.678608
1.635092
1.635092
1.658462
1.649597
1.622198
1.614139
1.655238
1.601245
1.602051
1.228132
1.233773
1.22652
1.182198
1.205568
1.176557
1.201538
1.162051
1.175751
1.15641
1.162051
1.206374
1.299048
1.317582
1.313553
1.302271
1.351429
1.332894
1.391722
1.382051
1.396557
1.341758
1.405421
1.339341
1.276484
1.220073
1.288571
1.281319
1.269231
1.224908
1.279707
1.264396
1.225714
1.252308
1.236996
1.58674
1.544835
1.58674
1.534359
1.591575
1.541612
1.547253
1.552088
1.589963
1.562564
1.548059
1.58674
1.362711
1.302271
1.369157
1.304689
1.344982
1.291795
1.302271
1.327253
1.338535
1.312747
1.351429
1.316777
1.568205
1.593993
1.560146
1.583517
1.581905
1.556117
1.564176
1.603663
1.64718
1.562564
1.641538
1.585934
1.340952
1.38044
1.352234
1.365934
1.36674
1.365128
1.35707
1.330476
1.315971
1.340952
1.290989
1.562564
1.585934
1.615751
1.58674
1.562564
1.597216
1.560146
1.635092
1.594799
1.639927
1.610916
1.583517
1.349817
1.379634
1.352234
1.37641
1.312747
1.370769
1.307912
1.375604
1.348205
1.313553
1.36674
1.344982
1.593187
1.560952
1.620586
1.61011
1.593993
1.585934
1.606081
1.587546
1.630256
1.610916
1.607692
1.616557
1.378022
1.336117
1.353846
1.377216
1.396557
1.39011
1.328059
1.387692
1.379634
1.307912
1.369157
1.614139
1.618974
1.627033
1.595604
1.637509
1.564982
1.606886
1.581099
1.618974
1.616557
1.561758
1.637509
1.342564
1.342564
1.359487
1.382051
1.372381
1.364322
1.332088
1.369157
1.320806
1.372381
1.353846
1.625421
1.564176
1.602051
1.581905
1.656044
1.639927
1.649597
1.639927
1.63348
1.645568
1.580293
1.657656
1.381245
1.340952
1.375604
1.379634
1.378828
1.388498
1.364322
1.382051
1.362711
1.35304
1.348205
1.378828
1.587546
1.581099
1.595604
1.598828
1.638315
1.575458
1.624615
1.623809
1.585934
1.606886
1.664103
1.345788
1.373993
1.341758
1.328059
1.339341
1.309524
1.320806
1.324835
1.320806
1.336923
1.388498
1.341758
1.572234
1.572234
1.585934
1.602051
1.642344
1.585934
1.616557
1.606081
1.662491
1.61978
1.663297
1.637509
1.378828
1.361099
1.420733
1.356264
1.407033
1.332088
1.395751
1.394945
1.359487
1.394139
1.403004
1.638315
1.606081
1.598022
1.637509
1.678608
1.612527
1.646374
1.688278
1.625421
1.625421
1.636703
1.637509
1.361905
1.40381
1.365934
1.425568
1.430403
1.420733
1.405421
1.430403
1.418315
1.426374
1.392527
1.372381
1.635092
1.623004
1.644762
1.64315
1.712454
1.673773
1.723736
1.664103
1.72696
1.728571
1.665714
1.416703
1.456996
1.473919
1.410256
1.462637
1.478755
1.417509
1.468278
1.469084
1.405421
1.407033
1.456996
1.7463
1.689084
1.705201
1.738242
1.745494
1.702784
1.718901
1.766447
1.7737
1.727766
1.737436
1.735824
1.448938
1.511795
1.456996
1.482784
1.495678
1.438462
1.511795
1.473919
1.440073
1.486813
1.480366
1.477143
1.717289
1.753553
1.716483
1.747912
1.739048
1.698755
1.738242
1.715678
1.717289
1.704396
1.70359
1.498095
1.465861
1.47956
1.44652
1.457802
1.461026
1.436044
1.475531
1.42315
1.454579
1.425568
1.461026
1.674579
1.683443
1.663297
1.701978
1.681831
1.710843
1.674579
1.684249
1.735018
1.639927
1.69956
1.702784
1.416703
1.403004
1.405421
1.382857
1.423956
1.432015
1.425568
1.381245
1.406227
1.386886
1.431209
1.637509
1.637509
1.598022
1.676996
1.623809
1.664103
1.601245
1.674579
1.613333
1.58674
1.643956
1.602051
1.623004
1.599634
1.349011
1.351429
1.345788
1.354652
1.38044
1.358681
1.354652
1.322418
1.32
1.346593
1.556117
1.610916
1.622198
1.626227
1.617363
1.580293
1.624615
1.604469
1.61011
1.638315
1.585934
1.57707
1.39011
1.378828
1.312747
1.314359
1.352234
1.300659
1.326447
1.340147
1.328059
1.338535
1.353846
1.298242
1.572234
1.591575
1.585128
1.594799
1.564176
1.612527
1.588352
1.543223
1.611722
1.554505
1.598022
1.359487
1.354652
1.307912
1.355458
1.328059
1.328059
1.294212
1.304689
1.364322
1.29663
1.35707
1.289377
1.560146
1.548864
1.588352
1.537582
1.629451
1.611722
1.608498
1.622198
1.584322
1.573846
1.580293
1.560146
1.367546
1.328059
1.361099
1.367546
1.288571
1.328059
1.34337
1.301465
1.301465
1.365934
1.339341
1.564982
1.625421
1.562564
1.581905
1.560146
1.564176
1.585934
1.625421
1.620586
1.578681
1.610916
1.568205
1.295018
1.359487
1.299048
1.370769
1.295018
1.345788
1.353846
1.276484
1.356264
1.285348
1.328059
1.374799
1.57707
1.562564
1.576264
1.565788
1.577875
1.598828
1.647985
1.625421
1.626227
1.577875
1.577875
1.35707
1.35707
1.356264
1.328864
1.326447
1.361905
1.307912
1.311136
1.344982
1.360293
1.297436
1.315971
1.562564
1.603663
1.556117
1.560952
1.621392
1.614139
1.591575
1.639121
1.64315
1.615751
1.57707
1.618974
1.388498
1.393333
1.353846
1.354652
1.319194
1.314359
1.328059
1.382051
1.373993
1.326447
1.384469
1.344176
1.603663
1.634286
1.644762
1.618974
1.578681
1.574652
1.585934
1.585128
1.63348
1.649597
1.613333
1.328059
1.320806
1.361905
1.311136
1.349817
1.374799
1.315165
1.316777
1.369157
1.379634
1.32967
1.3337
1.580293
1.628645
1.627033
1.585128
1.64315
1.64315
1.602051
1.575458
1.618168
1.623809
1.591575
1.627839
1.327253
1.331282
1.394139
1.394945
1.393333
1.356264
1.332894
1.327253
1.324029
1.328059
1.328864
1.324835
1.638315
1.644762
1.649597
1.641538
1.632674
1.659267
1.631868
1.613333
1.585934
1.623004
1.630256
1.382051
1.356264
1.325641
1.362711
1.3337
1.379634
1.328059
1.351429
1.303883
1.353846
1.324029
1.328059
1.616557
1.607692
1.560146
1.572234
1.606886
1.645568
1.560952
1.635092
1.638315
1.637509
1.569011
1.361099
1.340952
1.32
1.327253
1.326447
1.378022
1.378828
1.346593
1.370769
1.341758
1.344176
1.40381
1.328059
1.561758
1.608498
1.57707
1.593187
1.583517
1.575458
1.588352
1.637509
1.643956
1.64718
1.642344
1.340952
1.404615
1.359487
1.381245
1.340147
1.324029
1.379634
1.328864
1.379634
1.328059
1.361099
1.382051
1.630256
1.598828
1.637509
1.591575
1.663297
1.667326
1.657656
1.663297
1.628645
1.673773
1.641538
1.639927
1.418315
1.390916
1.358681
1.373993
1.414286
1.379634
1.357875
1.364322
1.353846
1.405421
1.357875
1.663297
1.644762
1.591575
1.658462
1.632674
1.630256
1.630256
1.638315
1.598022
1.578681
1.614139
1.641538
1.335311
1.394139
1.341758
1.319194
1.353846
1.336923
1.320806
1.353846
1.317582
1.379634
1.312747
1.609304
1.557729
1.588352
1.602857
1.620586
1.615751
1.567399
1.637509
1.585934
1.570623
1.623809
1.620586
1.338535
1.362711
1.349817
1.304689
1.320806
1.31033
1.332894
1.352234
1.32
1.353846
1.330476
1.326447
1.570623
1.588352
1.577875
1.641538
1.574652
1.607692
1.629451
1.641538
1.634286
1.616557
1.620586
1.569011
1.372381
1.328059
1.326447
1.377216
1.374799
1.302271
1.315165
1.368352
1.328059
1.328059
1.353846
1.58674
1.593993
1.637509
1.54967
1.603663
1.611722
1.625421
1.609304
1.63348
1.61011
1.564982
1.608498
1.360293
1.328864
1.349011
1.311136
1.377216
1.325641
1.313553
1.332088
1.298242
1.324835
1.365934
1.36674
1.639927
1.562564
1.564176
1.606886
1.631868
1.64315
1.589963
1.639121
1.630256
1.625421
1.577875
1.575458
1.340952
1.362711
1.349817
1.377216
1.353846
1.340952
1.340147
1.34337
1.328059
1.370769
1.324029
1.569011
1.597216
1.581099
1.585934
1.606886
1.607692
1.635897
1.560146
1.612527
1.589157
1.593187
1.602857
1.312747
1.382051
1.341758
1.383663
1.35304
1.291795
1.353846
1.357875
1.357875
1.386886
1.353846
1.323223
1.726154
1.765641
1.73663
1.748718
1.731795
1.802711
1.759194
1.805128
1.815604
1.7737
1.834945
1.420733
1.419927
1.391722
1.382051
1.365934
1.337729
1.379634
1.350623
1.367546
1.358681
1.357875
1.388498
1.371575
1.382051
1.410256
1.40381
1.414286
1.384469
1.383663
1.394139
1.394139
1.396557
1.377216
1.389304
1.236996
1.22652
1.174139
1.187839
1.199121
1.207985
1.172527
1.199121
1.236996
1.236996
1.212821
1.523077
1.558535
1.533553
1.546447
1.519853
1.513407
1.576264
1.531941
1.519048
1.521465
1.575458
1.534359
1.345788
1.344176
1.414286
1.353846
1.39011
1.353846
1.377216
1.365128
1.298242
1.364322
1.383663
1.393333
1.611722
1.598022
1.589963
1.572234
1.593187
1.634286
1.591575
1.590769
1.612527
1.573846
1.662491
1.349817
1.334505
1.344982
1.336923
1.328059
1.330476
1.391722
1.379634
1.367546
1.377216
1.348205
1.348205
1.61978
1.662491
1.57707
1.60044
1.606886
1.637509
1.614139
1.588352
1.591575
1.598022
1.668938
1.637509
1.332894
1.365128
1.374799
1.344176
1.353846
1.338535
1.38044
1.365128
1.384469
1.385275
1.398168
1.37641
1.593993
1.660879
1.635897
1.629451
1.637509
1.634286
1.614139
1.609304
1.646374
1.655238
1.585934
1.365128
1.407033
1.359487
1.409451
1.394139
1.364322
1.379634
1.326447
1.395751
1.348205
1.362711
1.392527
1.614945
1.654432
1.663297
1.585128
1.645568
1.604469
1.591575
1.604469
1.65685
1.630256
1.609304
1.623809
1.374799
1.374799
1.365128
1.377216
1.375604
1.353846
1.377216
1.336117
1.385275
1.328059
1.3337
1.620586
1.60044
1.591575
1.649597
1.612527
1.657656
1.636703
1.623004
1.647985
1.61011
1.598022
1.609304
1.359487
1.405421
1.342564
1.414286
1.392527
1.336117
1.342564
1.372381
1.397363
1.361905
1.344176
1.341758
1.627033
1.645568
1.577875
1.629451
1.621392
1.663297
1.648791
1.594799
1.614139
1.61978
1.623809
1.400586
1.385275
1.353846
1.349817
1.405421
1.35304
1.327253
1.341758
1.373993
1.364322
1.390916
1.382051
1.660879
1.609304
1.673773
1.637509
1.667326
1.61011
1.611722
1.630256
1.610916
1.623809
1.59641
1.587546
1.378828
1.342564
1.372381
1.34337
1.39011
1.328059
1.390916
1.382051
1.374799
1.367546
1.379634
1.335311
1.598828
1.639927
1.612527
1.58674
1.659267
1.664103
1.667326
1.663297
1.66652
1.658462
1.639121
1.379634
1.384469
1.350623
1.361905
1.410256
1.409451
1.35304
1.394945
1.368352
1.403004
1.409451
1.349817
1.612527
1.628645
1.611722
1.609304
1.639121
1.672161
1.686667
1.637509
1.623809
1.689084
1.672161
1.623809
1.444908
1.356264
1.391722
1.433626
1.396557
1.378828
1.415897
1.379634
1.443297
1.431209
1.379634
1.708425
1.730183
1.731795
1.721319
1.688278
1.733407
1.688278
1.685055
1.663297
1.720513
1.663297
1.72696
1.482784
1.434432
1.443297
1.42315
1.405421
1.464249
1.461831
1.429597
1.461026
1.42315
1.448938
1.431209
1.73663
1.675385
1.752747
1.725348
1.738242
1.681026
1.68989
1.719707
1.697143
1.75033
1.712454
1.753553
1.456996
1.445714
1.485201
1.472308
1.449744
1.417509
1.43282
1.422344
1.448938
1.416703
1.443297
1.73663
1.672161
1.714872
1.740659
1.691502
1.723736
1.718901
1.751135
1.73663
1.745494
1.716483
1.758388
1.472308
1.461026
1.464249
1.423956
1.463443
1.416703
1.431209
1.402198
1.394945
1.464249
1.394945
1.43685
1.671355
1.678608
1.64718
1.61011
1.685861
1.623004
1.613333
1.637509
1.659267
1.683443
1.637509
1.663297
1.346593
1.378828
1.401392
1.398168
1.385275
1.38044
1.359487
1.378828
1.395751
1.353846
1.336923
1.585934
1.636703
1.611722
1.593187
1.612527
1.637509
1.573846
1.637509
1.610916
1.635092
1.637509
1.564982
1.356264
1.328059
1.381245
1.354652
1.316777
1.336117
1.303883
1.405421
1.314359
1.378022
1.379634
1.328059
1.591575
1.618974
1.60044
1.573846
1.560952
1.560146
1.626227
1.57707
1.599634
1.552088
1.557729
1.358681
1.31033
1.304689
1.307912
1.357875
1.352234
1.379634
1.361905
1.342564
1.349011
1.361099
1.340147
1.562564
1.581099
1.597216
1.616557
1.569817
1.636703
1.613333
1.610916
1.565788
1.585934
1.556117
1.590769
1.364322
1.353846
1.354652
1.330476
1.316777
1.365128
1.336923
1.378828
1.377216
1.311136
1.315971
1.607692
1.607692
1.61011
1.568205
1.569011
1.584322
1.635897
1.560146
1.627839
1.560952
1.569817
1.556117
1.378022
1.31033
1.320806
1.375604
1.345788
1.344176
1.326447
1.298242
1.340147
1.38044
1.328059
1.382051
1.623809
1.57304
1.615751
1.63348
1.593993
1.593187
1.576264
1.572234
1.584322
1.60044
1.642344
1.593993
1.394945
1.336923
1.323223
1.358681
1.357875
1.364322
1.328059
1.340952
1.374799
1.381245
1.316777
1.641538
1.625421
1.589963
1.575458
1.620586
1.622198
1.649597
1.644762
1.669744
1.649597
1.63348
1.574652
1.358681
1.39011
1.324835
1.328059
1.328864
1.361905
1.381245
1.385275
1.324029
1.355458
1.354652
1.345788
1.618974
1.568205
1.636703
1.560146
1.575458
1.571429
1.594799
1.571429
1.590769
1.565788
1.564176
1.365934
1.319194
1.354652
1.336117
1.356264
1.393333
1.35304
1.364322
1.312747
1.340147
1.317582
1.355458
1.59641
1.640733
1.597216
1.646374
1.663297
1.594799
1.638315
1.663297
1.606081
1.58674
1.660879
1.628645
1.359487
1.349817
1.3063
1.358681
1.39011
1.357875
1.382051
1.381245
1.332088
1.353846
1.332894
1.367546
1.585934
1.637509
1.649597
1.654432
1.637509
1.599634
1.662491
1.658462
1.611722
1.581099
1.58674
1.336923
1.340952
1.332088
1.388498
1.326447
1.323223
1.369157
1.35304
1.391722
1.392527
1.357875
1.364322
1.622198
1.585934
1.603663
1.598828
1.64315
1.64315
1.623809
1.660073
1.593187
1.620586
1.581099
1.658462
1.370769
1.379634
1.341758
1.367546
1.356264
1.349817
1.349011
1.338535
1.35707
1.36674
1.340147
1.379634
1.63348
1.631868
1.630256
1.601245
1.581905
1.598022
1.646374
1.599634
1.63348
1.593993
1.565788
1.379634
1.365934
1.364322
1.328864
1.320806
1.361099
1.353846
1.340952
1.311136
1.303883
1.336117
1.341758
1.602857
1.623809
1.637509
1.610916
1.610916
1.638315
1.630256
1.576264
1.588352
1.57707
1.569817
1.588352
1.37641
1.375604
1.330476
1.388498
1.353846
1.322418
1.311136
1.36674
1.304689
1.328059
1.315971
1.591575
1.602857
1.575458
1.598828
1.64315
1.637509
1.608498
1.636703
1.566593
1.587546
1.63348
1.59641
1.328059
1.316777
1.324835
1.35304
1.38044
1.348205
1.354652
1.320806
1.365934
1.369963
1.369157
1.371575
1.614139
1.603663
1.606886
1.611722
1.599634
1.630256
1.636703
1.672967
1.64718
1.617363
1.61011
1.667326
1.356264
1.397363
1.355458
1.345788
1.419121
1.338535
1.405421
1.34337
1.396557
1.379634
1.361099
1.406227
1.598828
1.641538
1.648791
1.576264
1.628645
1.642344
1.658462
1.63348
1.644762
1.598022
1.61978
1.35304
1.304689
1.328864
1.303883
1.319194
1.351429
1.328059
1.344982
1.365934
1.374799
1.378022
1.356264
1.628645
1.657656
1.598828
1.627033
1.609304
1.57707
1.639927
1.587546
1.581905
1.638315
1.637509
1.622198
1.369963
1.355458
1.328059
1.324029
1.378022
1.332894
1.324029
1.34337
1.379634
1.316777
1.36674
1.323223
1.57304
1.552088
1.583517
1.581905
1.608498
1.611722
1.616557
1.629451
1.560146
1.598022
1.635092
1.301465
1.328059
1.327253
1.379634
1.336117
1.340952
1.314359
1.355458
1.324029
1.302271
1.32967
1.381245
1.565788
1.636703
1.632674
1.607692
1.639927
1.598022
1.629451
1.623809
1.560146
1.598828
1.56337
1.577875
1.372381
1.311941
1.349817
1.336923
1.353846
1.370769
1.359487
1.365128
1.302271
1.313553
1.307106
1.591575
1.587546
1.585934
1.571429
1.623809
1.593993
1.635897
1.602857
1.623809
1.63348
1.585934
1.565788
1.351429
1.328059
1.303883
1.362711
1.317582
1.332088
1.332088
1.369963
1.324029
1.307106
1.3337
1.290989
1.552894
1.588352
1.611722
1.595604
1.636703
1.591575
1.606886
1.609304
1.583517
1.564176
1.556117
1.373993
1.394945
1.3337
1.34337
1.32967
1.354652
1.356264
1.342564
1.348205
1.406227
1.405421
1.344982
1.385275
1.791429
1.804322
1.843004
1.818022
1.847839
1.861538
1.792234
1.801099
1.810769
1.842198
1.822857
1.422344
1.404615
1.443297
1.420733
1.387692
1.351429
1.407839
1.388498
1.432015
1.409451
1.369157
1.382051
1.332894
1.424762
1.403004
1.379634
1.403004
1.384469
1.389304
1.431209
1.353846
1.346593
1.354652
1.220073
1.236996
1.220879
1.253919
1.220879
1.268425
1.236996
1.207179
1.260366
1.223297
1.236996
1.183004
1.560146
1.509377
1.551282
1.536777
1.527106
1.542418
1.565788
1.544835
1.59641
1.585128
1.54967
1.588352
1.304689
1.298242
1.353846
1.327253
1.353846
1.354652
1.309524
1.324029
1.326447
1.318388
1.365128
1.611722
1.546447
1.609304
1.558535
1.561758
1.604469
1.60044
1.54967
1.616557
1.556923
1.614139
1.569817
1.315165
1.303883
1.365128
1.339341
1.315971
1.328059
1.340147
1.355458
1.312747
1.378828
1.349011
1.340147
1.635897
1.593993
1.597216
1.637509
1.58674
1.602857
1.59641
1.57304
1.614139
1.602857
1.594799
1.336117
1.307106
1.377216
1.360293
1.345788
1.374799
1.361099
1.35304
1.351429
1.369963
1.365128
1.36674
1.565788
1.552088
1.598022
1.597216
1.610916
1.61011
1.57304
1.58674
1.571429
1.637509
1.570623
1.63348
1.356264
1.391722
1.341758
1.383663
1.34337
1.342564
1.372381
1.312747
1.3063
1.319194
1.369157
1.328864
1.611722
1.583517
1.564176
1.565788
1.620586
1.618974
1.578681
1.637509
1.591575
1.583517
1.597216
1.637509
1.336923
1.335311
1.314359
1.352234
1.311136
1.302271
1.315971
1.313553
1.356264
1.314359
1.340952
1.599634
1.606886
1.644762
1.592381
1.618974
1.618168
1.630256
1.612527
1.585128
1.564176
1.599634
1.574652
1.379634
1.39011
1.338535
1.351429
1.392527
1.370769
1.316777
1.378828
1.37641
1.303077
1.336923
1.324029
1.611722
1.624615
1.624615
1.598828
1.660879
1.572234
1.631868
1.641538
1.649597
1.639927
1.61978
1.326447
1.32967
1.34337
1.361905
1.338535
1.304689
1.284542
1.304689
1.359487
1.375604
1.375604
1.337729
1.611722
1.606886
1.585128
1.60044
1.623809
1.637509
1.59641
1.578681
1.58674
1.568205
1.560952
1.645568
1.3337
1.394945
1.36674
1.302271
1.32967
1.383663
1.362711
1.305494
1.297436
1.31033
1.32967
1.369157
1.581905
1.604469
1.602051
1.611722
1.58674
1.599634
1.617363
1.560146
1.584322
1.583517
1.569011
1.607692
1.359487
1.315971
1.320806
1.363516
1.372381
1.378828
1.328059
1.34337
1.360293
1.390916
1.390916
1.336117
1.561758
1.631868
1.68022
1.639121
1.661685
1.677802
1.626227
1.637509
1.63348
1.624615
1.672161
1.354652
1.342564
1.400586
1.406227
1.40381
1.405421
1.353846
1.388498
1.368352
1.408645
1.357875
1.426374
1.629451
1.664908
1.678608
1.636703
1.659267
1.696337
1.623004
1.709231
1.644762
1.688278
1.664908
1.632674
1.407839
1.428791
1.438462
1.404615
1.440073
1.384469
1.462637
1.374799
1.383663
1.456996
1.45619
1.69956
1.689084
1.658462
1.710037
1.70359
1.758388
1.697143
1.68022
1.656044
1.712454
1.658462
1.704396
1.499707
1.45619
1.432015
1.47956
1.414286
1.456996
1.469084
1.457802
1.471502
1.430403
1.449744
1.477949
1.668938
1.686667
1.645568
1.681026
1.63348
1.64315
1.678608
1.640733
1.698755
1.642344
1.701172
1.615751
1.375604
1.431209
1.436044
1.395751
1.414286
1.353846
1.345788
1.387692
1.402198
1.415897
1.414286
1.431209
1.639927
1.611722
1.685055
1.602857
1.61978
1.632674
1.667326
1.610916
1.672161
1.617363
1.676996
1.396557
1.34337
1.388498
1.405421
1.338535
1.378022
1.332894
1.344176
1.371575
1.382051
1.382857
1.336117
1.637509
1.656044
1.610916
1.574652
1.61011
1.639927
1.606886
1.598022
1.635092
1.636703
1.611722
1.601245
1.300659
1.365128
1.325641
1.327253
1.32967
1.369157
1.362711
1.298242
1.374799
1.300659
1.377216
1.624615
1.571429
1.60044
1.561758
1.628645
1.657656
1.638315
1.631868
1.641538
1.565788
1.560146
1.601245
1.325641
1.383663
1.339341
1.367546
1.382051
1.327253
1.302271
1.367546
1.303077
1.36674
1.332088
1.365128
1.565788
1.630256
1.604469
1.568205
1.58674
1.609304
1.548864
1.544835
1.593993
1.64315
1.534359
1.601245
1.623004
1.340952
1.327253
1.302271
1.32967
1.353846
1.312747
1.312747
1.309524
1.315971
1.346593
1.611722
1.601245
1.560146
1.56337
1.574652
1.582711
1.635897
1.622198
1.571429
1.61011
1.580293
1.613333
1.346593
1.362711
1.358681
1.360293
1.378022
1.32
1.316777
1.34337
1.369157
1.327253
1.312747
1.328864
1.63348
1.639121
1.622198
1.610916
1.593187
1.648791
1.664103
1.581099
1.614139
1.61011
1.658462
1.611722
1.393333
1.373993
1.328864
1.364322
1.315165
1.324835
1.367546
1.327253
1.313553
1.348205
1.336923
1.590769
1.606081
1.581905
1.614139
1.628645
1.61011
1.560146
1.565788
1.560146
1.637509
1.608498
1.602857
1.294212
1.328059
1.355458
1.316777
1.362711
1.36674
1.346593
1.336117
1.307912
1.365934
1.365934
1.349011
1.595604
1.580293
1.583517
1.607692
1.602857
1.620586
1.637509
1.606081
1.628645
1.560952
1.558535
1.328059
1.367546
1.357875
1.365934
1.288571
1.300659
1.357875
1.354652
1.362711
1.356264
1.307912
1.35707
1.606081
1.599634
1.591575
1.637509
1.635897
1.574652
1.606886
1.601245
1.623809
1.560952
1.603663
1.585934
1.358681
1.370769
1.328059
1.379634
1.379634
1.324029
1.351429
1.315165
1.392527
1.328059
1.314359
1.637509
1.585128
1.582711
1.637509
1.637509
1.624615
1.632674
1.626227
1.56337
1.618974
1.57707
1.609304
1.328059
1.317582
1.353846
1.315165
1.362711
1.37641
1.365128
1.327253
1.349011
1.324835
1.315165
1.390916
1.61011
1.613333
1.625421
1.649597
1.627839
1.620586
1.644762
1.57707
1.584322
1.639927
1.569011
1.587546
1.394945
1.348205
1.3063
1.375604
1.371575
1.358681
1.313553
1.420733
1.307912
1.34337
1.319194
1.598022
1.626227
1.606081
1.627033
1.602857
1.560952
1.557729
1.624615
1.597216
1.573846
1.598022
1.588352
1.328059
1.38044
1.311136
1.308718
1.379634
1.365934
1.378022
1.320806
1.334505
1.346593
1.370769
1.324029
1.618168
1.61978
1.575458
1.571429
1.614945
1.620586
1.627033
1.628645
1.587546
1.631868
1.577875
1.307912
1.370769
1.320806
1.365128
1.353846
1.351429
1.342564
1.348205
1.367546
1.31033
1.328059
1.311941
1.616557
1.567399
1.649597
1.581099
1.61011
1.637509
1.57707
1.580293
1.624615
1.638315
1.632674
1.623809
1.407033
1.392527
1.364322
1.379634
1.3337
1.391722
1.39011
1.35707
1.328059
1.37641
1.354652
1.364322
1.614945
1.618974
1.658462
1.668132
1.675385
1.661685
1.683443
1.613333
1.603663
1.635092
1.607692
1.604469
1.344982
1.393333
1.400586
1.324029
1.340952
1.359487
1.381245
1.3337
1.348205
1.338535
1.386886
1.561758
1.623809
1.635092
1.638315
1.58674
1.584322
1.607692
1.60044
1.637509
1.581099
1.56337
1.557729
1.304689
1.326447
1.326447
1.314359
1.365934
1.311136
1.305494
1.315165
1.365934
1.328059
1.332894
1.337729
1.561758
1.608498
1.561758
1.629451
1.57707
1.622198
1.585128
1.570623
1.561758
1.637509
1.588352
1.559341
1.351429
1.339341
1.338535
1.304689
1.302271
1.340147
1.352234
1.377216
1.307912
1.35304
1.338535
1.57707
1.623809
1.635092
1.590769
1.602051
1.61011
1.616557
1.606886
1.630256
1.622198
1.612527
1.585934
1.349011
1.342564
1.375604
1.324029
1.348205
1.284542
1.365934
1.31033
1.315971
1.381245
1.357875
1.324029
1.614945
1.564982
1.628645
1.588352
1.584322
1.569011
1.611722
1.587546
1.627033
1.627839
1.570623
1.303883
1.313553
1.369157
1.370769
1.348205
1.36674
1.301465
1.370769
1.311136
1.316777
1.371575
1.307912
1.604469
1.610916
1.57304
1.583517
1.598828
1.602051
1.588352
1.602051
1.60044
1.610916
1.615751
1.576264
1.291795
1.289377
1.340147
1.298242
1.336923
1.340147
1.364322
1.35304
1.342564
1.338535
1.358681
1.31033
1.569011
1.603663
1.564176
1.555311
1.560952
1.565788
1.632674
1.585128
1.616557
1.611722
1.604469
1.472308
1.474725
1.500513
1.440879
1.499707
1.468278
1.498901
1.533553
1.490037
1.465861
1.54
1.529524
1.851062
1.826886
1.794652
1.78337
1.739048
1.738242
1.784982
1.778535
1.714872
1.672161
1.714872
1.667326
1.311136
1.264396
1.236996
1.197509
1.223297
1.212821
1.210403
1.254725
1.236996
1.210403
1.253919
1.255531
1.392527
1.354652
1.354652
1.354652
1.349011
1.433626
1.392527
1.359487
1.405421
1.383663
1.405421
1.278095
1.276484
1.299048
1.317582
1.236996
1.23619
1.285348
1.295018
1.295018
1.271648
1.312747
1.28696
1.594799
1.653626
1.636703
1.648791
1.599634
1.667326
1.639927
1.589963
1.637509
1.629451
1.561758
1.637509
1.378828
1.327253
1.364322
1.361905
1.317582
1.378828
1.327253
1.375604
1.353846
1.338535
1.340952
1.637509
1.60044
1.607692
1.599634
1.623004
1.595604
1.591575
1.660879
1.646374
1.59641
1.585934
1.583517
1.415897
1.369963
1.362711
1.400586
1.328864
1.373993
1.346593
1.39011
1.3337
1.407839
1.405421
1.35707
1.610916
1.597216
1.642344
1.589963
1.603663
1.630256
1.642344
1.575458
1.588352
1.609304
1.641538
1.334505
1.32967
1.372381
1.365128
1.377216
1.398168
1.38044
1.355458
1.370769
1.404615
1.356264
1.394945
1.59641
1.649597
1.635092
1.662491
1.622198
1.675385
1.645568
1.618974
1.622198
1.668938
1.637509
1.618974
1.396557
1.361905
1.398168
1.353846
1.355458
1.335311
1.314359
1.403004
1.346593
1.39011
1.356264
1.346593
1.611722
1.606886
1.659267
1.604469
1.67619
1.63348
1.667326
1.607692
1.671355
1.613333
1.628645
1.392527
1.345788
1.402198
1.365934
1.393333
1.349011
1.328059
1.401392
1.372381
1.336117
1.403004
1.427179
1.59641
1.617363
1.611722
1.649597
1.631868
1.627033
1.664103
1.611722
1.667326
1.611722
1.63348
1.659267
1.345788
1.348205
1.368352
1.349817
1.338535
1.392527
1.385275
1.346593
1.386886
1.400586
1.416703
1.61011
1.585934
1.607692
1.622198
1.627033
1.623809
1.611722
1.585934
1.598022
1.617363
1.606886
1.588352
1.3337
1.351429
1.384469
1.353846
1.354652
1.377216
1.364322
1.39011
1.377216
1.34337
1.404615
1.419927
1.575458
1.624615
1.640733
1.660879
1.64315
1.63348
1.602857
1.609304
1.616557
1.588352
1.611722
1.589963
1.38044
1.406227
1.38044
1.345788
1.405421
1.355458
1.394945
1.405421
1.38044
1.415092
1.396557
1.409451
1.615751
1.673773
1.612527
1.681831
1.61011
1.630256
1.689084
1.606081
1.607692
1.607692
1.688278
1.672161
1.423956
1.419121
1.416703
1.39978
1.382051
1.404615
1.379634
1.449744
1.400586
1.375604
1.427985
1.693114
1.697143
1.706813
1.701172
1.723736
1.706007
1.673773
1.708425
1.72293
1.720513
1.696337
1.683443
1.43685
1.459414
1.438462
1.49326
1.477143
1.47956
1.482784
1.477949
1.486813
1.431209
1.443297
1.418315
1.702784
1.751135
1.716483
1.760806
1.741465
1.681026
1.740659
1.689084
1.707619
1.714066
1.710843
1.469084
1.427179
1.495678
1.448132
1.461026
1.496483
1.427985
1.481172
1.498095
1.461026
1.456996
1.487619
1.691502
1.686667
1.708425
1.714872
1.753553
1.704396
1.693919
1.691502
1.776923
1.751135
1.766447
1.710843
1.444908
1.477949
1.481978
1.485201
1.480366
1.492454
1.456996
1.46989
1.496483
1.451355
1.434432
1.646374
1.735018
1.674579
1.68022
1.710843
1.656044
1.73663
1.743077
1.66652
1.724542
1.714872
1.649597
1.374799
1.365128
1.406227
1.38044
1.360293
1.39978
1.390916
1.374799
1.419121
1.419121
1.402198
1.39978
1.659267
1.59641
1.637509
1.64315
1.656044
1.683443
1.65685
1.663297
1.660879
1.662491
1.604469
1.604469
1.353846
1.394945
1.351429
1.390916
1.328059
1.336923
1.370769
1.316777
1.383663
1.351429
1.32
1.327253
1.60044
1.591575
1.588352
1.604469
1.624615
1.578681
1.615751
1.611722
1.575458
1.635897
1.628645
1.637509
1.38044
1.316777
1.311136
1.314359
1.34337
1.357875
1.351429
1.311136
1.307912
1.317582
1.31033
1.350623
1.612527
1.571429
1.552894
1.571429
1.625421
1.56337
1.617363
1.601245
1.624615
1.617363
1.612527
1.353846
1.331282
1.328059
1.305494
1.359487
1.32967
1.314359
1.291795
1.313553
1.353846
1.332088
1.290183
1.623004
1.56337
1.54967
1.582711
1.60044
1.609304
1.558535
1.613333
1.614139
1.618974
1.58674
1.543223
1.370769
1.359487
1.304689
1.294212
1.34337
1.362711
1.302271
1.368352
1.328059
1.378828
1.364322
1.340952
1.560146
1.614139
1.624615
1.562564
1.642344
1.565788
1.607692
1.568205
1.626227
1.564982
1.582711
1.298242
1.301465
1.315971
1.354652
1.353846
1.378828
1.332088
1.378828
1.374799
1.3337
1.36674
1.307106
1.620586
1.598828
1.569011
1.61978
1.612527
1.581099
1.552088
1.617363
1.57304
1.597216
1.562564
1.572234
1.344982
1.340147
1.369963
1.359487
1.378828
1.344176
1.365934
1.315971
1.307912
1.372381
1.379634
1.356264
1.585128
1.603663
1.568205
1.615751
1.615751
1.590769
1.628645
1.61011
1.57707
1.629451
1.552088
1.375604
1.379634
1.356264
1.328059
1.315165
1.300659
1.32967
1.368352
1.351429
1.375604
1.357875
1.316777
1.615751
1.625421
1.581905
1.572234
1.576264
1.637509
1.637509
1.64315
1.629451
1.584322
1.625421
1.602857
1.317582
1.328864
1.340952
1.302271
1.379634
1.324835
1.348205
1.374799
1.317582
1.3337
1.336923
1.629451
1.635897
1.630256
1.581099
1.61011
1.578681
1.638315
1.611722
1.64315
1.602857
1.562564
1.562564
1.327253
1.375604
1.332088
1.361905
1.315165
1.342564
1.323223
1.349817
1.341758
1.345788
1.35304
1.39011
1.571429
1.61978
1.565788
1.594799
1.57304
1.57304
1.584322
1.628645
1.561758
1.564982
1.584322
1.612527
1.369963
1.315971
1.303077
1.319194
1.328059
1.349011
1.335311
1.330476
1.353846
1.32967
1.353846
1.32967
1.59641
1.572234
1.635092
1.637509
1.605275
1.593993
1.557729
1.631868
1.608498
1.578681
1.625421
1.361905
1.361905
1.378828
1.353846
1.364322
1.353846
1.361905
1.364322
1.365934
1.364322
1.379634
1.393333
1.611722
1.602051
1.634286
1.597216
1.584322
1.630256
1.611722
1.572234
1.63348
1.631868
1.564982
1.623809
1.405421
1.388498
1.365934
1.328864
1.379634
1.327253
1.385275
1.378828
1.324029
1.340952
1.328059
1.614139
1.658462
1.630256
1.644762
1.615751
1.597216
1.635897
1.654432
1.609304
1.64315
1.60044
1.585934
1.320806
1.340952
1.377216
1.32
1.328059
1.330476
1.372381
1.359487
1.379634
1.397363
1.337729
1.328864
1.602857
1.602857
1.629451
1.557729
1.591575
1.598022
1.607692
1.575458
1.565788
1.611722
1.589963
1.610916
1.384469
1.320806
1.348205
1.290989
1.326447
1.316777
1.370769
1.311941
1.3063
1.353846
1.356264
1.382051
1.637509
1.642344
1.635092
1.587546
1.580293
1.601245
1.621392
1.625421
1.624615
1.601245
1.618974
1.353846
1.307106
1.278095
1.365934
1.328059
1.302271
1.36674
1.363516
1.349817
1.355458
1.332894
1.327253
1.572234
1.578681
1.636703
1.57707
1.585934
1.616557
1.584322
1.565788
1.58674
1.57707
1.572234
1.559341
1.339341
1.363516
1.360293
1.340147
1.355458
1.361905
1.3063
1.350623
1.353846
1.353846
1.317582
1.627839
1.623809
1.623809
1.637509
1.642344
1.579487
1.585128
1.625421
1.589963
1.615751
1.609304
1.597216
1.375604
1.379634
1.32
1.325641
1.28696
1.357875
1.355458
1.328059
1.3337
1.336117
1.328059
1.371575
1.315971
1.61978
1.638315
1.561758
1.58674
1.590769
1.585934
1.612527
1.637509
1.578681
1.635897
1.589157
1.34337
1.332088
1.328059
1.300659
1.328864
1.316777
1.349817
1.372381
1.330476
1.35304
1.36674
1.328864
1.628645
1.585128
1.599634
1.568205
1.570623
1.584322
1.623809
1.626227
1.552088
1.572234
1.59641
1.548864
1.392527
1.32
1.328059
1.319194
1.378828
1.35304
1.40381
1.328059
1.356264
1.390916
1.415897
1.431209
1.757582
1.756777
1.792234
1.812381
1.796264
1.805128
1.787399
1.81641
1.7737
1.818828
1.787399
1.801099
1.278095
1.356264
1.298242
1.311941
1.297436
1.290183
1.336923
1.31033
1.304689
1.328864
1.359487
1.362711
1.332894
1.330476
1.401392
1.341758
1.368352
1.392527
1.327253
1.340147
1.392527
1.324029
1.336923
1.201538
1.272454
1.236996
1.20315
1.203956
1.185421
1.203956
1.228938
1.261172
1.20315
1.214432
1.267619
1.560146
1.539194
1.548864
1.590769
1.588352
1.61011
1.583517
1.589963
1.57707
1.604469
1.552088
1.613333
1.382051
1.387692
1.358681
1.344176
1.379634
1.336117
1.349817
1.38044
1.369963
1.35707
1.369157
1.39011
1.647985
1.611722
1.594799
1.611722
1.63348
1.639121
1.587546
1.591575
1.584322
1.603663
1.627033
1.382857
1.353846
1.388498
1.400586
1.346593
1.390916
1.382051
1.325641
1.353846
1.356264
1.353846
1.352234
1.591575
1.639121
1.64718
1.581905
1.625421
1.627033
1.646374
1.601245
1.623809
1.617363
1.585934
1.590769
1.349817
1.34337
1.375604
1.335311
1.336923
1.349011
1.404615
1.364322
1.370769
1.415897
1.461026
1.665714
1.637509
1.668132
1.657656
1.604469
1.601245
1.637509
1.602857
1.61978
1.610916
1.589963
1.598828
1.365128
1.344176
1.40381
1.374799
1.373993
1.353846
1.370769
1.407033
1.340952
1.369157
1.378828
1.378022
1.64315
1.676996
1.663297
1.629451
1.664103
1.611722
1.578681
1.660879
1.627839
1.610916
1.637509
1.379634
1.354652
1.379634
1.375604
1.373993
1.391722
1.391722
1.409451
1.404615
1.367546
1.351429
1.411868
1.685861
1.647985
1.639927
1.668938
1.601245
1.638315
1.636703
1.640733
1.637509
1.611722
1.675385
1.601245
1.340147
1.393333
1.334505
1.326447
1.393333
1.392527
1.351429
1.378022
1.336923
1.336117
1.383663
1.688278
1.645568
1.678608
1.64718
1.613333
1.623809
1.625421
1.589963
1.668938
1.616557
1.647985
1.598828
1.339341
1.394945
1.387692
1.39011
1.379634
1.357875
1.39978
1.421538
1.382051
1.410256
1.418315
1.42315
1.627033
1.677802
1.682637
1.606886
1.659267
1.664908
1.610916
1.663297
1.648791
1.637509
1.636703
1.359487
1.383663
1.416703
1.377216
1.372381
1.362711
1.428791
1.439267
1.414286
1.396557
1.36674
1.422344
1.660879
1.70359
1.673773
1.668938
1.681831
1.689084
1.646374
1.677802
1.65685
1.663297
1.678608
1.614139
1.385275
1.377216
1.388498
1.421538
1.444908
1.407839
1.422344
1.419121
1.451355
1.394139
1.388498
1.690696
1.72696
1.67619
1.683443
1.697949
1.722124
1.670549
1.67619
1.718901
1.655238
1.677802
1.672161
1.415897
1.423956
1.440073
1.488425
1.444103
1.46989
1.490037
1.50293
1.475531
1.441685
1.500513
1.509377
1.720513
1.722124
1.76
1.718901
1.792234
1.730183
1.731795
1.70359
1.704396
1.731795
1.71326
1.714872
1.467473
1.473919
1.477143
1.445714
1.444908
1.465055
1.453773
1.462637
1.462637
1.498095
1.533553
1.557729
1.771282
1.786593
1.805128
1.764029
1.740659
1.792234
1.752747
1.753553
1.780147
1.735824
1.72696
1.764029
1.485201
1.520659
1.510989
1.508571
1.435238
1.469084
1.512601
1.490842
1.451355
1.449744
1.482784
1.740659
1.68989
1.730183
1.686667
1.764029
1.701978
1.754359
1.691502
1.722124
1.714872
1.665714
1.723736
1.406227
1.406227
1.423956
1.461831
1.412674
1.456996
1.398168
1.420733
1.444103
1.456996
1.396557
1.691502
1.690696
1.685055
1.646374
1.655238
1.660073
1.642344
1.623004
1.689084
1.610916
1.659267
1.603663
1.390916
1.326447
1.364322
1.328059
1.362711
1.379634
1.353846
1.353846
1.365934
1.420733
1.386886
1.404615
1.565788
1.635092
1.588352
1.63348
1.637509
1.648791
1.623809
1.604469
1.639927
1.620586
1.560146
1.317582
1.349817
1.372381
1.318388
1.311136
1.312747
1.37641
1.35304
1.315971
1.355458
1.340952
1.349817
1.581099
1.641538
1.626227
1.593993
1.638315
1.583517
1.611722
1.637509
1.637509
1.599634
1.611722
1.598022
1.319194
1.339341
1.328059
1.307912
1.311941
1.337729
1.38044
1.388498
1.378022
1.377216
1.379634
1.546447
1.552894
1.544029
1.60044
1.560146
1.622198
1.585934
1.591575
1.581905
1.611722
1.578681
1.573846
1.3063
1.319194
1.332894
1.287766
1.289377
1.298242
1.365934
1.32
1.314359
1.313553
1.359487
1.300659
1.374799
1.602857
1.594799
1.558535
1.637509
1.567399
1.598828
1.556117
1.605275
1.547253
1.604469
1.589963
1.340147
1.386886
1.349011
1.325641
1.303077
1.368352
1.356264
1.34337
1.313553
1.305494
1.324029
1.309524
1.548864
1.605275
1.637509
1.612527
1.560146
1.602857
1.562564
1.565788
1.575458
1.543223
1.581099
1.314359
1.387692
1.307912
1.369963
1.317582
1.315165
1.356264
1.40381
1.359487
1.448132
1.379634
1.43685
1.452161
1.433626
1.575458
1.663297
1.640733
1.637509
1.606081
1.658462
1.627033
1.585934
1.591575
1.3337
1.324835
1.37641
1.345788
1.385275
1.388498
1.342564
1.38044
1.316777
1.3337
1.332894
1.377216
1.349817
1.637509
1.637509
1.629451
1.602857
1.630256
1.640733
1.616557
1.59641
1.612527
1.60044
1.626227
1.570623
1.367546
1.375604
1.323223
1.353846
1.384469
1.373187
1.379634
1.388498
1.361905
1.340147
1.405421
1.611722
1.585934
1.646374
1.594799
1.637509
1.637509
1.610916
1.612527
1.601245
1.613333
1.621392
1.593187
1.311136
1.315165
1.324835
1.326447
1.320806
1.315971
1.323223
1.414286
1.360293
1.392527
1.405421
1.636703
1.583517
1.623809
1.599634
1.660879
1.611722
1.588352
1.594799
1.593993
1.585934
1.583517
1.632674
1.328059
1.37641
1.3337
1.407033
1.32967
1.391722
1.348205
1.320806
1.348205
1.336923
1.340952
1.384469
1.647985
1.598828
1.623004
1.637509
1.64315
1.632674
1.622198
1.611722
1.581099
1.639121
1.628645
1.613333
1.372381
1.357875
1.320806
1.314359
1.396557
1.340952
1.312747
1.312747
1.359487
1.328059
1.390916
1.648791
1.63348
1.657656
1.585128
1.597216
1.642344
1.646374
1.593993
1.585128
1.560146
1.601245
1.587546
1.368352
1.34337
1.32
1.36674
1.36674
1.383663
1.336923
1.379634
1.361099
1.395751
1.365934
1.401392
1.612527
1.623809
1.617363
1.585934
1.589963
1.657656
1.57304
1.640733
1.60044
1.636703
1.604469
1.598022
1.403004
1.357875
1.369963
1.39978
1.387692
1.379634
1.353846
1.369157
1.410256
1.414286
1.40381
1.396557
1.65685
1.611722
1.639927
1.637509
1.598828
1.591575
1.581099
1.623809
1.598828
1.620586
1.622198
1.573846
1.365128
1.382857
1.336923
1.325641
1.374799
1.323223
1.307106
1.341758
1.386886
1.330476
1.360293
1.564982
1.625421
1.625421
1.637509
1.590769
1.588352
1.564176
1.585934
1.585128
1.627839
1.556117
1.554505
1.327253
1.357875
1.371575
1.315971
1.344982
1.314359
1.362711
1.389304
1.352234
1.35304
1.3337
1.340952
1.625421
1.594799
1.616557
1.64718
1.621392
1.614139
1.611722
1.637509
1.589157
1.57304
1.560952
1.307912
1.325641
1.378828
1.340952
1.344982
1.31033
1.345788
1.319194
1.365934
1.38044
1.32
1.371575
1.397363
1.614139
1.631868
1.585128
1.622198
1.632674
1.578681
1.54967
1.643956
1.630256
1.612527
1.606886
1.307912
1.36674
1.315971
1.365934
1.358681
1.351429
1.344982
1.323223
1.340147
1.320806
1.346593
1.328864
1.567399
1.591575
1.573846
1.598022
1.578681
1.63348
1.59641
1.618974
1.560146
1.614945
1.534359
1.558535
1.36674
1.318388
1.31033
1.302271
1.302271
1.32
1.312747
1.367546
1.324029
1.328059
1.39011
1.391722
1.624615
1.612527
1.559341
1.631868
1.572234
1.617363
1.574652
1.569817
1.58674
1.58674
1.594799
1.593187
1.299853
1.302271
1.344982
1.311136
1.354652
1.353846
1.319194
1.362711
1.340147
1.361905
1.384469
1.663297
1.678608
1.681831
1.656044
1.691502
1.673773
1.677802
1.697949
1.668938
1.693114
1.670549
1.645568
1.544835
1.612527
1.598022
1.607692
1.558535
1.587546
1.58674
1.623004
1.590769
1.622198
1.60044
1.602051
1.644762
1.628645
1.632674
1.587546
1.573846
1.612527
1.620586
1.593187
1.545641
1.546447
1.565788
1.224908
1.184615
1.20315
1.182198
1.236996
1.163663
1.207179
1.233773
1.187033
1.187839
1.188645
1.236996
1.457802
1.452161
1.45619
1.444908
1.506154
1.433626
1.484396
1.498095
1.510183
1.491648
1.497289
1.451355
1.302271
1.32
1.284542
1.290183
1.323223
1.357875
1.337729
1.300659
1.349011
1.35304
1.390916
1.354652
1.629451
1.629451
1.578681
1.635092
1.642344
1.584322
1.57707
1.631062
1.560952
1.585128
1.584322
1.612527
1.357875
1.303077
1.311136
1.308718
1.322418
1.354652
1.307912
1.369963
1.336117
1.384469
1.382857
1.637509
1.593187
1.630256
1.57707
1.57707
1.550476
1.594799
1.623809
1.593993
1.571429
1.585128
1.611722
1.351429
1.37641
1.378828
1.328864
1.373993
1.351429
1.328059
1.361905
1.365128
1.392527
1.379634
1.361905
1.598022
1.609304
1.658462
1.591575
1.644762
1.630256
1.628645
1.645568
1.611722
1.547253
1.594799
1.37641
1.338535
1.369157
1.328059
1.371575
1.35707
1.378828
1.3337
1.378828
1.349817
1.377216
1.328059
1.598828
1.660879
1.609304
1.593993
1.620586
1.611722
1.635897
1.585128
1.577875
1.625421
1.628645
1.634286
1.364322
1.386886
1.35304
1.315165
1.403004
1.398168
1.395751
1.387692
1.365934
1.3337
1.403004
1.338535
1.587546
1.641538
1.627033
1.615751
1.602857
1.599634
1.648791
1.623809
1.571429
1.609304
1.599634
1.355458
1.298242
1.3063
1.354652
1.351429
1.300659
1.311136
1.34337
1.323223
1.356264
1.372381
1.35304
1.332088
1.569011
1.621392
1.578681
1.616557
1.59641
1.635092
1.637509
1.585128
1.564176
1.602857
1.556117
1.328864
1.311941
1.379634
1.332088
1.315971
1.388498
1.394945
1.314359
1.384469
1.385275
1.365934
1.349011
1.574652
1.585934
1.639121
1.569817
1.621392
1.57707
1.583517
1.598828
1.585128
1.614945
1.560952
1.340147
1.336923
1.34337
1.327253
1.307106
1.38044
1.337729
1.328059
1.398168
1.371575
1.354652
1.320806
1.637509
1.637509
1.632674
1.598828
1.575458
1.588352
1.611722
1.571429
1.532747
1.620586
1.575458
1.598828
1.355458
1.353846
1.303077
1.384469
1.323223
1.369157
1.377216
1.353846
1.35707
1.340952
1.392527
1.660073
1.637509
1.655238
1.622198
1.61011
1.611722
1.623809
1.673773
1.630256
1.631868
1.60044
1.624615
1.361905
1.367546
1.369157
1.354652
1.353846
1.330476
1.391722
1.393333
1.393333
1.354652
1.407839
1.42315
1.693919
1.670549
1.613333
1.623809
1.638315
1.681831
1.638315
1.623004
1.67619
1.601245
1.659267
1.635092
1.391722
1.386886
1.424762
1.388498
1.387692
1.385275
1.391722
1.443297
1.42315
1.405421
1.427179
1.639927
1.684249
1.655238
1.664908
1.636703
1.639927
1.717289
1.642344
1.637509
1.663297
1.663297
1.701978
1.405421
1.425568
1.46022
1.464249
1.429597
1.405421
1.45619
1.426374
1.442491
1.430403
1.482784
1.423956
1.68022
1.670549
1.661685
1.727766
1.723736
1.698755
1.673773
1.655238
1.710843
1.660879
1.647985
1.436044
1.39011
1.382857
1.411062
1.39978
1.447326
1.414286
1.448938
1.48359
1.42315
1.457802
1.46989
1.441685
1.69956
1.663297
1.673773
1.660879
1.693114
1.636703
1.662491
1.661685
1.639121
1.655238
1.59641
1.384469
1.415092
1.37641
1.388498
1.415897
1.358681
1.355458
1.39978
1.367546
1.353846
1.400586
1.442491
1.64315
1.585128
1.616557
1.626227
1.587546
1.634286
1.637509
1.585934
1.577875
1.585128
1.637509
1.624615
1.304689
1.35304
1.383663
1.377216
1.324835
1.324029
1.394139
1.375604
1.38044
1.369963
1.32967
1.353846
1.57707
1.60044
1.630256
1.598828
1.601245
1.589157
1.560146
1.618168
1.61978
1.544835
1.597216
1.560146
1.38044
1.371575
1.348205
1.3337
1.373993
1.357875
1.385275
1.328059
1.356264
1.35304
1.36674
1.375604
1.597216
1.616557
1.611722
1.556117
1.552894
1.548864
1.604469
1.606886
1.581905
1.610916
1.606081
1.361099
1.328864
1.330476
1.319194
1.299853
1.340952
1.372381
1.32
1.356264
1.359487
1.307106
1.356264
1.573846
1.60044
1.617363
1.578681
1.560952
1.580293
1.606886
1.623809
1.614139
1.556117
1.54967
1.560146
1.320806
1.302271
1.302271
1.362711
1.32967
1.346593
1.323223
1.369157
1.344982
1.336923
1.359487
1.371575
1.583517
1.607692
1.598828
1.613333
1.577875
1.612527
1.598828
1.607692
1.572234
1.635092
1.560146
1.328059
1.378022
1.318388
1.323223
1.365934
1.40381
1.393333
1.35304
1.34337
1.379634
1.339341
1.370769
1.58674
1.611722
1.588352
1.629451
1.589963
1.612527
1.603663
1.620586
1.557729
1.598828
1.593993
1.569011
1.314359
1.344982
1.359487
1.299853
1.315971
1.315971
1.34337
1.35707
1.374799
1.355458
1.353846
1.351429
1.61011
1.585934
1.572234
1.583517
1.581099
1.639121
1.575458
1.618974
1.622198
1.585934
1.569011
1.379634
1.307912
1.361099
1.332894
1.312747
1.377216
1.369157
1.324029
1.328059
1.344982
1.379634
1.386886
1.627839
1.630256
1.623809
1.609304
1.629451
1.611722
1.577875
1.613333
1.559341
1.580293
1.602051
1.635897
1.328059
1.338535
1.315165
1.342564
1.340952
1.365934
1.351429
1.326447
1.342564
1.326447
1.361905
1.590769
1.60044
1.581099
1.569011
1.627033
1.585934
1.569817
1.585934
1.565788
1.560952
1.519853
1.612527
1.309524
1.303077
1.339341
1.356264
1.328059
1.354652
1.379634
1.320806
1.320806
1.38044
1.326447
1.411062
1.648791
1.571429
1.559341
1.603663
1.610916
1.574652
1.589963
1.60044
1.598828
1.571429
1.602051
1.311136
1.328059
1.358681
1.378022
1.328864
1.357875
1.341758
1.332088
1.338535
1.377216
1.356264
1.408645
1.572234
1.628645
1.580293
1.63348
1.622198
1.604469
1.622198
1.571429
1.555311
1.57304
1.562564
1.575458
1.304689
1.328059
1.323223
1.336117
1.324029
1.328059
1.367546
1.353846
1.346593
1.328864
1.389304
1.560146
1.624615
1.59641
1.561758
1.611722
1.581905
1.604469
1.560146
1.63348
1.561758
1.603663
1.617363
1.32
1.302271
1.342564
1.349817
1.328059
1.373187
1.373187
1.379634
1.358681
1.352234
1.34337
1.405421
1.639121
1.560146
1.581905
1.598022
1.606886
1.656044
1.64315
1.565788
1.561758
1.598022
1.631868
1.635897
1.3063
1.301465
1.32
1.316777
1.303883
1.36674
1.302271
1.328059
1.351429
1.35304
1.325641
1.353846
1.598022
1.583517
1.632674
1.61978
1.611722
1.564982
1.564176
1.584322
1.576264
1.593993
1.572234
1.628645
1.302271
1.302271
1.336923
1.291795
1.330476
1.373187
1.319194
1.320806
1.324029
1.342564
1.385275
1.611722
1.635897
1.581905
1.599634
1.618974
1.61978
1.627839
1.58674
1.559341
1.581905
1.609304
1.560146
1.597216
1.378828
1.328059
1.388498
1.330476
1.353846
1.35707
1.370769
1.354652
1.352234
1.370769
1.340952
1.675385
1.603663
1.61011
1.611722
1.635092
1.660879
1.637509
1.598022
1.607692
1.655238
1.620586
1.623004
1.369157
1.379634
1.344982
1.379634
1.39011
1.353846
1.372381
1.386081
1.405421
1.407033
1.374799
1.627033
1.602857
1.610916
1.576264
1.630256
1.641538
1.588352
1.588352
1.569817
1.610916
1.576264
1.572234
1.303077
1.357875
1.419121
1.349817
1.322418
1.354652
1.314359
1.359487
1.32967
1.340952
1.35707
1.405421
1.593187
1.595604
1.591575
1.602051
1.627033
1.614945
1.614945
1.56337
1.587546
1.577875
1.548059
1.32967
1.362711
1.330476
1.307912
1.379634
1.295018
1.369157
1.307912
1.372381
1.372381
1.361905
1.375604
1.581905
1.613333
1.577875
1.606886
1.638315
1.557729
1.637509
1.571429
1.601245
1.610916
1.603663
1.548864
1.316777
1.378022
1.304689
1.307912
1.368352
1.379634
1.327253
1.356264
1.340147
1.353846
1.387692
1.626227
1.626227
1.61011
1.585934
1.604469
1.623809
1.614139
1.57707
1.575458
1.552894
1.534359
1.618974
1.36674
1.290989
1.32
1.301465
1.302271
1.344982
1.299853
1.363516
1.38044
1.315165
1.370769
1.323223
1.59641
1.625421
1.593993
1.588352
1.578681
1.611722
1.630256
1.548059
1.617363
1.564176
1.610916
1.602857
1.322418
1.314359
1.34337
1.323223
1.330476
1.355458
1.384469
1.32967
1.373993
1.328059
1.349011
1.390916
1.605275
1.631868
1.585934
1.659267
1.585934
1.658462
1.591575
1.658462
1.585934
1.58674
1.601245
1.637509
1.510989
1.550476
1.536777
1.513407
1.585934
1.543223
1.611722
1.623809
1.585934
1.597216
1.611722
1.716483
1.723736
1.678608
1.658462
1.637509
1.693919
1.646374
1.682637
1.620586
1.673773
1.701978
1.623809
1.230549
1.187033
1.181392
1.178169
1.236996
1.198315
1.181392
1.256337
1.217656
1.198315
1.188645
1.444103
1.432015
1.417509
1.431209
1.428791
1.431209
1.403004
1.419927
1.41348
1.431209
1.394139
1.445714
1.318388
1.327253
1.347399
1.305494
1.276484
1.266813
1.319194
1.272454
1.29663
1.322418
1.303077
1.359487
1.61978
1.631868
1.585934
1.57707
1.598828
1.544029
1.606081
1.547253
1.602051
1.581905
1.546447
1.354652
1.377216
1.357875
1.31033
1.3063
1.324029
1.340147
1.319194
1.356264
1.353846
1.363516
1.362711
1.353846
1.639121
1.597216
1.560146
1.57304
1.558535
1.567399
1.614945
1.571429
1.585934
1.554505
1.552088
1.328059
1.373993
1.351429
1.348205
1.387692
1.331282
1.392527
1.341758
1.383663
1.382857
1.353846
1.405421
1.59641
1.662491
1.615751
1.627033
1.604469
1.582711
1.638315
1.561758
1.585934
1.568205
1.560952
1.365934
1.341758
1.39011
1.3337
1.368352
1.328059
1.315971
1.344176
1.365128
1.420733
1.404615
1.406227
1.603663
1.577875
1.585128
1.624615
1.63348
1.621392
1.581905
1.623809
1.612527
1.611722
1.560952
1.557729
1.32967
1.340147
1.379634
1.307106
1.315165
1.354652
1.316777
1.342564
1.325641
1.384469
1.362711
1.398168
1.581099
1.646374
1.585934
1.585128
1.637509
1.595604
1.571429
1.588352
1.645568
1.578681
1.615751
1.34337
1.307106
1.374799
1.339341
1.328864
1.364322
1.368352
1.371575
1.382051
1.386886
1.355458
1.340952
1.603663
1.58674
1.569011
1.572234
1.589963
1.597216
1.564982
1.61011
1.613333
1.548059
1.547253
1.594799
1.379634
1.339341
1.373187
1.307106
1.405421
1.362711
1.349817
1.39011
1.39011
1.349011
1.426374
1.402198
1.638315
1.606081
1.589963
1.611722
1.581099
1.570623
1.623809
1.59641
1.603663
1.614139
1.598022
1.341758
1.314359
1.361905
1.389304
1.353846
1.336117
1.377216
1.340952
1.315971
1.353846
1.382857
1.362711
1.646374
1.64315
1.584322
1.617363
1.630256
1.585128
1.56337
1.598022
1.609304
1.611722
1.585128
1.606886
1.379634
1.377216
1.341758
1.377216
1.353846
1.396557
1.373993
1.354652
1.340952
1.369157
1.400586
1.623809
1.607692
1.604469
1.648791
1.620586
1.673773
1.64315
1.611722
1.664103
1.664908
1.624615
1.603663
1.411868
1.356264
1.385275
1.350623
1.394945
1.390916
1.377216
1.349817
1.358681
1.415897
1.385275
1.378828
1.677802
1.639121
1.672161
1.615751
1.625421
1.627839
1.611722
1.677802
1.664908
1.656044
1.67619
1.406227
1.406227
1.431209
1.40381
1.438462
1.443297
1.459414
1.423956
1.45619
1.478755
1.456996
1.465861
1.704396
1.714872
1.663297
1.702784
1.640733
1.701978
1.71326
1.681026
1.668132
1.710843
1.638315
1.700366
1.448938
1.442491
1.42315
1.397363
1.398974
1.45619
1.465055
1.414286
1.457802
1.498095
1.458608
1.691502
1.704396
1.714066
1.727766
1.740659
1.743077
1.72293
1.706813
1.668938
1.663297
1.693114
1.707619
1.467473
1.42315
1.431209
1.465055
1.473919
1.416703
1.477949
1.411062
1.473919
1.423956
1.486007
1.458608
1.638315
1.706007
1.689084
1.642344
1.663297
1.693114
1.637509
1.621392
1.629451
1.68022
1.678608
1.664908
1.385275
1.407839
1.360293
1.38044
1.406227
1.367546
1.383663
1.357875
1.433626
1.378828
1.436044
1.625421
1.629451
1.598828
1.629451
1.61011
1.625421
1.634286
1.565788
1.629451
1.585934
1.570623
1.636703
1.39011
1.353846
1.35304
1.398974
1.348205
1.38044
1.358681
1.390916
1.431209
1.412674
1.38044
1.385275
1.577875
1.578681
1.635092
1.590769
1.587546
1.617363
1.584322
1.585934
1.572234
1.585934
1.557729
1.606081
1.302271
1.359487
1.378828
1.35707
1.328864
1.363516
1.35707
1.389304
1.398168
1.340952
1.39978
1.585128
1.609304
1.638315
1.649597
1.631868
1.617363
1.590769
1.59641
1.561758
1.611722
1.609304
1.611722
1.370769
1.3337
1.328059
1.322418
1.354652
1.367546
1.371575
1.367546
1.351429
1.344982
1.339341
1.342564
1.558535
1.608498
1.57304
1.580293
1.61978
1.552894
1.573846
1.636703
1.577875
1.630256
1.614139
1.57707
1.357875
1.324029
1.362711
1.327253
1.3063
1.323223
1.314359
1.367546
1.384469
1.364322
1.312747
1.341758
1.572234
1.559341
1.556117
1.593187
1.547253
1.637509
1.585934
1.611722
1.602857
1.544835
1.629451
1.351429
1.34337
1.361099
1.320806
1.3337
1.342564
1.39011
1.364322
1.394945
1.359487
1.372381
1.3337
1.34337
1.638315
1.56337
1.623809
1.569011
1.605275
1.612527
1.593993
1.552894
1.565788
1.607692
1.572234
1.278095
1.315971
1.351429
1.309524
1.351429
1.323223
1.353846
1.377216
1.32967
1.377216
1.328059
1.327253
1.609304
1.623004
1.585934
1.591575
1.615751
1.623004
1.607692
1.535971
1.559341
1.510183
1.552088
1.552894
1.546447
1.353846
1.340952
1.344982
1.332894
1.345788
1.328059
1.317582
1.349817
1.345788
1.361905
1.601245
1.593993
1.557729
1.574652
1.560146
1.570623
1.560146
1.624615
1.617363
1.612527
1.574652
1.599634
1.340147
1.297436
1.302271
1.299853
1.375604
1.372381
1.356264
1.330476
1.352234
1.369157
1.378022
1.593187
1.623809
1.564982
1.599634
1.598828
1.627839
1.598022
1.612527
1.562564
1.569011
1.611722
1.593993
1.303883
1.324835
1.370769
1.382857
1.391722
1.349817
1.420733
1.388498
1.379634
1.358681
1.381245
1.602857
1.611722
1.631868
1.589963
1.608498
1.613333
1.561758
1.587546
1.630256
1.539194
1.593187
1.573846
1.367546
1.362711
1.324029
1.314359
1.316777
1.324835
1.3337
1.371575
1.342564
1.353846
1.361905
1.405421
1.61978
1.636703
1.637509
1.577875
1.606081
1.616557
1.578681
1.61011
1.564982
1.565788
1.604469
1.607692
1.377216
1.362711
1.304689
1.340952
1.353846
1.353846
1.331282
1.378022
1.392527
1.383663
1.353846
1.58674
1.58674
1.572234
1.59641
1.649597
1.620586
1.560146
1.58674
1.611722
1.604469
1.556117
1.620586
1.361099
1.314359
1.361099
1.351429
1.357875
1.335311
1.404615
1.340147
1.368352
1.386886
1.344982
1.353846
1.671355
1.618974
1.647985
1.623809
1.581905
1.627033
1.637509
1.610916
1.602857
1.61011
1.618168
1.379634
1.405421
1.405421
1.339341
1.395751
1.421538
1.353846
1.3337
1.345788
1.407033
1.349817
1.42315
1.433626
1.637509
1.655238
1.654432
1.590769
1.622198
1.638315
1.602857
1.648791
1.637509
1.663297
1.580293
1.373993
1.332088
1.378022
1.344176
1.337729
1.367546
1.402198
1.379634
1.377216
1.393333
1.405421
1.414286
1.594799
1.635092
1.636703
1.611722
1.585934
1.588352
1.647985
1.593187
1.609304
1.603663
1.598022
1.312747
1.354652
1.323223
1.324029
1.365128
1.398168
1.377216
1.353846
1.378828
1.392527
1.411062
1.386886
1.610916
1.623809
1.626227
1.590769
1.601245
1.589157
1.663297
1.610916
1.581905
1.569011
1.624615
1.361099
1.381245
1.37641
1.367546
1.385275
1.34337
1.383663
1.317582
1.336117
1.364322
1.379634
1.407839
1.570623
1.570623
1.578681
1.598828
1.635092
1.556117
1.548864
1.548059
1.555311
1.585934
1.607692
1.573846
1.377216
1.379634
1.328059
1.356264
1.353846
1.382051
1.328059
1.330476
1.353846
1.344982
1.340147
1.629451
1.604469
1.630256
1.629451
1.577875
1.610916
1.560146
1.570623
1.601245
1.61011
1.591575
1.561758
1.370769
1.349817
1.332088
1.34337
1.359487
1.315971
1.369157
1.349817
1.362711
1.352234
1.354652
1.417509
1.639927
1.611722
1.565788
1.568205
1.614945
1.611722
1.57707
1.60044
1.560146
1.534359
1.606081
1.606081
1.339341
1.314359
1.311136
1.361905
1.313553
1.385275
1.35304
1.3337
1.391722
1.394945
1.336117
1.591575
1.552894
1.614945
1.593187
1.569011
1.61011
1.580293
1.611722
1.590769
1.527106
1.594799
1.581905
1.280513
1.27326
1.290989
1.34337
1.315165
1.314359
1.347399
1.354652
1.349011
1.342564
1.320806
1.378022
1.681831
1.64718
1.654432
1.668938
1.705201
1.693919
1.681831
1.694725
1.689084
1.646374
1.659267
1.661685
1.512601
1.494066
1.50696
1.480366
1.465861
1.456996
1.497289
1.445714
1.430403
1.461026
1.490037
1.508571
1.554505
1.515018
1.491648
1.506154
1.482784
1.506154
1.448132
1.454579
1.462637
1.482784
1.444908
1.23619
1.223297
1.188645
1.196703
1.210403
1.188645
1.191868
1.21685
1.214432
1.229744
1.261172
1.254725
1.524689
1.523883
1.534359
1.519048
1.525494
1.475531
1.515824
1.477949
1.522271
1.532747
1.547253
1.29663
1.332894
1.302271
1.342564
1.324835
1.348205
1.382857
1.382857
1.34337
1.386886
1.357875
1.359487
1.604469
1.622198
1.663297
1.623004
1.598022
1.621392
1.572234
1.581099
1.589963
1.631868
1.613333
1.591575
1.353846
1.38044
1.318388
1.385275
1.362711
1.391722
1.342564
1.35304
1.387692
1.400586
1.422344
1.623809
1.58674
1.637509
1.611722
1.591575
1.624615
1.594799
1.581905
1.63348
1.580293
1.606081
1.593993
1.330476
1.383663
1.381245
1.332894
1.355458
1.374799
1.359487
1.371575
1.378022
1.336923
1.372381
1.370769
1.621392
1.627839
1.647985
1.64315
1.611722
1.657656
1.610916
1.627033
1.574652
1.657656
1.610916
1.639121
1.391722
1.401392
1.386886
1.372381
1.365934
1.427985
1.435238
1.436044
1.39978
1.456996
1.404615
1.617363
1.611722
1.642344
1.64718
1.585934
1.582711
1.598022
1.584322
1.58674
1.655238
1.662491
1.598022
1.34337
1.388498
1.359487
1.401392
1.355458
1.415897
1.410256
1.411062
1.35707
1.378828
1.435238
1.372381
1.625421
1.613333
1.64315
1.624615
1.617363
1.686667
1.608498
1.642344
1.602857
1.654432
1.583517
1.398168
1.353846
1.371575
1.369157
1.35707
1.367546
1.401392
1.408645
1.378022
1.395751
1.417509
1.368352
1.668132
1.664103
1.606081
1.667326
1.594799
1.598022
1.665714
1.611722
1.593993
1.617363
1.654432
1.681026
1.369157
1.398974
1.349817
1.350623
1.359487
1.361905
1.384469
1.388498
1.378022
1.348205
1.392527
1.661685
1.623809
1.683443
1.61978
1.614139
1.635897
1.635092
1.64315
1.615751
1.63348
1.646374
1.620586
1.398168
1.397363
1.364322
1.361905
1.374799
1.369157
1.400586
1.384469
1.384469
1.394945
1.461026
1.431209
1.611722
1.61011
1.637509
1.587546
1.607692
1.598022
1.621392
1.649597
1.627033
1.617363
1.614139
1.654432
1.411062
1.401392
1.417509
1.439267
1.407839
1.397363
1.385275
1.40381
1.436044
1.406227
1.382051
1.647985
1.639927
1.705201
1.714872
1.663297
1.66652
1.668938
1.628645
1.649597
1.710037
1.710843
1.681026
1.387692
1.461831
1.456996
1.442491
1.471502
1.444103
1.456996
1.441685
1.473919
1.499707
1.497289
1.473919
1.730989
1.740659
1.685055
1.693114
1.722124
1.722124
1.684249
1.737436
1.700366
1.706813
1.68989
1.453773
1.488425
1.43685
1.462637
1.505348
1.501319
1.471502
1.449744
1.519048
1.461026
1.510989
1.542418
1.728571
1.711648
1.766447
1.751135
1.755165
1.7463
1.71326
1.726154
1.733407
1.745494
1.737436
1.753553
1.44652
1.431209
1.462637
1.508571
1.466667
1.508571
1.533553
1.522271
1.535165
1.533553
1.57304
1.552088
1.712454
1.764835
1.764835
1.741465
1.72293
1.756777
1.743077
1.689084
1.753553
1.685055
1.716483
1.457802
1.436044
1.432015
1.482784
1.498901
1.436044
1.431209
1.46989
1.510989
1.49326
1.50293
1.484396
1.63348
1.663297
1.665714
1.61978
1.664908
1.685861
1.691502
1.638315
1.658462
1.691502
1.642344
1.615751
1.372381
1.38044
1.353846
1.430403
1.365128
1.368352
1.412674
1.372381
1.373993
1.427179
1.429597
1.44652
1.601245
1.624615
1.589963
1.626227
1.598828
1.621392
1.611722
1.625421
1.61011
1.601245
1.571429
1.607692
1.356264
1.34337
1.371575
1.328059
1.346593
1.368352
1.340952
1.32
1.35707
1.392527
1.422344
1.428791
1.578681
1.614139
1.597216
1.612527
1.575458
1.59641
1.542418
1.601245
1.560146
1.598022
1.585934
1.302271
1.319194
1.316777
1.361099
1.304689
1.345788
1.32
1.328059
1.375604
1.361905
1.370769
1.336923
1.369157
1.561758
1.615751
1.546447
1.58674
1.597216
1.552088
1.604469
1.538388
1.527106
1.611722
1.577875
1.336923
1.311136
1.377216
1.354652
1.290183
1.326447
1.302271
1.344982
1.341758
1.324835
1.372381
1.41348
1.554505
1.627033
1.618974
1.598828
1.581099
1.623809
1.557729
1.606886
1.57707
1.559341
1.593993
1.531941
1.349817
1.364322
1.303883
1.369157
1.302271
1.328059
1.3337
1.374799
1.332088
1.341758
1.415897
1.617363
1.564982
1.623809
1.560146
1.637509
1.602857
1.593993
1.614945
1.630256
1.565788
1.551282
1.560146
1.3337
1.368352
1.362711
1.36674
1.339341
1.336923
1.401392
1.38044
1.394139
1.417509
1.417509
1.377216
1.614139
1.607692
1.667326
1.60044
1.601245
1.60044
1.612527
1.585128
1.638315
1.573846
1.605275
1.569011
1.379634
1.385275
1.378022
1.39011
1.368352
1.441685
1.39978
1.440073
1.414286
1.409451
1.416703
1.403004
1.635092
1.620586
1.64315
1.618974
1.610916
1.598828
1.61978
1.558535
1.59641
1.593187
1.610916
1.398168
1.378828
1.414286
1.349011
1.328864
1.330476
1.382051
1.373993
1.409451
1.359487
1.411062
1.405421
1.641538
1.659267
1.63348
1.702784
1.616557
1.636703
1.688278
1.597216
1.662491
1.629451
1.598022
1.601245
1.365128
1.407839
1.322418
1.396557
1.410256
1.357875
1.368352
1.398168
1.364322
1.425568
1.36674
1.661685
1.638315
1.646374
1.624615
1.683443
1.638315
1.573846
1.585934
1.611722
1.577875
1.611722
1.565788
1.346593
1.405421
1.340147
1.344176
1.349011
1.389304
1.444103
1.462637
1.419121
1.425568
1.44652
1.456996
1.610916
1.674579
1.641538
1.665714
1.613333
1.606081
1.639927
1.583517
1.632674
1.601245
1.591575
1.377216
1.378828
1.393333
1.353846
1.378828
1.361905
1.370769
1.405421
1.456996
1.394945
1.352234
1.455385
1.655238
1.601245
1.607692
1.617363
1.59641
1.57707
1.621392
1.613333
1.663297
1.672967
1.642344
1.701978
1.349817
1.383663
1.34337
1.36674
1.370769
1.360293
1.372381
1.403004
1.40381
1.353846
1.379634
1.405421
1.61011
1.657656
1.663297
1.644762
1.659267
1.63348
1.627033
1.662491
1.598022
1.649597
1.639927
1.367546
1.405421
1.425568
1.392527
1.394139
1.43685
1.405421
1.44652
1.42315
1.456996
1.425568
1.431209
1.601245
1.636703
1.58674
1.622198
1.64718
1.630256
1.630256
1.622198
1.636703
1.637509
1.583517
1.615751
1.394139
1.384469
1.384469
1.377216
1.32967
1.362711
1.405421
1.378022
1.420733
1.361099
1.448938
1.384469
1.578681
1.654432
1.673773
1.637509
1.630256
1.693114
1.689084
1.611722
1.649597
1.665714
1.679414
1.379634
1.388498
1.335311
1.358681
1.41348
1.406227
1.422344
1.354652
1.402198
1.378022
1.375604
1.396557
1.616557
1.591575
1.628645
1.61978
1.649597
1.654432
1.629451
1.635897
1.626227
1.660073
1.585128
1.614139
1.374799
1.407033
1.371575
1.370769
1.396557
1.467473
1.391722
1.419121
1.411062
1.414286
1.367546
1.653626
1.598828
1.60044
1.613333
1.599634
1.603663
1.606081
1.623809
1.664103
1.583517
1.618974
1.590769
1.382857
1.404615
1.351429
1.383663
1.365934
1.420733
1.39011
1.39011
1.393333
1.45619
1.442491
1.404615
1.686667
1.707619
1.696337
1.716483
1.68022
1.671355
1.668938
1.611722
1.639121
1.636703
1.631868
1.657656
1.381245
1.383663
1.431209
1.352234
1.427985
1.423956
1.433626
1.388498
1.427179
1.396557
1.412674
1.604469
1.590769
1.626227
1.611722
1.627033
1.590769
1.611722
1.585128
1.64315
1.602857
1.602857
1.574652
1.410256
1.390916
1.431209
1.382857
1.443297
1.400586
1.39011
1.412674
1.410256
1.390916
1.431209
1.452161
1.622198
1.639927
1.597216
1.655238
1.588352
1.612527
1.625421
1.617363
1.571429
1.642344
1.583517
1.354652
1.354652
1.344982
1.367546
1.344176
1.405421
1.402198
1.353846
1.407839
1.368352
1.406227
1.44652
1.614139
1.620586
1.60044
1.646374
1.632674
1.63348
1.581905
1.614139
1.594799
1.570623
1.61978
1.604469
1.375604
1.327253
1.362711
1.350623
1.319194
1.405421
1.386886
1.41348
1.405421
1.390916
1.456996
1.627033
1.615751
1.635897
1.607692
1.569011
1.606886
1.57707
1.57304
1.636703
1.573846
1.61978
1.567399
1.353846
1.349817
1.377216
1.356264
1.405421
1.327253
1.352234
1.35304
1.415092
1.388498
1.428791
1.429597
1.576264
1.562564
1.635897
1.639927
1.620586
1.611722
1.598828
1.625421
1.602051
1.583517
1.648791
1.562564
1.371575
1.359487
1.336923
1.39011
1.386886
1.284542
1.365934
1.382857
1.398974
1.365128
1.39011
1.560146
1.635092
1.590769
1.569011
1.585934
1.607692
1.603663
1.570623
1.585934
1.613333
1.614945
1.61978
1.534359
1.495678
1.510183
1.567399
1.53033
1.581099
1.518242
1.594799
1.620586
1.594799
1.638315
1.57707
1.756777
1.735824
1.788205
1.780147
1.718095
1.742271
1.681831
1.715678
1.714872
1.691502
1.744689
1.224908
1.307106
1.236996
1.209597
1.213626
1.222491
1.253114
1.272454
1.27326
1.280513
1.21685
1.256337
1.456996
1.443297
1.472308
1.398168
1.430403
1.45619
1.390916
1.448938
1.444103
1.430403
1.415092
1.480366
1.289377
1.253114
1.301465
1.277289
1.32967
1.261978
1.278095
1.349011
1.328059
1.353846
1.298242
1.373993
1.64315
1.635092
1.639121
1.58674
1.657656
1.637509
1.602857
1.58674
1.637509
1.601245
1.625421
1.625421
1.369157
1.369157
1.351429
1.325641
1.39978
1.359487
1.353846
1.378828
1.351429
1.32967
1.382051
1.620586
1.585934
1.602857
1.557729
1.58674
1.632674
1.570623
1.57707
1.54967
1.54967
1.556117
1.54
1.534359
1.317582
1.379634
1.388498
1.401392
1.330476
1.386081
1.379634
1.415897
1.391722
1.357875
1.405421
1.574652
1.585934
1.631868
1.60044
1.629451
1.613333
1.599634
1.573846
1.581905
1.609304
1.648791
1.604469
1.332088
1.374799
1.372381
1.344176
1.393333
1.375604
1.356264
1.349817
1.419927
1.392527
1.43685
1.456996
1.625421
1.664103
1.647985
1.676996
1.591575
1.583517
1.585934
1.573846
1.60044
1.613333
1.567399
1.364322
1.320806
1.316777
1.330476
1.346593
1.332088
1.378022
1.372381
1.430403
1.379634
1.464249
1.403004
1.631868
1.647985
1.626227
1.613333
1.585934
1.587546
1.598022
1.607692
1.637509
1.635092
1.64315
1.635092
1.405421
1.372381
1.386886
1.338535
1.410256
1.340147
1.404615
1.353846
1.429597
1.419121
1.427179
1.632674
1.581905
1.627839
1.578681
1.578681
1.63348
1.602857
1.57707
1.572234
1.620586
1.569011
1.624615
1.405421
1.349011
1.32967
1.362711
1.368352
1.364322
1.375604
1.386886
1.426374
1.409451
1.443297
1.382051
1.609304
1.577875
1.569011
1.574652
1.63348
1.588352
1.572234
1.616557
1.630256
1.602857
1.627839
1.336923
1.359487
1.341758
1.398168
1.409451
1.379634
1.398168
1.353846
1.427179
1.352234
1.416703
1.420733
1.646374
1.593993
1.624615
1.599634
1.573846
1.602051
1.593993
1.583517
1.644762
1.611722
1.569011
1.631868
1.382857
1.335311
1.356264
1.355458
1.379634
1.391722
1.341758
1.357875
1.406227
1.384469
1.419121
1.585934
1.585934
1.590769
1.573846
1.574652
1.627033
1.635897
1.621392
1.572234
1.585128
1.618974
1.584322
1.359487
1.383663
1.341758
1.353846
1.367546
1.352234
1.38044
1.394945
1.374799
1.41348
1.440879
1.405421
1.661685
1.611722
1.629451
1.641538
1.578681
1.611722
1.617363
1.649597
1.594799
1.629451
1.635897
1.353846
1.362711
1.367546
1.429597
1.398168
1.452967
1.431209
1.458608
1.44652
1.427179
1.494872
1.453773
1.664103
1.697949
1.625421
1.670549
1.617363
1.645568
1.664103
1.67619
1.674579
1.632674
1.663297
1.628645
1.415897
1.425568
1.41348
1.431209
1.383663
1.445714
1.401392
1.462637
1.405421
1.461831
1.434432
1.72696
1.738242
1.697949
1.701978
1.67619
1.765641
1.681026
1.670549
1.655238
1.623004
1.630256
1.64315
1.473919
1.453773
1.462637
1.478755
1.440073
1.443297
1.480366
1.520659
1.470696
1.541612
1.531941
1.534359
1.720513
1.655238
1.687472
1.675385
1.685861
1.717289
1.655238
1.68989
1.659267
1.727766
1.658462
1.46989
1.467473
1.384469
1.419121
1.429597
1.384469
1.410256
1.414286
1.444103
1.456996
1.431209
1.501319
1.635897
1.657656
1.659267
1.632674
1.674579
1.598828
1.630256
1.662491
1.683443
1.679414
1.616557
1.656044
1.379634
1.389304
1.353846
1.370769
1.371575
1.379634
1.35707
1.406227
1.457802
1.417509
1.444103
1.606886
1.588352
1.624615
1.604469
1.613333
1.611722
1.576264
1.60044
1.615751
1.634286
1.611722
1.609304
1.362711
1.344982
1.336923
1.344982
1.368352
1.346593
1.386886
1.345788
1.403004
1.353846
1.402198
1.431209
1.562564
1.564982
1.614945
1.635897
1.585934
1.662491
1.627839
1.645568
1.611722
1.681831
1.69956
1.324029
1.407033
1.324029
1.346593
1.373993
1.327253
1.381245
1.338535
1.39978
1.41348
1.349011
1.407033
1.614139
1.636703
1.626227
1.594799
1.585934
1.629451
1.626227
1.593993
1.630256
1.587546
1.583517
1.611722
1.338535
1.326447
1.415897
1.439267
1.444103
1.440073
1.435238
1.407839
1.431209
1.430403
1.453773
1.622198
1.589963
1.568205
1.565788
1.568205
1.560952
1.589963
1.594799
1.607692
1.556117
1.585934
1.58674
1.337729
1.377216
1.362711
1.339341
1.395751
1.356264
1.420733
1.352234
1.377216
1.373993
1.420733
1.433626
1.620586
1.612527
1.673773
1.627033
1.588352
1.564982
1.582711
1.569011
1.555311
1.474725
1.551282
1.476337
1.458608
1.362711
1.324835
1.328059
1.377216
1.393333
1.383663
1.320806
1.349817
1.426374
1.369157
1.573846
1.606886
1.610916
1.585934
1.625421
1.564176
1.575458
1.568205
1.568205
1.610916
1.56337
1.569011
1.391722
1.455385
1.429597
1.45619
1.39011
1.39011
1.433626
1.365934
1.418315
1.398168
1.419927
1.395751
1.572234
1.616557
1.648791
1.59641
1.617363
1.602857
1.602051
1.593993
1.628645
1.567399
1.570623
1.353846
1.328864
1.340147
1.385275
1.392527
1.350623
1.39978
1.359487
1.388498
1.439267
1.430403
1.457802
1.694725
1.693919
1.646374
1.628645
1.615751
1.64315
1.64315
1.623809
1.648791
1.585934
1.581099
1.63348
1.378828
1.328059
1.379634
1.35304
1.356264
1.405421
1.411062
1.384469
1.368352
1.378022
1.385275
1.390916
1.578681
1.638315
1.631868
1.585934
1.581099
1.593993
1.601245
1.623809
1.637509
1.627033
1.681831
1.38044
1.401392
1.369157
1.394945
1.404615
1.324835
1.354652
1.416703
1.378828
1.381245
1.444908
1.428791
1.615751
1.623809
1.59641
1.631868
1.614139
1.585934
1.570623
1.581905
1.609304
1.581905
1.581905
1.382051
1.394945
1.379634
1.383663
1.393333
1.387692
1.481978
1.385275
1.459414
1.477949
1.441685
1.447326
1.587546
1.593993
1.636703
1.56337
1.63348
1.623809
1.568205
1.632674
1.593993
1.646374
1.573846
1.602857
1.361099
1.340147
1.381245
1.404615
1.384469
1.351429
1.368352
1.372381
1.379634
1.38044
1.405421
1.405421
1.584322
1.585934
1.576264
1.585934
1.657656
1.693114
1.623004
1.668938
1.665714
1.659267
1.663297
1.383663
1.359487
1.39011
1.398168
1.352234
1.352234
1.382051
1.404615
1.369157
1.408645
1.405421
1.415092
1.585934
1.637509
1.580293
1.636703
1.559341
1.598828
1.631868
1.623004
1.640733
1.583517
1.572234
1.32
1.381245
1.382051
1.339341
1.372381
1.428791
1.401392
1.462637
1.449744
1.431209
1.504542
1.481978
1.510183
1.594799
1.635092
1.635092
1.589157
1.577875
1.564176
1.561758
1.624615
1.589157
1.593187
1.635092
1.38044
1.403004
1.369963
1.353846
1.385275
1.404615
1.351429
1.34337
1.378828
1.379634
1.431209
1.426374
1.623809
1.580293
1.573846
1.587546
1.609304
1.606886
1.613333
1.693919
1.675385
1.625421
1.689084
1.398168
1.382051
1.335311
1.39978
1.384469
1.365128
1.381245
1.435238
1.394139
1.390916
1.426374
1.414286
1.59641
1.631868
1.637509
1.63348
1.604469
1.623004
1.617363
1.599634
1.641538
1.625421
1.562564
1.560146
1.35304
1.32967
1.340147
1.354652
1.372381
1.364322
1.421538
1.408645
1.428791
1.461026
1.412674
1.410256
1.626227
1.649597
1.603663
1.623809
1.614139
1.569817
1.581099
1.585128
1.648791
1.601245
1.631062
1.372381
1.321612
1.394139
1.405421
1.378022
1.369157
1.38044
1.415897
1.394139
1.416703
1.438462
1.435238
1.57304
1.623809
1.607692
1.681831
1.616557
1.637509
1.667326
1.663297
1.611722
1.635092
1.584322
1.623809
1.391722
1.353846
1.32967
1.382051
1.345788
1.379634
1.388498
1.414286
1.40381
1.452161
1.379634
1.616557
1.625421
1.613333
1.630256
1.585934
1.577875
1.629451
1.591575
1.637509
1.631868
1.597216
1.616557
1.365934
1.357875
1.444103
1.384469
1.416703
1.368352
1.379634
1.391722
1.414286
1.420733
1.469084
1.41348
1.599634
1.638315
1.606886
1.601245
1.584322
1.608498
1.649597
1.667326
1.665714
1.639927
1.583517
1.32967
1.341758
1.388498
1.377216
1.355458
1.365128
1.401392
1.367546
1.444908
1.396557
1.414286
1.419927
1.637509
1.615751
1.587546
1.625421
1.613333
1.591575
1.573846
1.560146
1.623004
1.580293
1.602857
1.606886
1.349817
1.358681
1.368352
1.357875
1.414286
1.397363
1.382051
1.362711
1.391722
1.405421
1.427179
1.560952
1.622198
1.560146
1.583517
1.576264
1.561758
1.562564
1.628645
1.578681
1.594799
1.585934
1.568205
1.32
1.318388
1.324029
1.364322
1.364322
1.355458
1.340147
1.408645
1.369157
1.393333
1.444908
1.394139
1.601245
1.603663
1.603663
1.637509
1.606081
1.578681
1.578681
1.63348
1.577875
1.627033
1.554505
1.593993
1.375604
1.337729
1.364322
1.377216
1.390916
1.340147
1.389304
1.431209
1.361905
1.393333
1.379634
1.559341
1.626227
1.614945
1.585934
1.618974
1.603663
1.631868
1.570623
1.635897
1.611722
1.598828
1.629451
1.354652
1.325641
1.328059
1.347399
1.394139
1.3337
1.403004
1.353846
1.422344
1.410256
1.412674
1.636703
1.574652
1.644762
1.560952
1.616557
1.564982
1.591575
1.559341
1.594799
1.609304
1.585934
1.5263
1.369157
1.364322
1.32967
1.349817
1.379634
1.357875
1.326447
1.392527
1.355458
1.431209
1.417509
1.406227
1.623004
1.585128
1.588352
1.598828
1.636703
1.565788
1.591575
1.606886
1.627839
1.612527
1.640733
1.625421
1.557729
1.560146
1.598828
1.560952
1.558535
1.57304
1.595604
1.601245
1.613333
1.598828
1.628645
1.700366
1.635092
1.678608
1.665714
1.69956
1.639121
1.675385
1.641538
1.641538
1.663297
1.635897
1.622198
1.236996
1.199927
1.230549
1.195092
1.256337
1.236996
1.209597
1.254725
1.25956
1.254725
1.236996
1.224102
1.422344
1.410256
1.396557
1.467473
1.431209
1.467473
1.409451
1.47956
1.421538
1.427179
1.477949
1.328059
1.283736
1.27326
1.315971
1.31033
1.28696
1.290183
1.311136
1.336923
1.271648
1.340952
1.340147
1.61978
1.576264
1.601245
1.611722
1.560146
1.552894
1.573846
1.561758
1.547253
1.607692
1.603663
1.628645
1.302271
1.367546
1.35304
1.356264
1.334505
1.369157
1.362711
1.394945
1.353846
1.393333
1.381245
1.405421
1.614945
1.598828
1.623809
1.54967
1.590769
1.560146
1.607692
1.614945
1.572234
1.560146
1.609304
1.358681
1.392527
1.324029
1.335311
1.406227
1.386081
1.361905
1.409451
1.388498
1.435238
1.39011
1.414286
1.59641
1.561758
1.581099
1.583517
1.598022
1.587546
1.590769
1.588352
1.560146
1.583517
1.59641
1.580293
1.328059
1.383663
1.324835
1.385275
1.358681
1.382051
1.356264
1.418315
1.379634
1.374799
1.438462
1.597216
1.626227
1.575458
1.602857
1.59641
1.61978
1.636703
1.58674
1.593187
1.585934
1.598828
1.585128
1.416703
1.385275
1.411062
1.423956
1.346593
1.372381
1.419927
1.407033
1.398168
1.378022
1.409451
1.419927
1.610916
1.607692
1.615751
1.620586
1.631868
1.635897
1.637509
1.593993
1.630256
1.57707
1.628645
1.589157
1.392527
1.407839
1.358681
1.350623
1.36674
1.427179
1.412674
1.431209
1.429597
1.398168
1.470696
1.581905
1.608498
1.654432
1.627839
1.610916
1.572234
1.61978
1.577875
1.610916
1.631868
1.569011
1.561758
1.398974
1.384469
1.385275
1.374799
1.405421
1.409451
1.392527
1.362711
1.378828
1.428791
1.405421
1.419927
1.639927
1.585128
1.585128
1.629451
1.627033
1.598022
1.640733
1.61978
1.607692
1.560146
1.552894
1.328059
1.373993
1.379634
1.410256
1.392527
1.391722
1.383663
1.441685
1.423956
1.456996
1.458608
1.475531
1.578681
1.627033
1.56337
1.585934
1.611722
1.615751
1.611722
1.616557
1.631868
1.573846
1.611722
1.569817
1.378828
1.350623
1.378828
1.378828
1.36674
1.377216
1.405421
1.430403
1.404615
1.459414
1.411062
1.598828
1.637509
1.663297
1.656044
1.663297
1.601245
1.609304
1.612527
1.636703
1.584322
1.607692
1.594799
1.386886
1.421538
1.379634
1.419121
1.425568
1.448132
1.433626
1.416703
1.432015
1.477143
1.48359
1.484396
1.689084
1.613333
1.68989
1.684249
1.649597
1.639927
1.626227
1.689084
1.617363
1.684249
1.611722
1.387692
1.394945
1.444908
1.448132
1.429597
1.388498
1.406227
1.473919
1.439267
1.420733
1.45619
1.519048
1.660073
1.705201
1.672967
1.700366
1.714872
1.722124
1.715678
1.670549
1.635092
1.614139
1.709231
1.611722
1.416703
1.491648
1.480366
1.449744
1.454579
1.491648
1.44652
1.451355
1.456996
1.478755
1.554505
1.739048
1.69956
1.714066
1.657656
1.707619
1.714872
1.658462
1.663297
1.700366
1.690696
1.710843
1.690696
1.478755
1.454579
1.428791
1.433626
1.422344
1.481978
1.507766
1.462637
1.519048
1.468278
1.469084
1.492454
1.68989
1.693114
1.63348
1.678608
1.63348
1.697143
1.655238
1.671355
1.658462
1.649597
1.659267
