835868.0
1.742866
1.604674
1.585173
1.647425
1.647425
1.734241
1.757491
1.649113
1.814305
1.973685
2.110377
2.118815
2.009686
2.017374
2.017374
1.939747
2.066125
1.988123
1.834556
1.693364
1.601861
1.578611
1.608049
1.732928
1.732928
1.756366
1.645363
1.843369
1.987748
2.074001
2.21838
1.999936
1.988873
1.911433
1.911433
2.0365
1.966935
1.820118
1.700489
1.605049
1.647988
1.607674
1.705739
1.761429
1.761429
1.652863
1.829868
1.979873
2.05675
2.188379
2.077751
1.978185
1.910871
1.910871
2.063125
1.97481
1.840931
1.715302
1.593424
1.657738
1.648175
1.670864
1.751116
1.751116
1.6478
1.801555
1.980998
2.047188
2.143753
2.149941
2.016812
1.89587
2.050188
2.050188
1.965998
1.864182
1.71699
1.610112
1.634112
1.699177
1.668613
1.739303
1.6448
1.6448
1.822181
1.987561
2.050562
2.143378
2.110752
2.114689
1.885182
2.023937
1.983811
1.983811
1.841306
1.736866
1.630362
1.622862
1.684364
1.741928
1.71549
1.631862
1.804368
1.804368
1.959435
2.04325
2.134753
2.085439
2.114315
1.953435
1.994311
1.966373
1.966373
1.847119
1.721115
1.6403
1.614612
1.651363
1.742678
1.744928
1.600549
1.789555
1.789555
1.974248
2.034062
2.147878
2.092564
2.053938
2.018124
1.993373
1.975935
1.845994
1.845994
1.712677
1.63205
1.617612
1.665801
1.712115
1.816368
1.581986
1.765179
1.958872
1.958872
2.04475
2.148628
2.095376
2.069313
1.998436
2.088439
1.969185
1.827243
1.709677
1.709677
1.6328
1.590424
1.669926
1.700302
1.811493
1.6538
1.730303
1.944434
1.944434
2.043062
2.140753
2.099689
2.081313
1.974248
2.101564
2.018312
1.818618
1.713615
1.713615
1.612174
1.581236
1.656613
1.692052
1.781304
1.694864
1.729178
1.904683
2.033499
2.033499
2.145628
2.086189
2.074938
1.982498
2.023187
2.127815
1.827056
1.704802
1.618174
1.618174
1.588923
1.664676
1.692427
1.781867
1.674051
1.805868
1.879745
2.009124
2.145815
2.145815
2.073626
2.069126
1.993936
2.001998
2.11769
1.901683
1.671614
1.622487
1.622487
1.581236
1.644613
1.680614
1.786367
1.668426
1.79068
1.918934
2.005374
2.122565
2.122565
2.081688
2.050562
1.990748
1.994873
2.060313
1.947247
1.712865
1.596424
1.569235
1.569235
1.64555
1.667488
1.80043
1.665238
1.750178
1.991686
1.993936
2.103252
2.077564
2.077564
2.059375
2.004249
1.987748
2.080939
1.907871
1.772679
1.593424
1.543922
1.648738
1.648738
1.661488
1.784305
1.681364
1.745866
1.956247
2.083564
2.097251
2.065001
2.063313
2.063313
1.993373
1.981373
2.100627
1.889308
1.780742
1.658301
1.506796
1.618549
1.618549
1.667113
1.766679
1.690927
1.725053
1.908808
2.106439
2.105127
2.0425
2.049813
2.049813
1.968623
1.968623
2.093127
1.897933
1.762929
1.692427
1.494983
1.589111
1.6538
1.6538
1.775117
1.685114
1.727865
1.904121
2.04025
2.208442
2.050188
2.026374
1.987748
1.987748
1.975748
2.096127
1.903371
1.756929
1.684176
1.573923
1.571486
1.6373
1.777929
1.777929
1.674989
1.72299
1.890058
2.021499
2.186317
2.118627
1.999374
1.960372
1.960372
1.97331
2.080189
1.908433
1.758616
1.682489
1.561923
1.616862
1.604486
1.754116
1.754116
1.673676
1.695052
1.865682
2.032749
2.115439
2.164941
2.012311
1.957372
1.960935
1.960935
2.073626
1.904121
1.769679
1.667301
1.562673
1.663738
1.583111
1.72449
1.64705
1.64705
1.711177
1.87262
2.012311
2.112627
2.124627
2.122002
1.944247
1.926996
2.082814
2.082814
1.902996
1.783742
1.681176
1.56736
1.653425
1.665613
1.700677
1.661113
1.71549
1.71549
1.867182
2.03725
2.103814
2.112814
2.121815
2.023749
1.905996
2.075876
2.075876
1.896058
1.757866
1.704615
1.558735
1.630925
1.677426
1.73124
1.638988
1.692052
1.692052
1.879932
2.016812
2.080564
2.124815
2.067063
2.082251
1.911621
2.048687
1.904871
1.904871
1.755804
1.675551
1.56736
1.6388
1.661676
1.796492
1.637862
1.665426
1.858744
1.858744
2.004999
2.091814
2.116565
2.053938
2.044937
1.999561
2.03725
1.886495
1.758991
1.758991
1.672364
1.56511
1.622112
1.652113
1.765741
1.715677
1.622862
1.829306
2.004436
2.004436
2.078501
2.133253
2.056375
2.014749
2.003124
2.084501
1.875432
1.755991
1.755991
1.681739
1.54786
1.641425
1.648363
1.738553
1.741366
1.642925
1.796117
1.986811
1.986811
2.084501
2.110752
2.073438
2.016062
1.960185
2.166441
1.88687
1.740428
1.665051
1.665051
1.550485
1.608049
1.664676
1.741928
1.729178
1.695052
1.772304
1.960935
2.080001
2.080001
2.106814
2.068001
2.03425
1.943497
2.12219
1.992061
1.72824
1.661863
1.557423
1.557423
1.617424
1.655863
1.743616
1.744741
1.694489
1.850869
1.954935
2.063313
2.063313
2.116002
2.050937
2.043062
1.938247
2.062001
2.022624
1.778492
1.626237
1.549735
1.549735
1.631862
1.664863
1.723178
1.746053
1.672739
1.873932
1.956622
2.026749
2.104564
2.104564
2.049813
2.024124
1.934872
2.063688
1.98231
1.855182
1.6253
1.524234
1.608799
1.608799
1.6523
1.727865
1.768554
1.649113
1.855744
2.045312
2.013624
2.103439
2.060313
2.060313
2.032749
1.947247
2.058625
1.98006
1.864557
1.709115
1.512421
1.587048
1.587048
1.658301
1.725615
1.782054
1.652863
1.827431
2.059563
2.056938
2.101752
2.052063
2.052063
2.038375
1.926059
2.050375
2.012124
1.824618
1.750366
1.527609
1.56436
1.63355
1.63355
1.719615
1.777742
1.644988
1.821431
1.989436
2.13719
2.086939
2.026562
2.009686
2.009686
1.923621
2.056
2.000311
1.821618
1.705552
1.593236
1.55161
1.624175
1.722428
1.722428
1.761804
1.637112
1.80868
1.970873
2.103064
2.174316
2.001436
1.993561
1.993561
1.920434
2.035937
2.004624
1.834931
1.704802
1.605799
1.602237
1.600549
1.705552
1.705552
1.751491
1.629425
1.813555
1.971998
2.048687
2.212755
2.024124
1.988123
1.906371
1.906371
2.043062
2.001249
1.854432
1.701802
1.591736
1.6418
1.607674
1.671614
1.752991
1.752991
1.646113
1.80193
1.968248
2.047188
2.158003
2.129315
1.978373
1.905058
2.043625
2.043625
1.97481
1.854432
1.718865
1.598111
1.632612
1.676114
1.6463
1.747178
1.64105
1.64105
1.800617
1.971248
2.040062
2.122002
2.134003
2.029749
1.886495
2.014561
2.014561
1.998249
1.855932
1.72449
1.625112
1.603736
1.693552
1.679676
1.732928
1.621737
1.621737
1.804368
1.96581
2.049438
2.14394
2.084689
2.114127
1.897183
1.982498
1.992061
1.992061
1.842431
1.731615
1.633737
1.597924
1.676864
1.735553
1.709302
1.626612
1.779992
1.779992
1.95381
2.049062
2.132878
2.091626
2.084689
1.986623
1.97706
1.979123
1.843744
1.843744
1.71024
1.642738
1.607112
1.653988
1.734803
1.784492
1.588173
1.758241
1.758241
1.959247
2.027874
2.157629
2.081126
2.038562
2.017561
1.996936
1.980248
1.843931
1.843931
1.71024
1.634112
1.590799
1.670114
1.697302
1.822556
1.607487
1.731053
1.933371
1.933371
2.04025
2.124065
2.085814
2.068751
1.982686
2.078501
1.986998
1.828556
1.54636
1.54636
1.584236
1.6523
1.699364
1.779992
1.673489
1.791992
1.905808
1.984936
2.109439
2.109439
2.0665
2.041187
1.968998
1.977435
2.049813
1.920434
1.678926
1.585736
1.560798
1.560798
1.649113
1.681926
1.785054
1.664676
1.743616
1.991498
1.98231
2.097626
2.067438
2.067438
2.012874
1.980248
1.951935
2.070063
1.897745
1.760116
1.574861
1.540547
1.655301
1.655301
1.660551
1.781492
1.678551
1.738178
1.95831
2.05375
2.076626
2.041937
2.041937
2.0395
1.958872
1.975748
2.070063
1.865494
1.769679
1.623237
1.520484
1.634487
1.634487
1.681364
1.792742
1.694489
1.71699
1.910683
2.103252
2.087689
2.031062
2.020374
2.020374
1.947809
1.95831
2.075688
1.871307
1.743241
1.684926
1.509421
1.601674
1.659613
1.659613
1.779242
1.681739
1.728428
1.897933
2.049625
2.178629
1.995998
2.005561
1.943684
1.943684
1.932809
2.05525
1.884245
1.717927
1.662238
1.54261
1.567173
1.635612
1.635612
1.749803
1.643488
1.686427
1.853682
1.987373
2.155753
2.030874
1.96056
1.917434
1.917434
1.929434
2.055813
1.861369
1.726178
1.637487
1.547672
1.570923
1.598861
1.738553
1.738553
1.635612
1.667863
1.861744
1.976123
2.092564
2.107002
1.952122
1.897558
1.908433
1.908433
2.028999
1.861182
1.72449
1.617987
1.529672
1.600361
1.563985
1.709302
1.6388
1.6388
1.666738
1.856119
1.98456
2.071938
2.108877
2.012311
1.885182
1.88012
1.88012
2.03575
1.854619
1.72674
1.625675
1.527047
1.615549
1.618924
1.671239
1.618174
1.618174
1.669551
1.81768
1.983623
2.045687
2.04325
2.068938
1.904308
1.852182
2.025062
2.025062
1.825181
1.726365
1.640675
1.517859
1.584611
1.647238
1.659988
1.614987
1.656613
1.656613
1.817868
1.980998
2.027874
2.065751
2.026187
2.003686
1.827618
1.997686
1.846369
1.846369
1.719802
1.635987
1.543735
1.596236
1.647238
1.750366
1.589861
1.628487
1.819368
1.819368
1.953435
2.036687
2.075313
2.005561
2.011374
1.89137
1.991686
1.840556
1.840556
1.708365
1.625112
1.522547
1.573173
1.616299
1.73649
1.627737
1.587986
1.805492
1.805492
1.956622
2.021312
2.057875
2.003874
1.948184
1.920621
1.987186
1.808868
1.692989
1.692989
1.620799
1.504171
1.587423
1.620237
1.729178
1.713802
1.569235
1.770804
1.959622
1.959622
2.030124
2.079063
2.007624
1.97181
1.923059
2.092939
1.811868
1.706677
1.62305
1.62305
1.519171
1.583486
1.608049
1.709677
1.712115
1.627362
1.754866
1.941622
1.941622
2.023749
2.061063
2.008374
1.96581
1.87712
2.106064
1.864182
1.671614
1.616112
1.616112
1.507733
1.561735
1.607862
1.697677
1.683051
1.656426
1.762179
1.920621
2.024124
2.024124
2.05825
1.986998
1.979685
1.89212
2.026562
1.95231
1.682301
1.587799
1.496671
1.496671
1.56061
1.600549
1.674614
1.690364
1.596049
1.820493
1.893808
1.983998
2.051687
2.051687
1.996373
1.968998
1.875807
2.010999
1.926996
1.762741
1.567548
1.48467
1.554985
1.554985
1.604861
1.684364
1.705177
1.606362
1.817118
1.943497
1.970123
2.0485
2.0485
1.989061
1.969373
1.892495
2.005936
1.926621
1.802305
1.607112
1.46292
1.559673
1.559673
1.591924
1.659801
1.71849
1.593986
1.785429
2.002186
1.963935
2.025062
1.979685
1.979685
1.971998
1.857244
1.991498
1.931309
1.784867
1.660363
1.455232
1.529297
1.579736
1.579736
1.670864
1.72749
1.595299
1.762741
1.979498
2.047937
2.029749
1.980623
1.97106
1.97106
1.864932
2.018312
1.943309
1.770617
1.656988
1.520109
1.508859
1.562298
1.562298
1.664488
1.725053
1.588736
1.770617
1.928871
2.077188
2.073438
1.952122
1.945184
1.945184
1.866245
1.987186
1.95006
1.778117
1.644238
1.54261
1.513359
1.547485
1.665801
1.665801
1.707615
1.579173
1.766679
1.921184
2.010062
2.158753
1.960935
1.945559
1.863619
1.863619
1.985686
1.95006
1.779054
1.660363
1.532109
1.570923
1.536797
1.635425
1.701239
1.701239
1.57261
1.743616
1.925121
2.005186
2.124815
2.061625
1.911246
1.835118
1.993748
1.993748
1.932809
1.793492
1.653613
1.538672
1.573735
1.596799
1.594736
1.689239
1.689239
1.589674
1.73349
1.911433
1.994498
2.080376
2.071001
1.953622
1.823306
1.97256
1.97256
1.932059
1.800805
1.663738
1.56061
1.557235
1.622487
1.596611
1.671614
1.570548
1.570548
1.738178
1.88612
1.997873
2.081126
2.022249
2.046438
1.813555
1.926059
1.930559
1.930559
1.783179
1.655488
1.578611
1.539047
1.6238
1.655301
1.653238
1.558923
1.726553
1.726553
1.875057
1.973873
2.082251
2.012874
2.022249
1.907683
1.906183
1.926059
1.926059
1.784679
1.661488
1.581048
1.533234
1.573735
1.667488
1.696927
1.535859
1.695239
1.695239
1.887245
1.970873
2.087501
2.021499
1.982498
1.947247
1.902996
1.914996
1.770804
1.770804
1.650613
1.577111
1.526672
1.588173
1.641613
1.752991
1.537922
1.670676
1.879745
1.879745
1.966747
2.082251
2.030312
1.996748
1.923809
2.009686
1.920809
1.760679
1.645925
1.645925
1.574673
1.514109
1.595861
1.627737
1.743616
1.611799
1.63805
1.856682
1.977623
1.977623
2.060313
2.023562
1.987748
1.909558
1.997498
1.982498
1.745303
1.645363
1.645363
1.568673
1.508484
1.606174
1.614424
1.727303
1.613487
1.650238
1.815805
1.957747
1.957747
2.073251
2.019624
1.997873
1.915371
1.928121
2.077001
1.755991
1.620799
1.561923
1.561923
1.512609
1.584048
1.626425
1.716052
1.631862
1.711552
1.800805
1.938434
2.06125
2.06125
2.020187
1.995061
1.930934
1.915183
2.049438
1.826681
1.603362
1.561923
1.504733
1.504733
1.574298
1.606924
1.72149
1.616487
1.701802
1.850869
1.909558
2.052625
2.052625
2.017749
1.976873
1.928684
1.911246
1.995436
1.866619
1.645175
1.541109
1.493858
1.493858
1.564735
1.588736
1.725053
1.62155
1.658488
1.900933
1.921184
2.041375
2.015499
2.015499
1.97556
1.917808
1.896245
2.007999
1.829868
1.705177
1.525172
1.458795
1.571673
1.571673
1.587611
1.709677
1.62755
1.656051
1.859494
1.998061
2.009311
1.990561
1.97931
1.97931
1.907871
1.903183
2.016249
1.818993
1.702552
1.590049
1.451294
1.545797
1.545797
1.606924
1.718115
1.635612
1.636925
1.834181
2.031437
2.041
1.981935
1.963935
1.963935
1.89512
1.871307
2.023187
1.821618
1.690364
1.617612
1.457669
1.522359
1.581236
1.581236
1.715302
1.626987
1.63655
1.822931
1.97856
2.12144
1.964872
1.956997
1.916871
1.916871
1.87712
2.016812
1.837744
1.690739
1.611799
1.513546
1.507546
1.572423
1.705364
1.705364
1.62905
1.635237
1.80868
1.956997
2.104377
2.043812
1.927184
1.897558
1.897558
1.872057
2.014561
1.853494
1.702927
1.606549
1.518421
1.539235
1.545235
1.695052
1.695052
1.619862
1.620049
1.788805
1.966185
2.042687
2.103064
1.948934
1.871307
1.856869
1.856869
2.007436
1.841494
1.71174
1.600549
1.513171
1.580111
1.535484
1.660551
1.62305
1.62305
1.627362
1.789742
1.941997
2.023374
2.078314
2.025812
1.871495
1.839244
2.011374
2.011374
1.828181
1.717552
1.617237
1.514484
1.567923
1.613112
1.661863
1.574298
1.771367
1.940872
1.940872
2.018687
2.043437
1.990186
1.941997
1.908246
2.025624
1.791617
1.678176
1.678176
1.612924
1.495546
1.57036
1.600924
1.676301
1.695052
1.600549
1.741928
1.935059
1.935059
2.026187
2.037437
1.998811
1.95081
1.875057
2.092939
1.832868
1.668426
1.603362
1.603362
1.494796
1.576361
1.606362
1.694489
1.676114
1.642738
1.724115
1.909183
2.004811
2.004811
2.028624
1.979685
1.95606
1.862119
2.036312
1.921371
1.647613
1.589111
1.491045
1.491045
1.551985
1.594736
1.682114
1.679864
1.615549
1.801367
1.88387
1.98456
2.033875
2.033875
1.983998
1.951372
1.865682
2.007624
1.927934
1.726928
1.564735
1.487858
1.487858
1.541297
1.567548
1.674426
1.681926
1.597549
1.814493
1.89737
1.955872
2.032749
2.032749
1.971248
1.946309
1.86887
1.996186
1.895683
1.783179
1.578798
1.464795
1.555735
1.555735
1.599236
1.665988
1.713052
1.597174
1.80043
1.989623
1.956247
2.027124
1.977435
1.977435
1.947247
1.871682
2.011936
1.903933
1.764804
1.644988
1.442294
1.519546
1.581048
1.581048
1.659426
1.711365
1.600549
1.762929
1.972748
2.019624
2.021124
1.968435
1.968435
1.952122
1.854619
1.990748
1.916496
1.746053
1.662051
1.48992
1.499858
1.572423
1.572423
1.668238
1.711552
1.596049
1.767804
1.927371
2.075876
2.016999
1.943122
1.95081
1.95081
1.843556
1.985686
1.924934
1.753366
1.629612
1.514859
1.490108
1.548047
1.661301
1.661301
1.689239
1.574298
1.750178
1.914246
2.025812
2.130252
1.914433
1.929434
1.845806
1.845806
1.968435
1.924746
1.767991
1.6328
1.542985
1.551235
1.538297
1.632987
1.632987
1.700677
1.575986
1.733678
1.911246
1.995061
2.134565
1.983436
1.909371
1.827618
1.827618
1.975373
1.914246
1.771929
1.629987
1.526297
1.557047
1.549172
1.608987
1.685114
1.685114
1.562485
1.721865
1.914246
1.980998
2.083189
2.073813
1.909371
1.817305
1.96656
1.96656
1.906933
1.785804
1.638988
1.535672
1.53811
1.614049
1.587423
1.676114
1.56136
1.56136
1.739303
1.923246
1.993186
2.080001
2.053563
2.020187
1.813368
1.957372
1.944622
1.944622
1.797617
1.680614
1.583111
1.55086
1.635612
1.665426
1.671614
1.569985
1.569985
1.743616
1.908808
2.008936
2.098564
2.035187
2.069876
1.862307
1.940309
1.939372
1.939372
1.806993
1.676676
1.601111
1.560423
1.625675
1.688114
1.685301
1.567173
1.739303
1.739303
1.921559
2.004811
2.099689
2.044187
2.004061
1.95831
1.921184
1.923809
1.797617
1.797617
1.659988
1.601486
1.540547
1.622862
1.661676
1.765554
1.540735
1.711365
1.90112
1.90112
1.990561
2.103064
2.027874
1.999186
1.948184
1.992436
1.909371
1.779429
1.779429
1.658863
1.591924
1.532672
1.604486
1.651925
1.770804
1.607112
1.666363
1.881995
1.881995
2.000311
2.069876
2.041937
1.991873
1.912558
2.012311
1.944059
1.769866
1.654926
1.654926
1.580673
1.532672
1.612362
1.651175
1.743991
1.6538
1.657551
1.858557
1.978185
1.978185
2.072876
2.035375
2.017749
1.916496
1.976123
2.065563
1.743616
1.645738
1.581048
1.581048
1.536797
1.611612
1.652863
1.750928
1.629425
1.725615
1.827618
1.96506
2.077939
2.077939
2.013624
2.012686
1.923059
1.925871
2.070626
1.835494
1.623987
1.580486
1.580486
1.527984
1.608987
1.64855
1.738553
1.6388
1.741928
1.866619
1.943309
2.075876
2.075876
2.018687
1.996561
1.920246
1.919684
2.025999
1.866245
1.632987
1.55986
1.522922
1.522922
1.591924
1.620987
1.756554
1.651925
1.699552
1.922871
1.942184
2.057688
2.031437
2.031437
1.986998
1.939559
1.914808
2.039875
1.855182
1.71849
1.547297
1.494233
1.598486
1.598486
1.622675
1.755054
1.648175
1.688864
1.910683
1.998436
2.034062
2.010999
2.010999
2.003124
1.924559
1.899058
2.040625
1.835118
1.726365
1.581048
1.475483
1.583111
1.583111
1.632612
1.73199
1.660738
1.669926
1.840369
2.048125
2.043062
1.989623
1.985123
1.985123
1.915934
1.90112
2.041562
1.836431
1.720552
1.636737
1.464607
1.561735
1.617799
1.617799
1.735928
1.661113
1.673301
1.842619
2.009874
2.133628
1.966373
1.967498
1.926621
1.926621
1.893058
2.048125
1.862119
1.71624
1.630737
1.521796
1.527422
1.599986
1.599986
1.728428
1.641988
1.678176
1.835118
1.978373
2.133628
2.027499
1.939372
1.902621
1.902621
1.881995
2.027499
1.858182
1.711552
1.624925
1.532109
1.537172
1.574673
1.712677
1.712677
1.638988
1.643113
1.828743
1.960372
2.064626
2.107189
1.944997
1.89062
1.879932
1.879932
2.027874
1.863244
1.724678
1.615549
1.535672
1.590049
1.549922
1.693552
1.636925
1.636925
1.64705
1.81768
1.989623
2.061438
2.107377
2.043625
1.901495
1.871307
2.047375
2.047375
1.862682
1.737428
1.637112
1.529484
1.614612
1.610674
1.675176
1.6298
1.6298
1.656801
1.80718
1.991873
2.059
2.077376
2.086939
1.919684
1.846931
2.025999
2.025999
1.860807
1.72749
1.648925
1.524796
1.583861
1.652675
1.663363
1.624737
1.63955
1.63955
1.798555
1.962435
2.051312
2.072313
2.023187
2.005936
1.812055
1.997311
1.855182
1.855182
1.731053
1.641988
1.535859
1.566423
1.635612
1.732928
1.617049
1.626237
1.814493
1.814493
1.962435
2.032562
2.079813
1.998436
2.022062
1.89287
1.98081
1.850681
1.850681
1.718115
1.637487
1.540359
1.582173
1.614799
1.73799
1.643113
1.581798
1.799117
1.799117
1.943872
2.023562
2.072501
1.995998
1.96956
1.955872
1.979498
1.851619
1.716802
1.716802
1.614612
1.524421
1.563985
1.614987
1.712677
1.716615
1.545797
1.759554
1.95906
1.95906
2.029374
2.088251
2.007061
1.96506
1.916683
2.063125
1.860057
1.723928
1.635987
1.635987
1.516921
1.587986
1.621362
1.703115
1.731615
1.604486
1.734428
1.933746
1.933746
2.038562
2.091064
2.010249
1.990748
1.87787
2.079626
1.889308
1.718678
1.625112
1.625112
1.518421
1.579361
1.613487
1.697489
1.707052
1.63955
1.740991
1.910496
2.002561
2.002561
2.058625
2.006499
1.995811
1.88837
2.041937
1.973873
1.690552
1.610487
1.524047
1.524047
1.572423
1.601111
1.689614
1.707802
1.614612
1.834556
1.89587
1.990748
2.070813
2.070813
1.990373
2.002374
1.87937
2.011936
1.975373
1.780367
1.578048
1.503421
1.503421
1.567923
1.615924
1.70349
1.725803
1.580298
1.821806
1.926996
1.968248
2.057688
2.057688
2.015687
1.97181
1.874682
1.990561
1.945559
1.828556
1.610862
1.472107
1.554047
1.554047
1.629237
1.664863
1.747178
1.605236
1.776992
1.991123
1.962247
2.049813
2.019249
2.019249
1.980998
1.894183
1.995998
1.972373
1.814305
1.680051
1.481858
1.533797
1.597174
1.597174
1.673864
1.749991
1.614049
1.786367
1.983811
2.034437
2.029187
1.996561
1.996561
1.980248
1.898495
2.016812
1.960935
1.781867
1.683989
1.506421
1.531547
1.591736
1.591736
1.671988
1.731053
1.599986
1.767429
1.932809
2.085814
2.05
1.973498
1.984748
1.984748
1.886308
2.001624
2.007436
1.809618
1.664863
1.590236
1.520671
1.593236
1.674801
1.674801
1.736866
1.739678
1.833618
2.022437
2.111127
2.101189
1.960935
1.838869
1.981935
1.981935
1.95456
1.833806
1.675926
1.568485
1.56286
1.641237
1.614237
1.689801
1.595674
1.595674
1.751116
1.886683
2.009499
2.096127
2.050562
2.064063
1.830056
1.938434
1.940309
1.940309
1.801555
1.671051
1.601299
1.55461
1.623237
1.668051
1.669176
1.580861
1.733865
1.733865
1.918371
2.008936
2.081688
2.043625
2.0545
1.947059
1.920621
1.940309
1.940309
1.790492
1.665801
1.599986
1.567173
1.62305
1.697677
1.719615
1.55236
1.719615
1.719615
1.924746
1.991311
2.107002
2.020937
1.994498
1.97031
1.95756
1.943309
1.794242
1.794242
1.643675
1.601111
1.533234
1.609737
1.674989
1.777554
1.556298
1.680051
1.909933
1.909933
1.987561
2.103064
2.053188
1.999749
1.932621
2.009311
1.942372
1.783367
1.670676
1.670676
1.590986
1.523484
1.624362
1.645363
1.788805
1.6298
1.653425
1.858932
1.858932
2.002561
2.086189
2.049813
2.002374
1.916683
2.000124
1.985311
1.769491
1.658676
1.658676
1.607862
1.529859
1.602799
1.634112
1.745116
1.657926
1.672364
1.849744
1.96731
1.96731
2.071563
2.024124
2.003499
1.936559
1.953622
2.075501
1.744553
1.642363
1.588548
1.588548
1.546922
1.6358
1.646863
1.727865
1.65005
1.741178
1.821993
1.983436
2.086376
2.086376
2.016062
1.997498
1.941997
1.935809
2.087689
1.840931
1.619674
1.571486
1.571486
1.531547
1.621362
1.637487
1.757491
1.639925
1.72974
1.879557
1.936559
2.084876
2.084876
2.037625
2.000874
1.939747
1.923246
2.037625
1.89737
1.671051
1.568298
1.513921
1.513921
1.598111
1.638425
1.763116
1.671426
1.698989
1.901308
1.954185
2.069876
2.034812
2.034812
2.014374
1.956435
1.88987
2.047563
1.877682
1.738741
1.585173
1.511671
1.586673
1.586673
1.628487
1.764429
1.663738
1.687176
1.914433
2.019624
2.017749
2.017374
2.002374
2.002374
1.942747
1.929996
2.053
1.824243
1.754304
1.620237
1.489358
1.608612
1.608612
1.6373
1.737053
1.673301
1.673864
1.854244
2.068188
2.052063
1.978373
1.971248
1.971248
1.926246
1.900371
2.081688
1.871495
1.700114
1.645175
1.502296
1.563798
1.636175
1.636175
1.764429
1.669551
1.668801
1.854057
2.007249
2.162128
2.005374
1.972185
1.919871
1.919871
1.910871
2.0545
1.866245
1.741553
1.64705
1.531172
1.537734
1.616487
1.740053
1.740053
1.675364
1.678926
1.823681
1.980998
2.131377
2.070626
1.970873
1.941809
1.941809
1.890433
2.04025
1.866994
1.738366
1.646113
1.568485
1.575986
1.56136
1.726365
1.726365
1.659238
1.639925
1.848056
1.964685
2.043437
2.144503
1.966747
1.910683
1.902246
1.902246
2.031812
1.845806
1.750741
1.6433
1.557423
1.649675
1.56436
1.682676
1.6508
1.6508
1.651363
1.81318
1.981373
2.068188
2.093876
2.055063
1.895495
1.853307
2.041
2.041
1.87037
1.742116
1.619862
1.535859
1.599424
1.650613
1.670301
1.636362
1.6358
1.6358
1.81093
1.992436
2.042125
2.070438
2.064063
1.967685
1.835494
2.025999
2.025999
1.863994
1.759179
1.648925
1.528547
1.57261
1.664488
1.708365
1.650238
1.637675
1.637675
1.794805
1.954935
2.045875
2.105314
2.018687
2.058438
1.826306
1.979873
1.87487
1.87487
1.736866
1.6478
1.555547
1.597736
1.629237
1.759366
1.628487
1.599986
1.827806
1.827806
1.971623
2.014749
2.101002
2.017749
1.995623
1.966373
1.97481
1.847494
1.730678
1.730678
1.646863
1.54861
1.595299
1.639738
1.722615
1.692802
1.575423
1.778117
1.778117
1.96206
2.030874
2.080939
1.996561
1.975373
1.942559
2.039125
1.852931
1.719802
1.719802
1.614237
1.523484
1.591361
1.613112
1.689427
1.734428
1.574486
1.751491
1.958685
1.958685
2.018312
2.104002
2.024687
1.957372
1.892495
2.093314
1.861182
1.734615
1.643863
1.643863
1.500421
1.55461
1.621362
1.699177
1.736866
1.652675
1.711177
1.900558
2.028812
2.028812
2.073626
2.026749
1.996936
1.880495
2.040625
1.960935
1.707802
1.621362
1.527609
1.527609
1.568298
1.588736
1.701427
1.72149
1.631487
1.805868
1.89512
1.991686
1.991686
2.090689
2.015311
2.005749
1.897933
2.010249
1.974435
1.754866
1.619862
1.506984
1.506984
1.57261
1.618924
1.673301
1.724678
1.610862
1.832493
1.914996
1.987186
2.064063
2.064063
1.983436
1.992061
1.89812
2.011936
1.96206
1.825556
1.565673
1.503983
1.583861
1.583861
1.615549
1.689989
1.735365
1.585923
1.821056
1.988123
1.960935
2.061813
2.022249
2.022249
1.967498
1.906183
2.007249
1.972185
1.841869
1.665426
1.475295
1.527984
1.527984
1.614424
1.658676
1.744178
1.622487
1.766679
1.96956
2.026374
2.035
2.008936
2.008936
1.990748
1.88012
1.984373
1.986061
1.807555
1.71324
1.540735
1.54336
1.598299
1.598299
1.688114
1.746053
1.614049
1.781117
1.942184
2.05075
2.022624
1.992623
1.995998
1.995998
1.89437
2.006499
1.975935
1.793867
1.687176
1.588548
1.526109
1.581986
1.664488
1.664488
1.72074
1.606362
1.755429
1.916121
2.06425
2.098377
1.944434
1.954185
1.954185
1.882183
1.982498
2.010624
1.807368
1.6268
1.587048
1.542235
1.566985
1.663738
1.663738
1.725803
1.600736
1.730865
1.916308
2.004811
2.181254
1.988498
1.920621
1.860619
1.860619
1.986998
2.006499
1.81018
1.679864
1.561548
1.56811
1.565673
1.6373
1.742678
1.742678
1.612174
1.732928
1.888558
2.007249
2.11094
2.080939
1.953435
1.87112
1.944434
1.944434
1.976685
1.853494
1.683801
1.602049
1.561735
1.610674
1.587986
1.71399
1.71399
1.611049
1.745678
1.928309
1.977435
2.075501
2.100627
1.991311
1.854994
1.95006
1.95006
1.96881
1.794992
1.699552
1.596986
1.54411
1.655488
1.600361
1.671239
1.591549
1.591549
1.727678
1.896245
2.019062
2.078126
2.008936
2.062001
1.848619
1.912371
1.994686
1.994686
1.812993
1.661301
1.602424
1.530797
1.615549
1.695052
1.682676
1.563235
1.70499
1.70499
1.882933
1.999936
2.079626
2.050188
2.028624
1.923059
1.888745
1.972185
1.972185
1.81693
1.674426
1.595674
1.503421
1.591924
1.676114
1.733115
1.573735
1.693739
1.693739
1.852931
1.977248
2.089564
2.045875
2.04175
1.989248
1.893245
1.971435
1.819368
1.819368
1.675739
1.633362
1.542797
1.607487
1.656988
1.792742
1.581611
1.694114
1.871307
1.871307
1.975373
2.060313
2.056188
2.016999
1.947059
2.008186
1.962435
1.765179
1.682301
1.682301
1.607674
1.531734
1.648175
1.643113
1.743616
1.649113
1.6388
1.849931
1.995061
1.995061
2.083001
2.03725
1.998249
1.932434
1.988686
2.05
1.790492
1.638988
1.638988
1.601299
1.515796
1.614424
1.635987
1.753928
1.663738
1.644613
1.817493
1.980248
1.980248
2.090314
2.022437
1.981748
1.926434
1.922496
2.109064
1.772492
1.671239
1.589298
1.589298
1.490108
1.606737
1.632987
1.727865
1.682301
1.708365
1.749616
1.940872
2.083376
2.083376
2.035
2.004811
1.935997
1.872057
2.059938
1.856869
1.635237
1.599049
1.503796
1.503796
1.576548
1.603174
1.746803
1.657926
1.708927
1.849369
1.910121
2.025999
1.962997
1.962997
1.931309
1.890433
2.036687
1.824618
1.71924
1.6478
1.508671
1.543922
1.611799
1.611799
1.710802
1.649113
1.652675
1.835681
1.987561
2.149191
1.988686
1.946309
1.929621
1.929621
1.895495
2.073813
1.858182
1.694864
1.617612
1.542235
1.549735
1.611424
1.732928
1.732928
1.6463
1.622675
1.829118
1.958685
2.091439
2.122377
1.926434
1.863994
1.870182
1.870182
2.042125
1.856494
1.737053
1.6343
1.510359
1.583111
1.56586
1.709677
1.709677
1.659051
1.630362
1.80643
1.951935
2.053
2.11919
2.021687
1.885745
1.849181
1.849181
2.015499
1.859682
1.728428
1.64855
1.538859
1.599049
1.56736
1.683801
1.636175
1.636175
1.64105
1.802118
1.972748
2.016999
2.070813
2.074376
1.902433
1.857057
2.024124
2.024124
1.823493
1.73124
1.6358
1.544485
1.600924
1.630737
1.620424
1.622862
1.633175
1.633175
1.800617
1.992623
2.041375
2.048125
2.02825
1.998061
1.829306
2.023374
1.87487
1.87487
1.72074
1.6253
1.517296
1.576173
1.638613
1.727303
1.610487
1.598299
1.598299
1.799492
1.95231
2.028437
2.088439
1.996373
1.990936
1.850494
1.981935
1.860244
1.860244
1.734615
1.625675
1.513921
1.546547
1.617424
1.729928
1.664301
1.574298
1.749616
1.749616
1.920246
1.996936
2.067813
1.986436
1.96356
1.88387
1.934872
1.843181
1.703115
1.703115
1.610674
1.520109
1.54861
1.584048
1.715302
1.685676
1.527797
1.73124
1.940497
1.940497
1.973123
2.072688
1.998999
1.957185
1.902058
2.021124
1.794242
1.688864
1.688864
1.610674
1.505296
1.572798
1.599986
1.657363
1.705927
1.55611
1.730865
1.947247
1.947247
2.004999
2.034437
1.969185
1.961497
1.858369
2.080751
1.864932
1.669551
1.582173
1.582173
1.495733
1.54936
1.598674
1.687176
1.683989
1.573548
1.704052
1.887245
1.989436
1.989436
2.071376
1.992061
1.920996
1.852744
2.009874
1.926621
1.696927
1.584611
1.470982
1.470982
1.518609
1.582736
1.648363
1.708365
1.589861
1.741553
1.835681
1.964497
2.044187
2.044187
1.96206
1.966185
1.838869
1.943122
1.95381
1.740991
1.56211
1.472482
1.472482
1.543735
1.534922
1.65005
1.690739
1.56961
1.785242
1.887808
1.899058
2.016062
2.016062
1.966935
1.945184
1.879745
1.961872
1.893433
1.769491
1.57111
1.450169
1.548235
1.548235
1.591361
1.620237
1.687176
1.566798
1.759366
1.95756
1.937122
1.992811
1.954747
1.954747
1.942372
1.862494
1.956247
1.964122
1.776804
1.631862
1.451669
1.506984
1.565485
1.565485
1.649863
1.711552
1.567923
1.731428
1.939559
2.031437
1.995061
1.947434
1.943309
1.943309
1.844681
1.96281
1.952872
1.766117
1.653988
1.491233
1.471357
1.551797
1.551797
1.646488
1.71924
1.570173
1.71924
1.889683
2.059188
2.020374
1.938059
1.939934
1.939934
1.840181
1.945184
1.95156
1.773429
1.628112
1.54861
1.500983
1.54936
1.632987
1.632987
1.713052
1.582923
1.730865
1.898495
1.989436
2.121252
1.935622
1.933371
1.860994
1.860994
1.954935
1.973685
1.780367
1.635987
1.557423
1.542235
1.523109
1.597174
1.70499
1.70499
1.56361
1.70649
1.873557
1.974623
2.100439
1.997123
1.89737
1.837744
1.837744
1.960372
1.946309
1.781117
1.646113
1.532297
1.518046
1.55761
1.574861
1.680989
1.680989
1.564173
1.680051
1.861932
1.96431
2.050562
2.066875
1.901308
1.81693
1.927934
1.927934
1.932809
1.782804
1.641613
1.551422
1.522547
1.591924
1.564173
1.666551
1.563048
1.563048
1.691489
1.859307
1.966747
2.049625
2.025062
2.005936
1.799867
1.903558
1.947997
1.947997
1.78768
1.647988
1.561173
1.503046
1.578236
1.624362
1.63055
1.556298
1.556298
1.683426
1.855182
1.973873
2.050188
1.993748
2.021874
1.855557
1.87937
1.931309
1.931309
1.781117
1.640488
1.562485
1.497796
1.580861
1.6388
1.678364
1.532672
1.656051
1.656051
1.855557
1.95681
2.047188
2.003311
1.972748
1.932997
1.844869
1.921934
1.770054
1.770054
1.621174
1.56436
1.48392
1.56436
1.618174
1.73724
1.516359
1.624737
1.830993
1.830993
1.946872
2.066125
2.001811
1.95231
1.910683
1.906933
1.920996
1.745678
1.631862
1.631862
1.56136
1.46292
1.575048
1.600924
1.739303
1.579173
1.598861
1.812805
1.812805
1.946872
2.037625
2.012499
1.967685
1.876932
1.933934
1.947247
1.737053
1.639738
1.639738
1.563048
1.466295
1.568485
1.590424
1.719052
1.625112
1.613862
1.797617
1.920059
1.920059
2.026187
2.012686
1.981935
1.89887
1.921934
2.044
1.695989
1.612174
1.551985
1.551985
1.473232
1.596236
1.611237
1.695802
1.627737
1.675926
1.765554
1.920996
2.035
2.035
1.948747
1.948934
1.895495
1.87037
2.053188
1.801367
1.581423
1.540547
1.540547
1.476233
1.56286
1.595486
1.694677
1.589298
1.645363
1.79368
1.903933
2.039875
2.039875
2.001811
1.970123
1.908433
1.871495
2.010999
1.850307
1.614987
1.520109
1.452607
1.452607
1.556672
1.579548
1.695802
1.622487
1.654551
1.851994
1.875995
2.004624
1.990561
1.990561
1.945372
1.908996
1.859307
2.002749
1.841494
1.674239
1.514109
1.450357
1.543735
1.543735
1.592674
1.697864
1.634112
1.612362
1.830243
1.946309
1.976123
1.978185
1.978185
1.950622
1.905058
1.854057
2.005186
1.818993
1.70949
1.557985
1.442857
1.527984
1.527984
1.573923
1.666176
1.629987
1.611799
1.780929
1.999749
1.988498
1.972748
1.960935
1.960935
1.905808
1.840744
2.023374
1.831743
1.695614
1.615362
1.437981
1.530047
1.579923
1.579923
1.704052
1.6523
1.617237
1.78918
1.97181
2.077188
1.961122
1.938622
1.900183
1.900183
1.845619
2.029374
1.839994
1.701239
1.617049
1.500983
1.495921
1.55611
1.55611
1.698614
1.637487
1.602049
1.782992
1.938247
2.086751
2.009874
1.911621
1.899808
1.899808
1.845994
1.997686
1.851431
1.697489
1.611237
1.519921
1.494983
1.54486
1.685489
1.685489
1.625487
1.583298
1.763679
1.929059
2.019999
2.106439
1.920434
1.87487
1.839619
1.839619
2.008561
1.845244
1.71999
1.605799
1.508484
1.54561
1.522359
1.6388
1.63055
1.63055
1.575986
1.759179
1.927559
2.003499
2.099501
1.983998
1.860432
1.832493
1.832493
2.007811
1.851994
1.719052
1.601486
1.500983
1.559485
1.563048
1.615174
1.615362
1.615362
1.580673
1.749803
1.919121
2.011561
2.038
2.035562
1.888558
1.798742
1.98231
1.98231
1.832306
1.713802
1.607674
1.497046
1.536797
1.618549
1.607112
1.612549
1.576361
1.576361
1.740053
1.908996
2.006499
2.056563
2.002749
1.977435
1.776804
1.955872
1.854432
1.854432
1.716052
1.611799
1.512609
1.536047
1.603736
1.660176
1.595299
1.550485
1.745491
1.745491
1.901871
1.992623
2.044562
1.963185
1.988686
1.816368
1.914996
1.836244
1.836244
1.704615
1.600736
1.504921
1.525172
1.557235
1.675176
1.626987
1.511296
1.713802
1.713802
1.908808
1.975748
2.058625
1.972373
1.944997
1.88387
1.922871
1.839619
1.701802
1.701802
1.593236
1.503046
1.537922
1.578798
1.662238
1.699927
1.493108
1.689614
1.905433
1.905433
1.96956
2.053188
1.989248
1.934122
1.942747
1.951747
1.708927
1.561548
1.465545
1.465545
1.529484
1.564173
1.624362
1.678926
1.54561
1.770992
1.861557
1.944059
2.028437
2.028437
1.96131
1.958685
1.849556
1.958685
1.930746
1.771742
1.548985
1.462732
1.522734
1.522734
1.562298
1.624175
1.692989
1.555172
1.758616
1.925121
1.910496
2.008561
1.97481
1.97481
1.934497
1.866994
1.952872
1.922496
1.781867
1.598486
1.442107
1.497233
1.497233
1.561735
1.614049
1.709115
1.57261
1.72449
1.946122
1.953622
1.984186
1.947247
1.947247
1.920434
1.836806
1.943872
1.924559
1.752803
1.645925
1.466857
1.48317
1.544297
1.544297
1.63205
1.693177
1.573173
1.724678
1.89662
2.025437
1.983998
1.941247
1.929059
1.929059
1.832681
1.937497
1.946497
1.767241
1.6313
1.520296
1.444169
1.541297
1.614987
1.614987
1.683239
1.564735
1.696927
1.863807
2.008749
2.047188
1.918746
1.926059
1.926059
1.836056
1.931497
1.965247
1.770242
1.626987
1.550485
1.493483
1.517859
1.602799
1.602799
1.677051
1.57336
1.694864
1.874682
1.968623
2.104564
1.936184
1.887058
1.830618
1.830618
1.928496
1.95156
1.788617
1.6448
1.54786
1.529672
1.512609
1.578236
1.693739
1.693739
1.552735
1.684739
1.864369
1.966747
2.075126
2.017936
1.884058
1.817305
1.922309
1.922309
1.937122
1.79218
1.628112
1.545047
1.525734
1.56211
1.56736
1.675551
1.675551
1.557985
1.678551
1.858932
1.964122
2.040437
2.053563
1.946872
1.805492
1.901871
1.901871
1.942184
1.768554
1.641988
1.56136
1.488608
1.594549
1.569048
1.659613
1.55386
1.55386
1.676676
1.839431
1.947434
2.041562
1.994873
2.010249
1.795555
1.87637
1.931871
1.931871
1.771367
1.643863
1.57186
1.477733
1.573735
1.6343
1.635237
1.539797
1.663738
1.663738
1.845994
1.95681
2.042312
1.996936
1.992436
1.909558
1.836056
1.927184
1.767617
1.767617
1.631487
1.567735
1.477545
1.56811
1.628112
1.685864
1.514109
1.645738
1.645738
1.836431
1.930746
2.059188
2.000686
1.952684
1.927934
1.882557
1.915746
1.753928
1.753928
1.632425
1.567548
1.480545
1.558923
1.596049
1.733303
1.545797
1.610299
1.820306
1.820306
1.948747
2.036312
2.004999
1.960372
1.896245
1.943872
1.922496
1.751678
1.634487
1.634487
1.563985
1.48092
1.571486
1.599799
1.72374
1.615737
1.594174
1.793117
1.945184
1.945184
2.049813
2.012499
1.975185
1.891745
1.915746
2.011186
1.725615
1.615362
1.55986
1.55986
1.481295
1.56136
1.593049
1.708177
1.634487
1.635612
1.760116
1.925309
1.925309
2.055813
1.98231
1.957935
1.90112
1.859869
2.071001
1.758616
1.599424
1.554047
1.554047
1.472107
1.553672
1.594736
1.694114
1.614424
1.661488
1.771554
1.891183
2.025249
2.025249
1.977998
1.95306
1.894558
1.861369
2.001061
1.839806
1.592486
1.543735
1.471545
1.471545
1.542422
1.574861
1.701239
1.608799
1.6403
1.844681
1.878057
2.004999
1.983998
1.983998
1.943497
1.902058
1.841119
1.993561
1.831556
1.666926
1.510546
1.447732
1.447732
1.544485
1.578798
1.683801
1.630362
1.631112
1.828556
1.915746
1.969373
1.982498
1.982498
1.937497
1.89212
1.844306
1.999186
1.810555
1.685489
1.530609
1.431794
1.537172
1.537172
1.595674
1.684364
1.641425
1.62155
1.792742
1.993373
1.968623
1.962247
1.942184
1.942184
1.89212
1.835494
2.002749
1.808305
1.687364
1.578048
1.431044
1.518046
1.560798
1.560798
1.671614
1.6418
1.609549
1.770992
1.96731
2.025249
1.954935
1.925121
1.925121
1.895495
1.828743
1.992998
1.826493
1.678551
1.598486
1.463295
1.48992
1.554235
1.554235
1.680614
1.633925
1.593799
1.761241
1.927559
2.080001
1.96731
1.906746
1.894745
1.894745
1.821618
1.995061
1.826306
1.683801
1.603362
1.495171
1.486358
1.542235
1.667488
1.667488
1.620799
1.572798
1.752616
1.923809
2.019062
2.080564
1.894745
1.88162
1.818243
1.818243
1.96581
1.833806
1.706115
1.591361
1.498733
1.528922
1.498921
1.6403
1.6403
1.625675
1.576361
1.758991
1.903371
1.96431
2.087126
1.932246
1.859307
1.819368
1.819368
1.988311
1.825368
1.700114
1.589111
1.499108
1.554985
1.527234
1.598674
1.608424
1.608424
1.564548
1.734428
1.924371
1.98231
2.033312
2.004811
1.844681
1.774742
1.961872
1.961872
1.822181
1.682114
1.584798
1.498171
1.534734
1.578986
1.602799
1.607862
1.553485
1.553485
1.731803
1.909558
1.980998
2.049438
1.98006
1.920996
1.755616
1.945372
1.830431
1.830431
1.709865
1.600361
1.475295
1.499296
1.577861
1.623425
1.602049
1.54711
1.54711
1.723553
1.887245
1.972748
2.050188
1.953997
1.989811
1.792367
1.911996
1.822931
1.822931
1.683426
1.586861
1.520109
1.506421
1.547485
1.673676
1.602237
1.516546
1.740616
1.740616
1.903183
1.954185
2.04475
1.95831
1.947059
1.911433
1.903933
1.81168
1.695052
1.695052
1.597549
1.507359
1.552547
1.583861
1.6478
1.699552
1.509421
1.709302
1.920621
1.920621
1.95981
2.048875
1.970123
1.935059
1.893058
1.990186
1.832118
1.698989
1.698989
1.590424
1.503983
1.554047
1.589298
1.655301
1.719802
1.526672
1.694489
1.89287
1.89287
1.994686
2.068001
1.989623
1.941809
1.865119
2.038187
1.851619
1.721115
1.616862
1.616862
1.48542
1.530797
1.581611
1.65005
1.738178
1.593799
1.672551
1.87037
1.98081
1.98081
2.050562
1.989436
1.976685
1.845619
1.982686
1.953997
1.683614
1.598674
1.505296
1.505296
1.527609
1.574486
1.651738
1.694677
1.596424
1.755054
1.842806
1.948747
1.948747
2.052438
1.979123
1.964497
1.86737
1.96056
1.96131
1.72824
1.576361
1.497983
1.497983
1.522734
1.573735
1.610862
1.702927
1.55986
1.763116
1.858932
1.939934
2.044937
2.044937
1.956435
1.960185
1.876182
1.946872
1.950435
1.79518
1.552172
1.48842
1.524796
1.524796
1.57111
1.643488
1.703864
1.548047
1.755054
1.944434
1.923809
2.034062
1.975748
1.975748
1.943872
1.887245
1.935434
1.951184
1.818993
1.638988
1.471545
1.48392
1.48392
1.573548
1.613487
1.734053
1.608612
1.701802
1.921746
1.962997
2.013061
1.976123
1.976123
1.960747
1.862682
1.925684
1.957747
1.768929
1.669926
1.503046
1.468357
1.545235
1.545235
1.624925
1.722803
1.579173
1.70349
1.88687
2.005186
1.991873
1.96281
1.95381
1.95381
1.86887
1.941997
1.968998
1.780742
1.656051
1.560423
1.445482
1.540172
1.608424
1.608424
1.699177
1.596611
1.696927
1.859307
2.031062
2.068001
1.917058
1.951747
1.951747
1.866619
1.940122
2.017187
1.789742
1.624362
1.572423
1.485233
1.523859
1.611987
1.611987
1.698614
1.568673
1.669926
1.858557
1.97256
2.138128
1.974623
1.908246
1.853869
1.853869
1.932997
1.977248
1.801555
1.678364
1.55461
1.494608
1.511671
1.567735
1.718302
1.718302
1.576548
1.646675
1.833618
1.96056
2.066125
2.056188
1.926434
1.840931
1.883682
1.883682
1.971248
1.789929
1.665238
1.573923
1.502483
1.55161
1.541484
1.679114
1.569048
1.569048
1.676864
1.859494
1.945934
2.035937
2.060688
1.957935
1.825556
1.89212
1.89212
1.971623
1.762741
1.512984
1.38098
1.581986
1.599799
1.73199
1.584986
1.619862
1.832681
1.832681
1.96056
2.039312
2.000874
1.97106
1.89587
1.956622
1.97106
1.743241
1.6298
1.6298
1.563985
1.464982
1.577486
1.610862
1.713427
1.610487
1.603549
1.80793
1.954372
1.954372
2.060688
2.028437
1.960372
1.897558
1.905808
2.054313
1.731803
1.62755
1.550485
1.550485
1.467982
1.57186
1.600736
1.71174
1.6313
1.647238
1.738928
1.922309
2.069501
2.069501
1.997873
1.990373
1.901683
1.863244
2.056563
1.79518
1.600924
1.576173
1.576173
1.475108
1.55461
1.589861
1.705364
1.620049
1.690739
1.802493
1.900371
2.028624
2.028624
2.002561
1.964685
1.926996
1.88462
1.994498
1.832118
1.616112
1.538297
1.489733
1.489733
1.579173
1.569423
1.683051
1.615174
1.648738
1.846181
1.899245
2.012686
1.974998
1.974998
1.95681
1.908621
1.860807
2.014936
1.828931
1.667488
1.514109
1.448857
1.545422
1.545422
1.601299
1.702927
1.625862
1.62155
1.842431
1.954747
1.995436
1.984373
1.984373
1.960372
1.895495
1.863057
2.010436
1.819555
1.712865
1.558735
1.431981
1.540735
1.540735
1.589486
1.696364
1.659801
1.614237
1.781867
2.014749
1.981935
1.990561
1.981561
1.981561
1.909183
1.843181
2.016812
1.834181
1.707052
1.639738
1.445294
1.499671
1.55836
1.55836
1.689801
1.637862
1.632425
1.81243
1.95531
2.058813
1.978935
1.935059
1.919871
1.919871
1.857057
2.000124
1.822931
1.691302
1.612174
1.503421
1.502296
1.545985
1.545985
1.675551
1.642363
1.615549
1.773992
1.95381
2.072126
2.019812
1.908058
1.888933
1.888933
1.834556
2.010811
1.842994
1.703115
1.586673
1.505483
1.520671
1.538672
1.672176
1.672176
1.616112
1.578048
1.766679
1.943309
2.022062
2.116002
1.924371
1.869619
1.841869
1.841869
2.014374
1.863807
1.725428
1.597361
1.48242
1.568673
1.524234
1.63955
1.6418
1.6418
1.590611
1.750178
1.938622
2.007811
2.091626
2.038
1.874495
1.81543
1.990186
1.990186
1.856869
1.734241
1.615174
1.513546
1.555735
1.572986
1.613299
1.63055
1.63055
1.609362
1.756366
1.939747
1.993186
2.051125
2.04475
1.943122
1.80643
1.984186
1.984186
1.826493
1.715115
1.622862
1.508109
1.545797
1.605799
1.604674
1.604299
1.579548
1.579548
1.754116
1.930746
2.000311
2.041937
1.978935
1.995436
1.787304
1.949685
1.850307
1.850307
1.693927
1.598111
1.506046
1.543547
1.599236
1.685489
1.595861
1.531172
1.745491
1.745491
1.910121
2.003874
2.089189
1.979873
1.95531
1.862869
1.924934
1.854432
1.854432
1.72449
1.603362
1.504358
1.54261
1.576923
1.700302
1.677426
1.515234
1.701614
1.701614
1.918746
1.982498
2.068751
1.995436
1.960747
1.88687
1.941622
1.848056
1.709302
1.709302
1.600174
1.495733
1.542797
1.577861
1.65005
1.713615
1.510546
1.698989
1.89737
1.89737
1.968998
2.04475
1.998999
1.948559
1.867182
2.029937
1.81543
1.689614
1.594361
1.594361
1.487108
1.537547
1.578986
1.639738
1.713427
1.569235
1.682864
1.89062
1.986436
1.986436
2.039125
1.991686
1.954372
1.852931
2.013624
1.88762
1.678176
1.594736
1.594736
1.474732
1.527797
1.565298
1.637675
1.691489
1.573548
1.714927
1.850307
1.972935
1.972935
2.033124
1.975748
1.95906
1.844494
1.950997
1.975185
1.695052
1.572986
1.48917
1.48917
1.524609
1.575986
1.62605
1.699364
1.566985
1.764054
1.841494
1.948747
2.044562
2.044562
1.969373
1.963747
1.858557
1.945184
1.96131
1.779429
1.552172
1.473607
1.519734
1.519734
1.55686
1.611799
1.700864
1.55536
1.747741
1.909371
1.911808
2.010624
2.010624
1.979123
1.947059
1.856307
1.938059
1.932621
1.811118
1.584048
1.471545
1.495358
1.495358
1.55911
1.604299
1.702177
1.560985
1.723178
1.938059
1.942372
2.001061
1.974435
1.974435
1.944997
1.852182
1.943684
1.957935
1.776617
1.659238
1.460107
1.477545
1.553297
1.553297
1.611424
1.705927
1.571486
1.702177
1.906933
1.998623
1.985686
1.960747
1.941247
1.941247
1.856307
1.930184
1.958497
1.765366
1.646488
1.535672
1.435544
1.536984
1.536984
1.615737
1.70499
1.574673
1.688489
1.863244
2.018874
2.033687
1.938809
1.933934
1.933934
1.846181
1.907121
1.96206
1.773992
1.626425
1.564173
1.457857
1.502296
1.590236
1.590236
1.693177
1.572048
1.676676
1.843744
1.933184
2.095939
1.917808
1.908996
1.845806
1.845806
1.913308
1.959622
1.759366
1.64105
1.570923
1.503796
1.511484
1.547485
1.674801
1.674801
1.57036
1.675926
1.850681
1.97106
2.081313
2.003311
1.902058
1.846931
1.929809
1.929809
1.986436
1.78693
1.631112
1.554047
1.516546
1.550485
1.582361
1.672551
1.672551
1.552922
1.64705
1.845806
1.974248
2.055063
2.0545
1.914058
1.809993
1.896058
1.896058
1.947059
1.783554
1.664113
1.563048
1.482983
1.585736
1.54561
1.662426
1.553297
1.553297
1.663551
1.817868
1.969935
2.043812
2.020749
2.019812
1.807743
1.859869
1.965998
1.965998
1.775867
1.659426
1.563423
1.47417
1.567735
1.595674
1.63505
1.563985
1.563985
1.662051
1.822368
1.976873
2.047937
1.994873
2.014561
1.876557
1.827056
1.954185
1.954185
1.771742
1.635237
1.581986
1.457669
1.542422
1.598486
1.662613
1.532484
1.624737
1.624737
1.819368
1.943497
2.047188
1.996748
1.966185
1.940309
1.835118
1.948184
1.785992
1.785992
1.639363
1.575798
1.480545
1.565485
1.611424
1.727303
1.521796
1.619299
1.815618
1.815618
1.940684
2.051312
2.016249
1.96056
1.931497
1.904496
1.944059
1.767429
1.646675
1.646675
1.579736
1.480733
1.570923
1.598111
1.73724
1.598111
1.594549
1.795555
1.795555
1.947247
2.034437
2.021687
1.97856
1.904496
1.918371
1.963935
1.759179
1.644425
1.644425
1.565673
1.477545
1.557985
1.592861
1.696364
1.637862
1.591736
1.773804
1.929996
1.929996
2.039125
2.030874
1.966935
1.918371
1.884807
2.063688
1.745303
1.635425
1.57111
1.57111
1.47792
1.560985
1.586111
1.690177
1.633175
1.673301
1.728428
1.913308
2.039125
2.039125
2.013811
1.969935
1.912183
1.848431
2.053938
1.828556
1.600924
1.566798
1.566798
1.470982
1.563235
1.574861
1.690552
1.620049
1.64855
1.772679
1.902996
2.022062
2.022062
2.008374
1.96506
1.930934
1.851244
2.008936
1.865119
1.63205
1.542422
1.47117
1.47117
1.545422
1.562673
1.693927
1.625675
1.616112
1.818056
1.866807
1.981373
2.005749
2.005749
1.959997
1.922684
1.855557
2.001624
1.854244
1.709865
1.528922
1.451294
1.54261
1.54261
1.579548
1.685864
1.64105
1.606737
1.808493
1.948184
1.954185
1.993373
1.993373
1.956435
1.909371
1.860619
1.994123
1.832681
1.719802
1.573173
1.436106
1.526297
1.526297
1.559298
1.655301
1.660176
1.588736
1.768366
1.995998
1.957185
1.986623
1.958872
1.958872
1.918559
1.846556
2.002936
1.856119
1.702177
1.6223
1.424293
1.508484
1.554422
1.554422
1.667676
1.676676
1.584236
1.762366
1.961122
2.036125
1.983998
1.933934
1.913871
1.913871
1.830806
1.988311
1.860994
1.707427
1.620799
1.485983
1.476608
1.575798
1.635425
1.635425
1.585736
1.743428
1.929246
2.005186
2.061063
2.028437
1.878995
1.79893
1.996561
1.996561
1.836619
1.722428
1.611237
1.503421
1.54786
1.604299
1.606174
1.623612
1.570735
1.570735
1.752803
1.929809
2.001811
2.05375
2.002561
1.980248
1.764241
1.95906
1.839056
1.839056
1.71549
1.617424
1.500046
1.546922
1.599611
1.656426
1.599424
1.551797
1.551797
1.741366
1.910683
1.989436
2.050188
1.959622
1.988873
1.80418
1.923809
1.842619
1.842619
1.695427
1.602424
1.514296
1.520671
1.558548
1.675739
1.603174
1.519734
1.717177
1.717177
1.898495
1.980623
2.053375
1.98081
1.948184
1.881057
1.914808
1.828743
1.711552
1.711552
1.605424
1.510734
1.53961
1.577486
1.64855
1.704427
1.498171
1.694302
1.910683
1.910683
1.976873
2.065001
1.97856
1.944247
1.881995
1.979685
1.825368
1.708927
1.708927
1.604299
1.490108
1.525734
1.561173
1.638425
1.723178
1.539797
1.679489
1.87562
1.87562
1.966935
2.038187
1.976123
1.948559
1.841306
2.028999
1.854807
1.684551
1.589298
1.589298
1.488608
1.511859
1.577486
1.628487
1.686427
1.577298
1.670301
1.853682
1.959997
1.959997
2.032375
1.972748
1.950435
1.847869
1.971435
1.97631
1.663363
1.588361
1.476795
1.476795
1.521046
1.577673
1.634487
1.695614
1.572423
1.753179
1.823493
1.954935
2.04175
2.04175
1.974623
1.945559
1.856307
1.945934
1.947809
1.761054
1.544485
1.483545
1.483545
1.517296
1.560235
1.617424
1.705927
1.564735
1.757866
1.866619
1.914246
2.024874
2.024874
1.976498
1.943684
1.867932
1.941809
1.929809
1.79968
1.591361
1.473045
1.498546
1.498546
1.563798
1.611049
1.711365
1.560985
1.713052
1.934872
1.915371
2.002561
1.956622
1.956622
1.947247
1.861369
1.936747
1.939184
1.782804
1.648363
1.453732
1.47417
1.55911
1.55911
1.606549
1.698614
1.56886
1.698239
1.899995
1.996373
1.991311
1.957185
1.941622
1.941622
1.851994
1.928684
1.956997
1.765929
1.658301
1.526484
1.440981
1.540547
1.540547
1.615924
1.703677
1.582923
1.673676
1.855369
2.021124
2.012124
1.928684
1.928871
1.928871
1.837368
1.900745
1.961685
1.772867
1.610674
1.545235
1.440231
1.506984
1.588173
1.588173
1.695427
1.565298
1.669738
1.841306
1.958685
2.097814
1.926621
1.917808
1.829868
1.829868
1.909933
1.97481
1.779429
1.637862
1.557047
1.501733
1.502108
1.566423
1.693552
1.693552
1.568298
1.668051
1.851057
1.938809
2.092752
2.019062
1.883307
1.835868
1.835868
1.911058
1.966373
1.796867
1.634112
1.554985
1.494421
1.53811
1.537359
1.682864
1.682864
1.547485
1.642175
1.838306
1.945747
2.032375
2.058813
1.906933
1.818431
1.892308
1.892308
1.943309
1.783367
1.648363
1.55761
1.475483
1.556298
1.532672
1.644238
1.558735
1.558735
1.663738
1.820306
1.949497
2.033687
2.019062
2.014749
1.809618
1.864369
1.967123
1.967123
1.765741
1.647613
1.569798
1.468357
1.572986
1.594736
1.630737
1.543172
1.655113
1.655113
1.814868
1.947809
2.034062
1.994123
2.001436
1.865682
1.830993
1.947997
1.947997
1.772304
1.650425
1.570735
1.470795
1.550297
1.615362
1.6508
1.535297
1.627737
1.627737
1.821993
1.934309
2.031437
1.998249
1.95831
1.949685
1.819368
1.933746
1.774742
1.774742
1.6283
1.558923
1.46367
1.538297
1.589674
1.716615
1.522734
1.605799
1.789929
1.789929
1.917246
2.036875
1.986061
1.947809
1.911433
1.89437
1.919684
1.740428
1.620987
1.620987
1.554798
1.455044
1.54561
1.575798
1.717927
1.574861
1.563235
1.776992
1.776992
1.925871
2.019249
2.001998
1.947434
1.879932
1.886495
1.954372
1.727303
1.616299
1.616299
1.542797
1.449794
1.54636
1.56286
1.685114
1.607299
1.566985
1.743616
1.909746
1.909746
2.007999
1.986248
1.938809
1.888933
1.851244
2.05
1.726178
1.596424
1.548985
1.548985
1.456732
1.537359
1.585173
1.676114
1.614237
1.629237
1.722428
1.889683
2.013061
2.013061
1.985311
1.947809
1.896433
1.836244
2.035
1.793305
1.589111
1.542985
1.542985
1.444732
1.532859
1.57261
1.659801
1.604111
1.615737
1.748678
1.86737
1.985686
1.985686
1.980623
1.940309
1.89512
1.827431
1.974435
1.838306
1.599049
1.518796
1.421293
1.421293
1.513171
1.535109
1.656238
1.603362
1.602611
1.791055
1.833431
1.953622
1.984748
1.984748
1.939747
1.900933
1.830993
1.979123
1.840369
1.679489
1.509233
1.424481
1.519921
1.519921
1.55611
1.664301
1.631675
1.586111
1.782429
1.922871
1.939184
1.980435
1.980435
1.929434
1.885182
1.823868
1.987373
1.808118
1.698052
1.548797
1.401605
1.502108
1.502108
1.534547
1.628487
1.616862
1.56136
1.744553
1.957747
1.942559
1.952684
1.925309
1.925309
1.882933
1.80193
1.960747
1.827993
1.666738
1.581611
1.402543
1.487108
1.535297
1.535297
1.631112
1.615362
1.540922
1.732553
1.924371
2.015874
1.946309
1.89812
1.884807
1.884807
1.79668
1.975373
1.838494
1.670864
1.582923
1.447357
1.449607
1.511671
1.511671
1.606174
1.607862
1.539047
1.71624
1.889495
2.019249
2.009124
1.883307
1.865119
1.865119
1.790867
1.953435
1.830806
1.697864
1.578423
1.470795
1.471545
1.493858
1.612737
1.612737
1.617424
1.536422
1.717927
1.891183
1.961685
2.105877
1.887058
1.867745
1.797617
1.797617
1.96281
1.842806
1.71699
1.576736
1.470607
1.526672
1.47792
1.590049
1.623987
1.623987
1.533047
1.711365
1.884245
1.952684
2.077188
1.977435
1.852556
1.784305
1.968248
1.968248
1.851057
1.730115
1.588548
1.488045
1.532672
1.518984
1.578611
1.622112
1.622112
1.544672
1.702739
1.888558
1.958497
2.023374
1.998436
1.870557
1.749803
1.921184
1.921184
1.831743
1.711552
1.601674
1.481483
1.501921
1.559673
1.564548
1.603174
1.523109
1.523109
1.699552
1.857432
1.958122
2.039125
1.967685
1.966747
1.736303
1.912933
1.831368
1.831368
1.699552
1.578611
1.485233
1.493483
1.55161
1.628112
1.586298
1.501546
1.697677
1.697677
1.858557
1.943497
2.03425
1.940684
1.967123
1.812055
1.861182
1.840931
1.840931
1.687551
1.574673
1.506984
1.490858
1.543922
1.64255
1.63355
1.478858
1.674051
1.674051
1.864557
1.928121
2.022249
1.946309
1.925871
1.856869
1.882745
1.809805
1.697489
1.697489
1.582923
1.48617
1.501733
1.539797
1.607674
1.685301
1.464045
1.649113
1.870745
1.870745
1.938434
2.018499
1.962247
1.927371
1.849744
1.966373
1.820681
1.681364
1.580111
1.580111
1.494046
1.494046
1.543547
1.612174
1.699364
1.522547
1.62755
1.848056
1.848056
1.942559
2.019249
1.96431
1.932059
1.830056
1.972935
1.887995
1.659988
1.573548
1.573548
1.487858
1.475295
1.533047
1.583861
1.669926
1.548422
1.629612
1.799867
1.928121
1.928121
2.014561
1.967873
1.939934
1.826493
1.914058
1.959435
1.669363
1.559298
1.484483
1.484483
1.469295
1.525172
1.576548
1.670864
1.54711
1.692614
1.781867
1.897745
2.012124
2.012124
1.942372
1.938059
1.840931
1.887433
1.957372
1.763679
1.539422
1.48917
1.48917
1.478483
1.542047
1.569235
1.684739
1.545422
1.769116
1.974248
2.038187
1.910871
1.899995
1.899995
1.820493
1.872057
1.930746
1.749241
1.601674
1.528922
1.445669
1.479045
1.56211
1.56211
1.680614
1.543172
1.646113
1.825181
1.934309
2.080001
1.935434
1.88537
1.814118
1.814118
1.885558
1.942184
1.768179
1.615174
1.524609
1.461045
1.48467
1.524796
1.657363
1.657363
1.538484
1.613674
1.830806
1.925309
2.040437
2.023374
1.860057
1.802493
1.884245
1.884245
1.940497
1.776804
1.623425
1.533797
1.449232
1.540922
1.510921
1.639175
1.537172
1.537172
1.63055
1.810368
1.918746
2.009499
2.018124
1.955122
1.784117
1.849931
1.849931
1.939747
1.756929
1.6253
1.54486
1.453732
1.54336
1.545235
1.620799
1.532484
1.532484
1.62305
1.784117
1.947059
2.015874
1.970123
1.998999
1.809243
1.825931
1.947434
1.947434
1.758991
1.625675
1.551797
1.448294
1.538672
1.586298
1.616299
1.518609
1.623237
1.623237
1.794055
1.915558
2.021499
1.969935
1.959622
1.894183
1.793492
1.923996
1.758429
1.758429
1.606549
1.560048
1.445107
1.518984
1.557235
1.669926
1.491045
1.588361
1.588361
1.79893
1.910871
2.025624
1.970873
1.929996
1.906183
1.812618
1.901308
1.734428
1.734428
1.609737
1.55086
1.446607
1.525172
1.545047
1.696552
1.520484
1.566423
1.766866
1.766866
1.899808
1.996748
1.973498
1.932809
1.870557
1.873745
1.905996
1.716802
1.604486
1.604486
1.528734
1.433481
1.514671
1.546922
1.670301
1.586111
1.550485
1.737615
1.904308
1.904308
1.987936
1.98231
1.937497
1.875245
1.855557
1.984373
1.70499
1.606924
1.606924
1.535297
1.436106
1.517296
1.55086
1.661301
1.607674
1.573548
1.704239
1.892308
1.892308
1.995436
1.971435
1.938059
1.88537
1.812993
2.041
1.752428
1.593049
1.527234
1.527234
1.433669
1.502671
1.545235
1.661113
1.593049
1.623425
1.705177
1.865494
1.991311
1.991311
1.967498
1.941809
1.881807
1.819743
2.003311
1.824806
1.579361
1.522359
1.434606
1.434606
1.512234
1.54336
1.657926
1.603174
1.600736
1.775867
1.851994
1.962435
1.975373
1.975373
1.926246
1.882183
1.811118
1.955122
1.816743
1.634675
1.508484
1.432356
1.432356
1.513171
1.536234
1.652675
1.604299
1.571486
1.775117
1.871682
1.922121
1.964685
1.964685
1.916683
1.87487
1.804743
1.947059
1.797055
1.660363
1.501358
1.395418
1.504358
1.504358
1.539422
1.619862
1.621174
1.567548
1.734053
1.95681
1.912746
1.954935
1.911246
1.911246
1.870182
1.801555
1.958122
1.80868
1.679489
1.565485
1.384167
1.47867
1.534359
1.534359
1.624925
1.615737
1.562298
1.73274
1.943872
1.971248
1.945184
1.907496
1.907496
1.863619
1.783367
1.960935
1.817305
1.675551
1.584611
1.424668
1.464607
1.534922
1.534922
1.628112
1.619487
1.554047
1.730303
1.88987
2.023187
1.966373
1.875807
1.881807
1.881807
1.787492
1.947434
1.837556
1.682301
1.584986
1.478108
1.455794
1.512609
1.620237
1.620237
1.625675
1.547297
1.717177
1.885932
1.991123
2.049625
1.871682
1.859869
1.791055
1.791055
1.941809
1.844119
1.679301
1.57186
1.460857
1.489545
1.486733
1.607299
1.607299
1.616862
1.522734
1.71999
1.885558
1.941247
2.090126
1.910308
1.842994
1.767617
1.767617
1.951372
1.845244
1.708927
1.566798
1.466857
1.512609
1.495358
1.576923
1.6238
1.6238
1.533797
1.689427
1.872995
1.946684
2.042687
2.004436
1.837744
1.758429
1.939747
1.939747
1.836619
1.709677
1.588923
1.476233
1.503233
1.551797
1.557047
1.610862
1.532109
1.532109
1.697114
1.862307
1.948372
2.030124
1.975748
1.945747
1.73649
1.907871
1.81918
1.81918
1.694302
1.582173
1.47567
1.48767
1.54486
1.590236
1.582173
1.494421
1.494421
1.691114
1.853494
1.95306
2.026749
1.942559
1.96506
1.767804
1.882557
1.839994
1.839994
1.692427
1.591549
1.502671
1.500983
1.549922
1.635237
1.611424
1.491421
1.695052
1.695052
1.863244
1.948934
2.03575
1.944997
1.929434
1.846369
1.862494
1.826118
1.697489
1.697489
1.573173
1.489545
1.483358
1.545047
1.625675
1.656238
1.469857
1.644238
1.856119
1.856119
1.927184
2.019437
1.947059
1.907308
1.841306
1.924746
1.804555
1.678926
1.678926
1.564548
1.483545
1.493858
1.539047
1.594736
1.693364
1.487108
1.6223
1.820868
1.820868
1.921184
2.002374
1.960747
1.901683
1.802118
1.949872
1.820681
1.672551
1.56286
1.56286
1.483545
1.476233
1.533609
1.56886
1.669176
1.533234
1.597924
1.810555
1.925496
1.925496
2.008186
1.946309
1.908246
1.823118
1.924934
1.930371
1.645925
1.54786
1.48242
1.48242
1.469482
1.539235
1.589111
1.660926
1.538297
1.673489
1.776992
1.905433
1.905433
1.991873
1.936559
1.912558
1.823493
1.891183
1.959997
1.703677
1.533422
1.465732
1.465732
1.467795
1.528734
1.577486
1.663551
1.545797
1.695052
1.79893
1.876745
2.005936
2.005936
1.938434
1.916308
1.832118
1.873557
1.927371
1.770804
1.535672
1.462732
1.458795
1.458795
1.520484
1.563423
1.669738
1.537547
1.666926
1.857994
1.861182
1.977248
1.939184
1.939184
1.899433
1.834931
1.856494
1.904121
1.754679
1.607112
1.454107
1.435731
1.435731
1.526297
1.554235
1.661113
1.551985
1.6343
1.852931
1.909933
1.964685
1.924934
1.924934
1.903371
1.81543
1.854057
1.938059
1.726928
1.616862
1.467607
1.414731
1.518796
1.518796
1.557423
1.662051
1.557235
1.631112
1.801555
1.981561
1.96731
1.914433
1.891558
1.891558
1.811493
1.841869
1.952872
1.750741
1.62605
1.530984
1.384917
1.497796
1.558548
1.558548
1.671426
1.591736
1.615362
1.783742
1.948934
2.046625
1.88612
1.87787
1.87787
1.820306
1.827618
1.947059
1.761241
1.613112
1.54711
1.434231
1.462545
1.54411
1.54411
1.674614
1.577486
1.624549
1.78693
1.906371
2.070438
1.928871
1.870557
1.835868
1.835868
1.837931
1.919871
1.761991
1.613862
1.537172
1.46592
1.508109
1.508859
1.658488
1.658488
1.560235
1.607674
1.809993
1.921746
2.019624
2.009686
1.861932
1.80568
1.834181
1.834181
1.968623
1.762554
1.618362
1.532859
1.444357
1.525734
1.508671
1.639925
1.533797
1.533797
1.590799
1.745303
1.917058
2.010811
2.008561
1.921184
1.775679
1.80118
1.80118
1.946684
1.753179
1.6463
1.540922
1.443982
1.547672
1.532859
1.612549
1.55311
1.55311
1.591174
1.742303
1.908433
1.990186
1.971998
1.979685
1.79293
1.760679
1.945184
1.945184
1.745491
1.6343
1.562485
1.451107
1.49292
1.560798
1.599049
1.516734
1.586673
1.586673
1.745866
1.88762
1.978935
1.966185
1.928309
1.906933
1.761804
1.901495
1.735365
1.735365
1.631675
1.560235
1.452044
1.541297
1.561173
1.653238
1.498921
1.553485
1.553485
1.749053
1.893808
1.984748
1.948184
1.920246
1.912746
1.790867
1.922871
1.744928
1.744928
1.583673
1.546735
1.439669
1.506421
1.54336
1.670488
1.512234
1.527234
1.723178
1.723178
1.89362
1.960185
2.004624
1.89662
1.847306
1.839431
1.903558
1.735365
1.613112
1.613112
1.525547
1.424481
1.508671
1.535109
1.64405
1.607487
1.492358
1.675364
1.872995
1.872995
2.074563
1.824056
1.844869
1.770992
1.947434
1.822556
1.632425
1.485045
1.414731
1.414731
1.46892
1.508484
1.6238
1.596799
1.566798
1.772679
1.837744
1.899995
1.955685
1.955685
1.910496
1.888745
1.805492
1.944247
1.788805
1.676864
1.494046
1.390355
1.502671
1.502671
1.511859
1.574111
1.602611
1.554235
1.731428
1.960747
1.89737
1.89362
1.899995
1.899995
1.858182
1.78768
1.95906
1.79293
1.624737
1.543735
1.38023
1.475857
1.534547
1.534547
1.587799
1.585736
1.523859
1.71024
1.917246
1.967685
1.943684
1.870932
1.870932
1.845244
1.776992
1.946497
1.833618
1.663363
1.557235
1.388292
1.435356
1.502108
1.502108
1.618362
1.643863
1.531922
1.670676
1.86887
2.011186
1.948184
1.88762
1.864744
1.864744
1.760116
1.922684
1.822368
1.662426
1.567735
1.450357
1.424481
1.492171
1.599049
1.599049
1.608424
1.517671
1.702927
1.853119
1.958122
2.0515
1.849556
1.854432
1.78918
1.78918
1.934309
1.830806
1.683614
1.56211
1.461045
1.491045
1.464795
1.582173
1.582173
1.594736
1.500983
1.697677
1.873557
1.933371
2.076438
1.918746
1.840744
1.766491
1.766491
1.940309
1.827993
1.686614
1.561923
1.451857
1.496858
1.480545
1.549172
1.603924
1.603924
1.506234
1.683989
1.856494
1.934684
2.031062
1.984936
1.843369
1.752053
1.936372
1.936372
1.827243
1.705177
1.580486
1.472107
1.496483
1.54336
1.55386
1.603924
1.533609
1.533609
1.675739
1.859119
1.952122
2.034625
1.981185
1.945372
1.748678
1.923059
1.923059
1.841119
1.711177
1.594174
1.481858
1.487858
1.55761
1.592299
1.605799
1.512796
1.512796
1.694114
1.849369
1.955497
2.023562
1.942184
1.97481
1.773429
1.887808
1.847869
1.847869
1.700677
1.563048
1.496108
1.497983
1.543172
1.633925
1.596986
1.486733
1.682676
1.682676
1.866619
1.933371
2.028062
1.950247
1.940309
1.857432
1.860432
1.820118
1.697302
1.697302
1.576548
1.497233
1.494608
1.535484
1.608049
1.673489
1.472295
1.644238
1.644238
1.850119
1.929621
2.015687
1.958872
1.908058
1.835681
1.913496
1.803805
1.692989
1.692989
1.580298
1.487858
1.496671
1.526297
1.581986
1.683989
1.494796
1.616862
1.836806
1.836806
1.928496
2.002749
1.961685
1.904871
1.814493
1.960747
1.821431
1.666363
1.568673
1.568673
1.496671
1.476608
1.532297
1.577111
1.678364
1.537922
1.610112
1.801742
1.915746
1.915746
2.015874
1.952497
1.908621
1.812055
1.929246
1.917434
1.669738
1.554798
1.501921
1.501921
1.462732
1.532672
1.554047
1.659801
1.554798
1.649863
1.782242
1.923059
1.923059
1.998999
1.935997
1.931121
1.835306
1.882745
1.98006
1.694489
1.536234
1.485983
1.485983
1.464607
1.535297
1.590986
1.667301
1.524796
1.670676
1.777929
1.872432
2.010999
2.010999
1.924746
1.87937
1.836994
1.874495
1.937497
1.799492
1.531734
1.446044
1.46892
1.46892
1.531922
1.577861
1.667676
1.54786
1.626987
1.837931
1.848994
1.972748
1.929434
1.929434
1.904683
1.830993
1.839806
1.924371
1.778304
1.6238
1.459732
1.436106
1.436106
1.522547
1.561548
1.674614
1.575423
1.635987
1.87637
1.898683
1.968435
1.925684
1.925684
1.915558
1.841681
1.854057
1.921184
1.743616
1.628675
1.465732
1.413606
1.521796
1.521796
1.540547
1.658488
1.569048
1.615737
1.80493
1.975373
1.938622
1.895495
1.898683
1.898683
1.818993
1.821056
1.949309
1.72524
1.585923
1.537547
1.394855
1.499858
1.561548
1.561548
1.675551
1.560423
1.6253
1.796117
1.956622
2.065001
1.891745
1.876557
1.876557
1.827056
1.823493
1.97406
1.742491
1.62605
1.545422
1.432919
1.481483
1.546172
1.546172
1.674989
1.577673
1.600174
1.781867
1.923059
2.092189
1.929809
1.867932
1.820118
1.820118
1.827431
1.963747
1.770429
1.62755
1.548047
1.46517
1.45992
1.512421
1.65305
1.65305
1.553672
1.615174
1.772304
1.891745
2.025812
2.017749
1.863807
1.829118
1.837744
1.837744
1.940684
1.762179
1.6223
1.536047
1.471545
1.541297
1.489545
1.632237
1.632237
1.563985
1.613112
1.770054
1.921371
1.999749
2.010062
1.908621
1.800617
1.815805
1.815805
1.97256
1.752991
1.63355
1.554422
1.463857
1.532859
1.536984
1.620237
1.543922
1.543922
1.608799
1.757116
1.923621
1.98006
1.98231
1.975748
1.79143
1.783554
1.939559
1.939559
1.748303
1.64705
1.550672
1.453169
1.522734
1.545047
1.605049
1.533047
1.582923
1.582923
1.749616
1.911246
1.984373
1.982686
1.980435
1.893995
1.744178
1.935809
1.759929
1.759929
1.633175
1.56661
1.475483
1.494796
1.557985
1.642925
1.514859
1.575423
1.575423
1.749991
1.877495
1.98006
1.986998
1.927934
1.947247
1.803992
1.904871
1.752803
1.752803
1.627737
1.57036
1.454107
1.53811
1.551422
1.664863
1.530609
1.533422
1.73574
1.73574
1.904308
1.964122
1.975935
1.935059
1.892495
1.857807
1.940497
1.747366
1.616487
1.616487
1.553672
1.457107
1.515234
1.551985
1.662801
1.591549
1.515421
1.70799
1.891933
1.891933
1.962435
2.004061
1.927934
1.890433
1.853869
1.958685
1.741741
1.612737
1.612737
1.538859
1.429356
1.513546
1.535859
1.623612
1.629612
1.526859
1.667863
1.878432
1.878432
1.96731
1.989811
1.95531
1.885182
1.793492
2.018874
1.746053
1.608424
1.55386
1.55386
1.436106
1.483358
1.531547
1.614049
1.617612
1.582548
1.668238
1.843181
1.95081
1.95081
1.974998
1.928309
1.889683
1.812805
1.981561
1.844494
1.600924
1.527984
1.438169
1.438169
1.507921
1.524796
1.607487
1.614612
1.57261
1.724115
1.840181
1.939559
1.939559
1.962435
1.919871
1.911621
1.799117
1.955685
1.859869
1.613674
1.498546
1.426356
1.426356
1.485045
1.533422
1.618549
1.620612
1.527609
1.742491
1.830993
1.908246
1.981373
1.981373
1.907121
1.890995
1.794242
1.940872
1.866619
1.718865
1.504921
1.39373
1.497233
1.497233
1.533422
1.619487
1.665988
1.54186
1.714552
1.918184
1.902058
1.97556
1.943684
1.943684
1.899245
1.779242
1.939559
1.847119
1.709865
1.574673
1.392605
1.46967
1.516359
1.516359
1.599424
1.647425
1.54936
1.719052
1.903371
1.937497
1.945184
1.899808
1.899808
1.893433
1.785242
1.915746
1.847119
1.677051
1.582173
1.415856
1.452794
1.519171
1.519171
1.575236
1.6343
1.531734
1.699552
1.869807
1.995623
1.938809
1.88462
1.88087
1.88087
1.782992
1.923059
1.878245
1.680239
1.568298
1.461045
1.428231
1.508859
1.577861
1.577861
1.624362
1.515796
1.678176
1.866619
1.980435
2.084501
1.864369
1.858744
1.79068
1.79068
1.929809
1.881245
1.716802
1.576361
1.455982
1.478295
1.472857
1.592299
1.592299
1.652863
1.519171
1.662801
1.859869
1.951372
2.099876
1.926246
1.857057
1.764241
1.764241
1.909933
1.873557
1.712865
1.596986
1.46292
1.476795
1.477357
1.543172
1.637675
1.637675
1.529859
1.691302
1.820118
1.935059
2.025624
1.989248
1.858744
1.769491
1.908808
1.908808
1.845619
1.727865
1.580298
1.484108
1.48842
1.540359
1.511109
1.611237
1.516171
1.516171
1.661113
1.848431
1.936559
1.997123
1.998249
1.915934
1.739866
1.838869
1.676114
1.56586
1.56586
1.503046
1.47492
1.550297
1.594924
1.681739
1.505108
1.599611
1.833431
1.833431
1.944434
2.003686
1.96956
1.89737
1.825368
1.968248
1.88462
1.667113
1.55686
1.55686
1.467607
1.466482
1.532859
1.584423
1.673489
1.537359
1.604674
1.789742
1.915558
1.915558
2.005749
1.95981
1.928684
1.811493
1.892495
1.954185
1.662801
1.550485
1.489733
1.489733
1.452419
1.515984
1.566423
1.659238
1.54336
1.676864
1.764991
1.883682
2.014187
2.014187
1.946497
1.926246
1.839431
1.88162
1.936934
1.750366
1.539797
1.48917
1.48917
1.46592
1.515984
1.55986
1.665801
1.543922
1.677989
1.818806
1.859494
1.983811
1.983811
1.926996
1.909933
1.849931
1.884058
1.930934
1.770992
1.54561
1.467795
1.455419
1.455419
1.54561
1.560048
1.673676
1.538297
1.64105
1.862307
1.880307
1.992436
1.931121
1.931121
1.894745
1.833806
1.855744
1.951747
1.770242
1.623425
1.438731
1.420356
1.523296
1.523296
1.551797
1.668426
1.566423
1.604861
1.821431
1.957747
1.966747
1.926809
1.909746
1.909746
1.824431
1.836806
1.952872
1.736115
1.638238
1.509609
1.387917
1.492733
1.492733
1.544297
1.658113
1.564923
1.619674
1.79668
1.951184
1.980998
1.898495
1.908058
1.908058
1.827618
1.822181
1.955872
1.748678
1.610674
1.542797
1.420168
1.491608
1.528922
1.528922
1.643675
1.554235
1.610112
1.803805
1.936559
2.072876
1.888933
1.88612
1.831556
1.831556
1.843931
1.976873
1.761616
1.603174
1.543922
1.454107
1.454857
1.520296
1.649488
1.649488
1.548422
1.599424
1.790117
1.911433
2.054875
1.955497
1.864557
1.820681
1.820681
1.841119
1.955122
1.768554
1.616674
1.532297
1.444919
1.476233
1.503046
1.6418
1.6418
1.54861
1.590424
1.783554
1.904121
2.010062
2.032937
1.873745
1.808868
1.827806
1.827806
1.95081
1.759366
1.65305
1.542797
1.465732
1.525172
1.48842
1.639175
1.559298
1.559298
1.601111
1.762929
1.899621
2.010249
2.003311
1.960185
1.789929
1.80268
1.955872
1.955872
1.766491
1.632237
1.553297
1.447357
1.524421
1.54786
1.595674
1.545422
1.545422
1.602611
1.752616
1.910496
1.993561
1.975935
1.97631
1.831181
1.770992
1.950997
1.950997
1.762741
1.647988
1.555735
1.453544
1.518609
1.553672
1.602049
1.523484
1.580861
1.580861
1.762179
1.903933
1.995623
1.986061
1.932059
1.927746
1.767804
1.936184
1.762929
1.762929
1.629612
1.544297
1.458045
1.515046
1.54636
1.664863
1.511859
1.542422
1.744553
1.744553
1.888933
1.993561
1.983061
1.930184
1.907121
1.804368
1.89812
1.745303
1.745303
1.632425
1.54486
1.468357
1.493483
1.533797
1.653238
1.567173
1.537922
1.728803
1.728803
1.884995
1.940872
2.004249
1.922684
1.859494
1.852931
1.896245
1.720552
1.619112
1.619112
1.528922
1.448669
1.528359
1.537359
1.64855
1.627362
1.512421
1.706115
1.887058
1.887058
1.955872
1.976123
1.931871
1.888558
1.836619
2.04475
1.739116
1.599236
1.539797
1.539797
1.440044
1.488608
1.538859
1.637675
1.581798
1.56361
1.665051
1.869057
1.971998
1.971998
1.999374
1.936184
1.89062
1.808868
2.030874
1.813743
1.596799
1.545422
1.545422
1.431794
1.511296
1.549735
1.632987
1.616862
1.572048
1.71099
1.845056
1.941247
1.941247
1.984186
1.933934
1.893808
1.798367
1.964497
1.87562
1.624737
1.533609
1.444357
1.444357
1.505108
1.54636
1.623987
1.633925
1.57186
1.763866
1.823306
1.941059
1.995998
1.995998
1.932246
1.912371
1.828556
1.947622
1.882183
1.686614
1.510921
1.414918
1.497796
1.497796
1.536234
1.613487
1.64855
1.545422
1.762366
1.878995
1.903558
1.979123
1.979123
1.926996
1.895308
1.822743
1.952122
1.855744
1.713052
1.54186
1.413606
1.494983
1.494983
1.535109
1.597549
1.639925
1.543547
1.714927
1.949497
1.905996
1.985123
1.926434
1.926434
1.902808
1.806805
1.947059
1.871307
1.707615
1.589674
1.385292
1.473795
1.520859
1.520859
1.606362
1.64855
1.528547
1.689239
1.902246
1.996186
1.959997
1.920621
1.89737
1.89737
1.801555
1.928121
1.873745
1.699177
1.584798
1.449794
1.447357
1.518609
1.518609
1.598486
1.647238
1.540922
1.702927
1.874495
2.015874
1.988873
1.891745
1.901871
1.901871
1.781492
1.922121
1.893433
1.712302
1.580486
1.46817
1.452982
1.509796
1.593986
1.593986
1.658113
1.526859
1.705552
1.866432
1.961872
2.071563
1.885932
1.87037
1.791055
1.791055
1.923809
1.88387
1.727678
1.572798
1.480733
1.494233
1.484483
1.580673
1.6418
1.6418
1.519921
1.687364
1.864369
1.944247
2.078126
1.956435
1.841494
1.775492
1.775492
1.933371
1.875807
1.72749
1.575048
1.463482
1.494233
1.512046
1.54861
1.634487
1.634487
1.518234
1.677614
1.850681
1.916871
2.018312
2.005374
1.860807
1.764054
1.907308
1.907308
1.865494
1.715302
1.581423
1.485233
1.46892
1.554985
1.532484
1.608612
1.509984
1.509984
1.665238
1.825556
1.925684
2.021124
1.984373
1.966935
1.743241
1.88687
1.866619
1.866619
1.722803
1.593236
1.498546
1.476983
1.543922
1.601861
1.610487
1.509796
1.509796
1.674801
1.841306
1.946872
2.033875
1.963185
1.97331
1.812993
1.856119
1.865869
1.865869
1.711177
1.573548
1.520484
1.467232
1.540922
1.611049
1.628487
1.475857
1.64555
1.64555
1.840181
1.918559
2.021499
1.945934
1.932621
1.881057
1.845619
1.859119
1.71474
1.71474
1.575611
1.519171
1.453544
1.527797
1.577861
1.688489
1.472857
1.605424
1.826868
1.826868
1.921184
2.003311
1.97181
1.915746
1.856119
1.914433
1.834931
1.704615
1.586673
1.586673
1.522359
1.471732
1.525547
1.56061
1.694677
1.525734
1.572235
1.80418
1.80418
1.906933
2.018499
1.943684
1.935059
1.832681
1.929059
1.910121
1.684739
1.574298
1.574298
1.505108
1.457107
1.520859
1.565673
1.667113
1.55461
1.584798
1.773429
1.906371
1.906371
2.006311
1.944809
1.926809
1.843744
1.885745
1.991686
1.662801
1.560798
1.509421
1.509421
1.439856
1.530422
1.541484
1.660551
1.56586
1.631675
1.73574
1.885558
2.005186
2.005186
1.941247
1.917434
1.841681
1.850119
1.96881
1.761054
1.54336
1.488983
1.488983
1.436669
1.507546
1.539047
1.661301
1.55611
1.636175
1.776054
1.855369
1.993186
1.993186
1.940122
1.904496
1.842806
1.834181
1.935247
1.778304
1.56511
1.480358
1.416043
1.416043
1.516171
1.540359
1.648175
1.554798
1.600736
1.81393
1.829118
1.959997
1.924746
1.924746
1.898495
1.830056
1.81468
1.937122
1.753366
1.620237
1.449419
1.406855
1.503796
1.503796
1.529859
1.660176
1.547485
1.581798
1.795367
1.922309
1.925309
1.896058
1.898683
1.898683
1.824993
1.801742
1.942934
1.739491
1.62155
1.494046
1.38848
1.483545
1.483545
1.527234
1.63505
1.558173
1.578986
1.749991
1.950997
1.957935
1.891558
1.872245
1.872245
1.81318
1.784867
1.95756
1.742678
1.605049
1.532297
1.386417
1.46592
1.515984
1.515984
1.628112
1.544485
1.557797
1.742866
1.902621
2.041375
1.875057
1.854807
1.820118
1.820118
1.777367
1.938622
1.752053
1.419606
1.421856
1.503233
1.505108
1.581798
1.525547
1.525547
1.563235
1.710802
1.891558
1.96131
1.950622
1.96056
1.781117
1.754304
1.923809
1.923809
1.729365
1.611424
1.525734
1.430481
1.48542
1.525734
1.563985
1.514671
1.544485
1.544485
1.72899
1.870557
1.976873
1.951747
1.920059
1.890995
1.715865
1.927746
1.737053
1.737053
1.605611
1.539797
1.443232
1.490671
1.531922
1.620424
1.476983
1.538297
1.538297
1.733865
1.883307
1.957747
1.971248
1.902808
1.896995
1.772679
1.89662
1.720178
1.720178
1.612924
1.527047
1.433669
1.485045
1.520296
1.641237
1.528734
1.491421
1.700864
1.700864
1.861369
1.922871
1.972373
1.905246
1.847869
1.827806
1.887433
1.714177
1.603174
1.603174
1.527797
1.432919
1.48767
1.516921
1.622675
1.596236
1.487483
1.677614
1.869619
1.869619
1.938997
1.973123
1.910871
1.857244
1.818806
1.973873
1.721865
1.601486
1.531734
1.531734
1.414168
1.484108
1.512046
1.602237
1.609549
1.534172
1.647988
1.848619
1.848619
1.945934
1.967123
1.923996
1.860057
1.767429
1.994123
1.755616
1.566985
1.515421
1.515421
1.40948
1.46367
1.507921
1.590236
1.587423
1.54411
1.644613
1.826306
1.926246
1.926246
1.96281
1.904683
1.874682
1.777179
1.943497
1.851431
1.589486
1.516171
1.429544
1.429544
1.484483
1.513734
1.589674
1.601861
1.526109
1.705177
1.793492
1.89887
1.964122
1.964122
1.897933
1.87037
1.773429
1.922496
1.844869
1.646488
1.485045
1.401418
1.401418
1.455044
1.500233
1.583861
1.602986
1.495733
1.71099
1.837181
1.869244
1.963185
1.963185
1.89812
1.887058
1.791805
1.918371
1.824243
1.688114
1.500233
1.381542
1.451669
1.451669
1.48617
1.551985
1.606737
1.491045
1.679676
1.87937
1.850869
1.95831
1.902433
1.902433
1.87337
1.772679
1.921746
1.836619
1.684739
1.556672
1.351354
1.426169
1.455419
1.455419
1.535297
1.588736
1.482233
1.649675
1.862869
1.941997
1.953435
1.903746
1.903746
1.89287
1.790867
1.923059
1.855182
1.673864
1.572986
1.393543
1.407043
1.446982
1.446982
1.539797
1.569985
1.484108
1.637862
1.830618
1.978185
1.97481
1.896995
1.916871
1.916871
1.808493
1.925309
1.873745
1.704802
1.564548
1.423543
1.379292
1.411918
1.498546
1.498546
1.558173
1.450544
1.63505
1.834181
1.939747
2.090126
1.900933
1.924559
1.844494
1.844494
1.955872
1.893995
1.714177
1.563985
1.425418
1.416793
1.364667
1.45842
1.45842
1.538484
1.428044
1.619862
1.823306
1.910496
2.126315
1.996936
1.949309
1.867745
1.867745
1.981748
1.899245
1.741178
1.56436
1.415293
1.396918
1.349104
1.39373
1.491983
1.491983
1.398793
1.583298
1.797992
1.886495
2.084126
2.090314
1.998249
1.87637
1.993373
1.993373
1.890245
1.744366
1.564173
1.409668
1.378355
1.364104
1.338416
1.426356
1.370292
1.370292
1.574673
1.776804
1.875807
2.101377
2.094439
2.113752
1.881807
1.995248
1.897183
1.897183
1.755429
1.566048
1.427106
1.356041
1.347416
1.364292
1.389605
1.351916
1.351916
1.571298
1.770429
1.887808
2.13869
2.060688
2.195317
1.937497
1.97106
1.900183
1.900183
1.738366
1.541297
1.424668
1.347979
1.337478
1.361104
1.380605
1.334478
1.544297
1.544297
1.785054
1.883307
2.120315
2.062563
2.118815
2.049438
1.946309
1.885182
1.73049
1.73049
1.557797
1.46742
1.354916
1.352479
1.370854
1.450357
1.327916
1.530422
1.761054
1.761054
1.88237
2.13194
2.060875
2.092001
2.031062
1.993748
1.861182
1.727678
1.727678
1.541109
1.442669
1.365792
1.360729
1.382292
1.46967
1.377229
1.500796
1.758429
1.758429
1.869619
2.091439
2.045125
2.088064
1.962435
2.015874
1.873182
1.712865
1.543735
1.543735
1.457669
1.349854
1.369917
1.389792
1.491421
1.428794
1.501921
1.724115
1.878057
1.878057
2.080939
2.030874
2.067063
1.955685
1.97331
1.995811
1.689427
1.541109
1.462357
1.462357
1.350229
1.38998
1.39373
1.523109
1.447169
1.557985
1.70799
1.87487
1.87487
2.067063
2.009874
2.0575
1.956247
1.919121
2.021124
1.725428
1.514484
1.442107
1.442107
1.373292
1.403855
1.406855
1.527984
1.443982
1.581236
1.708927
1.834556
2.0395
2.0395
1.997498
2.014561
1.948934
1.902058
1.961122
1.802305
1.509984
1.426544
1.362604
1.362604
1.40348
1.408543
1.524984
1.460295
1.553297
1.786555
1.823868
2.021499
1.998249
1.998249
2.002936
1.948559
1.884245
1.971623
1.777929
1.595486
1.433106
1.353979
1.353979
1.410418
1.415106
1.545985
1.487483
1.533234
1.761616
1.876557
1.991123
1.991498
1.991498
2.009124
1.935622
1.884058
1.957747
1.771554
1.618174
1.457857
1.335228
1.39448
1.39448
1.401043
1.531547
1.492546
1.533984
1.724865
1.940309
1.996936
1.97481
2.003124
2.003124
1.942184
1.876182
1.984936
1.771367
1.628112
1.527234
1.32979
1.393543
1.415668
1.415668
1.537172
1.487858
1.548422
1.719615
1.919871
2.062188
1.959435
1.984186
1.939934
1.939934
1.863807
1.985123
1.772117
1.609737
1.525921
1.370292
1.361292
1.397293
1.397293
1.540359
1.48167
1.527422
1.696364
1.882933
2.089564
1.990373
1.953247
1.925496
1.925496
1.868307
1.983998
1.774742
1.625675
1.515234
1.38698
1.367479
1.374042
1.541297
1.541297
1.497796
1.526859
1.70724
1.88012
2.018687
2.080939
1.959435
1.917246
1.869807
1.869807
1.982873
1.802493
1.647425
1.546547
1.412668
1.435731
1.368042
1.521609
1.501546
1.501546
1.544672
1.720178
1.905621
2.018687
2.080564
2.034812
1.90112
1.844681
1.844681
1.996748
1.783179
1.649863
1.546735
1.40123
1.435544
1.392417
1.488045
1.476795
1.476795
1.537547
1.671988
1.903183
1.978935
2.030312
2.071376
1.918559
1.814118
1.97106
1.97106
1.768179
1.645738
1.529672
1.383417
1.414543
1.419981
1.46742
1.463857
1.503983
1.503983
1.673864
1.872057
1.947809
2.029374
2.022249
2.013811
1.793492
1.963372
1.778679
1.778679
1.628112
1.54786
1.396168
1.405168
1.417168
1.504171
1.434231
1.48767
1.48767
1.678739
1.854994
1.975185
2.037437
2.000874
2.035937
1.854057
1.916121
1.768179
1.768179
1.636925
1.538297
1.401605
1.412668
1.404418
1.505858
1.467045
1.452607
1.660738
1.660738
1.857807
1.952497
2.036875
2.008936
1.986998
1.920621
1.926996
1.773992
1.63205
1.63205
1.536422
1.406668
1.425981
1.411543
1.493671
1.514296
1.424481
1.618174
1.845806
1.845806
1.946309
2.035562
1.993748
1.988311
1.895683
1.988311
1.763679
1.621174
1.514671
1.514671
1.37873
1.402918
1.381917
1.455982
1.501171
1.433669
1.567923
1.806805
1.806805
1.928121
2.024312
1.993186
1.984748
1.848244
2.024312
1.796117
1.600361
1.503608
1.503608
1.374042
1.384917
1.395605
1.443419
1.503608
1.441919
1.575236
1.787304
1.908808
1.908808
2.019624
1.984373
1.995623
1.848244
1.962247
1.884433
1.598299
1.476608
1.374042
1.374042
1.361292
1.361667
1.409855
1.47567
1.408168
1.63055
1.740428
1.870745
2.006874
2.006874
1.982873
1.979123
1.857057
1.948372
1.880682
1.665426
1.47342
1.363354
1.363354
1.385105
1.438544
1.38923
1.423918
1.632612
1.830993
1.974248
2.091626
1.945372
1.983248
1.983248
1.852931
1.951747
1.87712
1.695239
1.548797
1.388667
1.359604
1.345166
1.445482
1.445482
1.506234
1.414543
1.610487
1.836244
1.922871
2.164941
1.964872
1.967873
1.872807
1.872807
1.980623
1.88162
1.736303
1.566423
1.416981
1.429544
1.356416
1.447919
1.538859
1.538859
1.454857
1.661113
1.857432
1.949685
2.168316
2.089376
1.993186
1.906746
2.012499
2.012499
1.916121
1.775679
1.585736
1.450169
1.431231
1.419418
1.419043
1.542235
1.542235
1.474545
1.662988
1.851431
1.95981
2.109439
2.123315
2.035562
1.88537
1.984373
1.984373
1.900183
1.764991
1.593799
1.449044
1.429919
1.427294
1.414168
1.506796
1.455044
1.455044
1.645925
1.819368
1.947059
2.096689
2.063688
2.123502
1.876557
1.954747
1.916308
1.916308
1.758804
1.590611
1.47417
1.419418
1.427669
1.462357
1.512421
1.433856
1.631862
1.631862
1.827993
1.912933
2.115627
2.052438
2.120502
1.95081
1.932621
1.902808
1.902808
1.776804
1.609362
1.520109
1.422418
1.438544
1.479608
1.544297
1.437231
1.614799
1.614799
1.843181
1.926996
2.121815
2.062188
2.077188
2.018874
1.95081
1.907683
1.776429
1.776429
1.605424
1.515421
1.428044
1.450169
1.468357
1.610299
1.435919
1.616862
1.846744
1.846744
1.958497
2.139815
2.092564
2.086751
2.021499
2.084126
1.938997
1.782242
1.627175
1.627175
1.528359
1.434794
1.456919
1.473795
1.610299
1.496858
1.582361
1.821431
1.821431
1.952497
2.13419
2.090876
2.104002
2.004249
2.064063
2.005561
1.764241
1.617799
1.617799
1.499483
1.423168
1.451294
1.458232
1.56886
1.504171
1.581048
1.790117
1.932809
1.932809
2.11844
2.064813
2.097814
2.017187
1.982123
2.082626
1.748678
1.595299
1.498921
1.498921
1.40498
1.443607
1.449232
1.576361
1.509609
1.623987
1.753179
1.910683
2.12744
2.12744
2.055063
2.112252
2.021874
2.001998
2.072126
1.861932
1.584048
1.507546
1.422981
1.422981
1.456357
1.449794
1.592674
1.513359
1.631675
1.803243
1.901683
2.110189
2.110189
2.080001
2.114127
2.032937
1.971623
2.042312
1.885745
1.608049
1.48842
1.39673
1.39673
1.446044
1.437981
1.590236
1.516734
1.604861
1.850494
1.888183
2.081313
2.064813
2.064813
2.074376
2.021312
1.942184
2.055813
1.836994
1.673864
1.476233
1.382855
1.440044
1.440044
1.437419
1.583486
1.509609
1.56061
1.81018
1.976685
2.038562
2.028624
2.065001
2.065001
1.98456
1.938809
2.044937
1.811868
1.669551
1.539422
1.371792
1.430106
1.430106
1.440794
1.565485
1.527609
1.575986
1.781117
1.983811
2.068376
1.994311
2.043625
2.043625
1.97856
1.930934
2.048875
1.829306
1.651363
1.580486
1.377792
1.406668
1.428981
1.428981
1.584048
1.544297
1.597361
1.781117
1.954935
2.144503
2.028062
2.021499
1.991873
1.991873
1.933746
2.051312
1.848619
1.685864
1.593986
1.434231
1.404043
1.434044
1.603736
1.603736
1.539797
1.583298
1.767241
1.941059
2.127815
2.101752
2.020562
1.980435
1.980435
1.944059
2.044937
1.869807
1.689614
1.585736
1.437981
1.422793
1.407418
1.576923
1.576923
1.524234
1.577111
1.754866
1.934122
2.052438
2.153503
2.013249
1.96656
1.924746
1.924746
2.03425
1.840181
1.690364
1.578048
1.421856
1.458982
1.396355
1.53811
1.519171
1.519171
1.556298
1.712302
1.929059
2.024499
2.084501
2.105127
1.935809
1.884995
2.020374
2.020374
1.819743
1.693552
1.568485
1.426356
1.446982
1.431606
1.490483
1.503421
1.543922
1.543922
1.71699
1.916308
2.019062
2.047188
2.104002
1.989811
1.843931
2.004811
2.004811
1.819931
1.668426
1.574486
1.419793
1.448107
1.446794
1.528922
1.487108
1.539235
1.539235
1.728428
1.903183
2.019249
2.061625
2.04775
2.062563
1.837368
1.980998
1.827431
1.827431
1.669926
1.591174
1.431044
1.467982
1.469295
1.576548
1.506234
1.514109
1.725615
1.725615
1.907121
2.025249
2.05825
2.035937
2.058625
1.918371
1.990748
1.826493
1.681364
1.681364
1.571673
1.433669
1.458232
1.470607
1.554798
1.554047
1.486358
1.692614
1.692614
1.904683
1.980248
2.063875
2.05675
2.005749
1.96806
2.004811
1.79893
1.661301
1.661301
1.56286
1.411918
1.449419
1.437981
1.519734
1.55536
1.46067
1.651925
1.87412
1.87412
1.980435
2.054125
2.033875
2.012124
1.898683
2.056563
1.795742
1.639175
1.549922
1.549922
1.40648
1.430294
1.422418
1.493858
1.529484
1.462545
1.598486
1.829118
1.970123
1.970123
2.04925
2.024124
2.027499
1.89737
2.040625
1.88312
1.629425
1.538484
1.538484
1.397293
1.423731
1.422418
1.483358
1.540359
1.48842
1.6463
1.814118
1.943309
1.943309
2.0575
2.023749
2.038937
1.902246
2.010999
1.930371
1.670864
1.522171
1.38773
1.38773
1.417168
1.408355
1.469107
1.54186
1.47417
1.682864
1.803618
1.929621
2.073438
2.073438
2.035
2.053188
1.937122
2.001624
1.945559
1.765179
1.512609
1.37948
1.418293
1.418293
1.40948
1.460482
1.554047
1.468357
1.685301
1.87937
1.909746
2.062563
2.062563
2.043437
2.041937
1.930746
2.009499
1.927934
1.777742
1.566235
1.366917
1.391855
1.391855
1.402355
1.441544
1.542985
1.452419
1.646113
1.903558
1.902058
2.031062
2.024874
2.024874
2.026374
1.923059
1.982686
1.930559
1.747741
1.589298
1.361104
1.374604
1.389605
1.389605
1.441356
1.535672
1.429544
1.623237
1.839619
1.964122
2.023937
1.990373
2.016812
2.016812
1.888745
2.000311
1.927371
1.732178
1.584611
1.425606
1.340666
1.365792
1.450919
1.450919
1.510921
1.420168
1.598111
1.81918
1.960185
2.078314
1.973873
2.013811
2.013811
1.905808
1.970873
1.948559
1.755616
1.582361
1.423731
1.363917
1.369729
1.436294
1.436294
1.522734
1.421481
1.608424
1.818056
1.922496
2.162316
1.975935
2.000124
1.923246
1.923246
2.001998
1.96431
1.79443
1.608049
1.459732
1.426169
1.357541
1.428794
1.534547
1.534547
1.420543
1.592299
1.798742
1.917996
2.128377
2.074751
1.989811
1.914058
1.98081
1.98081
1.952872
1.79593
1.600924
1.453357
1.426356
1.40948
1.388855
1.513359
1.513359
1.424293
1.598111
1.789742
1.908433
2.058438
2.086751
2.009311
1.870932
1.957747
1.957747
1.931497
1.775304
1.599049
1.47717
1.401043
1.432169
1.391855
1.48392
1.416606
1.416606
1.585361
1.746616
1.884245
2.045312
2.013624
2.093314
1.863432
1.918746
1.932246
1.932246
1.770617
1.622862
1.504358
1.397855
1.424293
1.436669
1.47792
1.401418
1.575798
1.575798
1.757866
1.89287
2.0605
2.014749
2.085064
1.986248
1.89887
1.942184
1.782429
1.782429
1.613487
1.532672
1.400293
1.435356
1.445669
1.526859
1.395793
1.56961
1.56961
1.775304
1.892308
2.067063
2.037812
2.048125
2.029374
1.922871
1.942184
1.787492
1.787492
1.6253
1.539984
1.408731
1.442482
1.448669
1.571673
1.410793
1.530422
1.746053
1.746053
1.897745
2.063688
2.04475
2.032562
1.991498
2.015687
1.943497
1.777179
1.62905
1.62905
1.533047
1.408918
1.452232
1.441356
1.570173
1.474545
1.677989
1.843181
2.040625
2.040625
1.991311
2.028999
1.970873
1.933371
2.000499
1.862682
1.568485
1.485608
1.390355
1.390355
1.422793
1.40948
1.535109
1.460482
1.542047
1.769866
1.812805
1.996186
2.000499
2.000499
2.017374
1.96431
1.919684
1.996373
1.826868
1.655301
1.47642
1.368792
1.426731
1.426731
1.411731
1.519921
1.477733
1.526109
1.73799
1.865307
1.967498
1.975935
1.975935
2.008936
1.952122
1.926059
2.003124
1.809243
1.669738
1.506046
1.360729
1.417356
1.417356
1.409105
1.521609
1.47492
1.515796
1.708552
1.923809
1.96881
1.962997
2.014936
2.014936
1.96056
1.899995
2.023937
1.816555
1.663551
1.576173
1.351354
1.408168
1.421481
1.421481
1.532484
1.499108
1.517671
1.706115
1.905246
2.042875
1.948747
1.996561
1.952872
1.952872
1.917996
2.038937
1.822368
1.659426
1.586673
1.406106
1.388105
1.404418
1.404418
1.531359
1.495733
1.505108
1.694489
1.870932
2.078314
1.992061
1.980248
1.966373
1.966373
1.919871
2.025062
1.829118
1.685864
1.587236
1.430106
1.392792
1.394668
1.530234
1.530234
1.473795
1.492733
1.686427
1.858369
2.015874
2.066875
1.961872
1.952497
1.907683
1.907683
2.009874
1.843931
1.682489
1.588548
1.426731
1.441544
1.371604
1.508671
1.482045
1.482045
1.505671
1.680051
1.851431
1.970123
2.0635
2.017187
1.917621
1.88012
1.88012
2.009499
1.836619
1.702177
1.588923
1.419418
1.449419
1.394668
1.46667
1.468732
1.468732
1.513171
1.656801
1.848431
1.947059
2.004999
2.072501
1.928121
1.850681
1.990748
1.990748
1.807555
1.687927
1.582736
1.421668
1.432544
1.421293
1.447732
1.465545
1.504546
1.504546
1.64855
1.825931
1.947059
1.999936
2.018874
2.021499
1.819931
1.963935
1.820493
1.820493
1.674426
1.574111
1.438169
1.435356
1.425793
1.498171
1.442857
1.479233
1.479233
1.649488
1.809618
1.947997
2.016249
1.994311
2.0365
1.861932
1.924371
1.825368
1.825368
1.676489
1.588923
1.442482
1.445107
1.430481
1.513734
1.48017
1.456544
1.6373
1.6373
1.835118
1.935809
2.017936
1.990936
1.999561
1.951372
1.933559
1.818056
1.677239
1.677239
1.569423
1.442669
1.451669
1.427856
1.502296
1.539422
1.433669
1.615924
1.832868
1.832868
1.922309
2.011561
1.997123
1.997686
1.931871
2.012124
1.806805
1.675739
1.675739
1.575611
1.437044
1.439669
1.428419
1.491796
1.54711
1.459169
1.597174
1.820306
1.820306
1.931871
2.027687
2.000874
2.006686
1.903558
2.0605
1.839806
1.671988
1.587048
1.587048
1.445107
1.449607
1.452982
1.498733
1.538297
1.498546
1.592111
1.785429
1.912558
1.912558
2.013999
2.001624
2.007999
1.905621
2.006686
1.927371
1.660363
1.569423
1.428419
1.428419
1.447169
1.439856
1.48317
1.539235
1.481483
1.639363
1.756929
1.88462
2.011374
2.011374
1.967498
2.011561
1.888745
1.969373
1.950622
1.724865
1.545235
1.433294
1.433294
1.436669
1.437419
1.470982
1.543922
1.476045
1.657738
1.772117
1.858182
2.002374
2.002374
1.973123
1.994873
1.907683
1.964122
1.910308
1.785242
1.551235
1.409855
1.434231
1.434231
1.431044
1.449794
1.548047
1.473045
1.6373
1.847869
1.826681
1.983061
1.978185
1.978185
1.994311
1.904871
1.975373
1.918184
1.779804
1.609924
1.395793
1.428981
1.420543
1.420543
1.454294
1.551422
1.459169
1.612549
1.831368
1.884058
1.966747
1.960185
1.960185
1.998811
1.892495
1.968998
1.921934
1.764991
1.636362
1.432544
1.391855
1.414918
1.414918
1.446982
1.536234
1.45992
1.602049
1.774554
1.914996
1.95756
1.933184
1.987561
1.987561
1.885745
1.947059
1.933559
1.761804
1.615362
1.476983
1.38023
1.404043
1.46367
1.46367
1.539422
1.45617
1.598299
1.770429
1.893808
2.052625
1.918184
1.966185
1.888558
1.888558
1.936559
1.940684
1.774554
1.618924
1.490858
1.423168
1.374604
1.437606
1.437606
1.528734
1.442107
1.595486
1.759554
1.868682
2.102877
1.95831
1.961685
1.890808
1.890808
1.949309
1.929621
1.787304
1.637862
1.499108
1.428231
1.400293
1.422231
1.516921
1.516921
1.453732
1.566048
1.760491
1.863244
2.04775
2.059
1.960747
1.896995
1.951747
1.951747
1.934872
1.796117
1.628675
1.499296
1.429169
1.450732
1.396168
1.515046
1.439481
1.439481
1.572423
1.723365
1.881057
2.017187
2.037812
2.017561
1.864932
1.920809
1.920809
1.926809
1.787867
1.652113
1.513171
1.412481
1.429169
1.402918
1.47642
1.427294
1.427294
1.568298
1.727303
1.865682
2.025812
1.990748
2.085626
1.88912
1.894933
1.945184
1.945184
1.768742
1.6283
1.533609
1.405168
1.432169
1.437794
1.469482
1.418106
1.564173
1.564173
1.738928
1.870932
2.034812
1.994686
2.061438
1.986998
1.868119
1.920621
1.785242
1.785242
1.615362
1.541109
1.39898
1.434606
1.421293
1.534547
1.396168
1.539235
1.539235
1.745303
1.864744
2.039875
2.004811
2.016812
2.011936
1.918371
1.919684
1.769304
1.769304
1.619112
1.534172
1.386417
1.423731
1.418293
1.545422
1.429544
1.503608
1.707615
1.707615
1.865682
2.019624
2.014936
2.033312
1.97331
1.988311
1.931684
1.752428
1.62755
1.62755
1.533609
1.385855
1.422231
1.426731
1.539797
1.478108
1.477545
1.699177
1.843931
1.843931
2.025812
1.998623
2.025624
1.971998
1.954935
2.032
1.73124
1.597549
1.521421
1.521421
1.376855
1.425606
1.40798
1.516359
1.452044
1.534172
1.6448
1.842244
1.842244
2.014374
1.987561
2.006124
1.96506
1.903558
2.039687
1.746428
1.557797
1.506046
1.506046
1.365229
1.418856
1.416043
1.513171
1.449794
1.535484
1.6493
1.80868
2.011749
2.011749
1.987748
2.004436
1.97856
1.905246
2.003124
1.835868
1.56136
1.493296
1.364104
1.364104
1.421856
1.402355
1.502671
1.451482
1.515984
1.702364
1.780929
1.97706
1.990561
1.990561
2.001811
1.975748
1.89137
2.001811
1.827431
1.639925
1.46892
1.348541
1.348541
1.421856
1.398793
1.48767
1.473607
1.497608
1.711552
1.844494
1.968623
2.000686
2.000686
2.026187
1.972748
1.900933
2.015687
1.80943
1.671988
1.486545
1.335978
1.390355
1.390355
1.38173
1.482983
1.479795
1.478483
1.666176
1.919684
1.950997
1.982873
2.027124
2.027124
1.991311
1.909183
2.023187
1.831931
1.658863
1.561735
1.32004
1.379292
1.380792
1.380792
1.47567
1.47192
1.46067
1.655113
1.890433
2.029937
1.96881
2.013999
2.002186
2.002186
1.913683
2.044375
1.824056
1.663926
1.55911
1.348354
1.347791
1.360354
1.360354
1.461795
1.448107
1.445857
1.629987
1.843931
2.055625
2.023562
1.992811
2.003874
2.003874
1.925309
2.0395
1.866245
1.674239
1.547297
1.371042
1.344791
1.331291
1.429919
1.429919
1.422418
1.406855
1.621174
1.831743
2.007624
2.133815
2.008374
2.022249
1.951935
1.951935
2.063125
1.897558
1.685301
1.556672
1.375167
1.368229
1.301102
1.388855
1.40948
1.40948
1.400293
1.581611
1.840931
1.97331
2.13794
2.095001
2.017561
1.938434
1.938434
2.070251
1.860807
1.705177
1.546922
1.378917
1.362042
1.313478
1.348729
1.397668
1.397668
1.40123
1.569423
1.837181
1.952872
2.077751
2.100439
2.043812
2.053563
1.837744
1.661488
1.661488
1.528734
1.371417
1.356416
1.332228
1.38473
1.407043
1.361854
1.548235
1.811493
1.811493
1.955122
2.096876
2.095752
2.128752
1.996186
2.144691
1.840744
1.652863
1.532672
1.532672
1.356791
1.342916
1.332416
1.373104
1.392043
1.405543
1.513921
1.789742
1.95981
1.95981
2.089376
2.107752
2.142066
1.992998
2.119377
1.933184
1.642925
1.518046
1.518046
1.359416
1.345916
1.340853
1.361292
1.40723
1.389792
1.540735
1.773242
1.942184
1.942184
2.115064
2.101189
2.176566
2.001436
2.084126
2.000311
1.675551
1.497983
1.354729
1.354729
1.339541
1.324915
1.349104
1.404043
1.39298
1.602799
1.765929
1.924559
2.113377
2.113377
2.112439
2.149003
2.019999
2.078688
1.982686
1.752616
1.48542
1.342916
1.335603
1.335603
1.324728
1.325478
1.400668
1.371417
1.577486
1.826868
1.867932
2.107002
2.107002
2.110564
2.150503
2.015687
2.077188
1.950435
1.771929
1.530234
1.320603
1.334291
1.334291
1.321165
1.318353
1.411356
1.356604
1.559485
1.845994
1.855182
2.100814
2.087876
2.087876
2.13344
1.999561
2.04025
1.953997
1.734615
1.542422
1.30204
1.310853
1.306915
1.306915
1.299977
1.379855
1.349104
1.514484
1.762554
1.909371
2.074751
2.044187
2.112814
2.112814
1.958685
2.040812
1.946497
1.727115
1.512046
1.341791
1.280852
1.300352
1.300352
1.304477
1.382667
1.347229
1.508859
1.738178
1.926246
2.128002
2.036687
2.118815
2.118815
1.992811
2.026749
1.984936
1.756366
1.532859
1.338228
1.297165
1.287977
1.308415
1.308415
1.383605
1.335791
1.509046
1.72899
1.884433
2.21538
2.031625
2.103439
1.993561
1.993561
2.031812
1.967498
1.769491
1.537547
1.368792
1.336728
1.267914
1.301852
1.390167
1.390167
1.337103
1.509984
1.736678
1.886495
2.214255
2.136628
2.124253
2.001998
2.001998
2.057313
1.996373
1.81618
1.572048
1.394105
1.348166
1.309727
1.288539
1.386605
1.386605
1.343666
1.498733
1.716427
1.866807
2.114502
2.164754
2.117315
1.961872
2.003311
2.003311
1.920996
1.760491
1.528734
1.346666
1.321165
1.304102
1.269414
1.337853
1.313102
1.313102
1.456919
1.665051
1.818618
2.089564
2.074751
2.185942
1.925496
1.959435
1.919684
1.919684
1.727678
1.509046
1.366354
1.312728
1.298102
1.298665
1.323415
1.311228
1.46592
1.46592
1.661113
1.825181
2.088064
2.078688
2.179379
2.024499
1.951935
1.945559
1.945559
1.763491
1.567923
1.461607
1.322853
1.31629
1.327541
1.378542
1.317415
1.497796
1.497796
1.741178
1.876557
2.151441
2.133065
2.182004
2.176754
2.005936
2.005186
1.824056
1.824056
1.632237
1.529672
1.340103
1.353041
1.355291
1.459545
1.324165
1.498171
1.770804
1.770804
1.906183
2.190254
2.140753
2.195692
2.174691
2.120127
2.034062
1.837181
1.623987
1.623987
1.531734
1.337853
1.364292
1.357354
1.47717
1.393355
1.505858
1.773054
1.773054
1.95756
2.198692
2.175442
2.224755
2.176191
2.175066
2.119565
1.847306
1.655863
1.655863
1.535109
1.327541
1.377229
1.358854
1.468357
1.418106
1.510171
1.724115
1.95531
1.95531
2.20938
2.157816
2.217818
2.169629
2.086939
2.196067
1.818618
1.609924
1.523109
1.523109
1.31254
1.367479
1.346104
1.452982
1.397855
1.521046
1.671988
1.88912
2.159128
2.159128
2.11394
2.185754
2.151253
2.03875
2.141878
1.882557
1.573173
1.490296
1.490296
1.31104
1.359229
1.341603
1.415856
1.375917
1.514859
1.686989
1.838681
2.126315
2.126315
2.097814
2.161003
2.119565
2.015499
2.093127
1.890433
1.585173
1.476795
1.30804
1.30804
1.362042
1.335228
1.411168
1.391292
1.472482
1.726553
1.833993
2.092001
2.108502
2.108502
2.169066
2.113189
2.028812
2.102127
1.86887
1.656426
1.471732
1.302227
1.358479
1.358479
1.331478
1.39973
1.400105
1.461795
1.692802
1.917246
2.058063
2.088439
2.157816
2.157816
2.109627
2.022812
2.099689
1.844681
1.654551
1.513171
1.285352
1.340103
1.340103
1.311228
1.363917
1.39223
1.442294
1.64105
1.903183
2.061438
2.048687
2.109439
2.109439
2.089751
1.981561
2.089001
1.851057
1.647613
1.515984
1.290977
1.311603
1.305977
1.305977
1.359979
1.394105
1.417356
1.612174
1.884245
2.135315
2.056
2.117127
2.111877
2.111877
1.999561
2.098939
1.876557
1.673489
1.54786
1.329416
1.300352
1.30279
1.393917
1.393917
1.400855
1.415293
1.608049
1.87112
2.119377
2.135315
2.11769
2.110002
2.110002
2.023749
2.105502
1.89737
1.697114
1.545985
1.356041
1.329228
1.282539
1.360541
1.360541
1.38623
1.379105
1.599799
1.842619
2.028437
2.187629
2.103439
2.086189
1.97556
1.97556
2.070063
1.876557
1.680051
1.528734
1.321728
1.340666
1.268664
1.331103
1.362792
1.362792
1.368979
1.548985
1.828181
1.953435
2.120502
2.163253
2.043437
1.922871
2.0485
2.0485
1.842244
1.657926
1.504921
1.338228
1.32454
1.29679
1.297727
1.352291
1.353041
1.353041
1.524984
1.803243
1.910683
2.092001
2.149003
2.089939
1.888933
2.018687
2.018687
1.818243
1.642738
1.496858
1.348541
1.328665
1.291352
1.317228
1.320228
1.346479
1.346479
1.530797
1.776242
1.891933
2.103252
2.091626
2.184442
1.912558
2.010249
1.841306
1.841306
1.639925
1.494983
1.373854
1.323415
1.301477
1.347604
1.315728
1.330916
1.531172
1.531172
1.773242
1.89287
2.120502
2.084501
2.162503
2.029187
2.007249
1.875995
1.675364
1.675364
1.527234
1.390167
1.342728
1.303165
1.367854
1.371417
1.316103
1.537172
1.537172
1.829306
1.927371
2.13119
2.107564
2.149941
2.071563
2.051875
1.861182
1.689989
1.689989
1.524609
1.400105
1.347791
1.32454
1.369542
1.40273
1.326228
1.518046
1.783367
1.783367
1.924934
2.107377
2.098377
2.13569
1.996561
2.112814
1.859682
1.667863
1.518421
1.518421
1.394668
1.342916
1.329228
1.364854
1.418668
1.363167
1.509984
1.763304
1.914808
1.914808
2.106439
2.092376
2.114877
1.969373
2.073251
1.939934
1.656613
1.504358
1.504358
1.380605
1.340291
1.343479
1.353416
1.429544
1.364292
1.524047
1.727865
1.87862
1.87862
2.090689
2.036875
2.102502
1.954747
2.017561
1.987936
1.680239
1.488045
1.387167
1.387167
1.352479
1.337853
1.366354
1.423168
1.357916
1.574486
1.723365
1.842619
2.057313
2.057313
2.032375
2.070438
1.945184
1.990748
1.96131
1.744928
1.470795
1.369917
1.355291
1.355291
1.359604
1.357166
1.458045
1.377604
1.56961
1.797992
1.826306
2.029374
2.014749
2.014749
2.048125
1.940684
1.97181
1.921934
1.766304
1.532109
1.350416
1.359041
1.359041
1.368979
1.372354
1.47717
1.37648
1.54561
1.801742
1.837368
2.000124
1.990561
1.990561
2.015499
1.920621
1.941622
1.932621
1.748678
1.569985
1.361292
1.337666
1.359792
1.359792
1.381917
1.490296
1.408543
1.541109
1.755241
1.912371
1.980435
1.948747
1.991873
1.991873
1.885182
1.919871
1.938247
1.734803
1.572048
1.432919
1.309915
1.360729
1.384542
1.384542
1.473795
1.406668
1.519359
1.724303
1.900558
2.007061
1.908621
1.95606
1.95606
1.988686
1.848619
1.741741
1.583298
1.437419
1.367667
1.38173
1.347041
1.464795
1.399355
1.399355
1.533797
1.719427
1.839806
1.987186
2.003874
2.017749
1.821056
1.872245
1.890245
1.890245
1.741553
1.573548
1.478108
1.373104
1.392792
1.396355
1.441356
1.392417
1.392417
1.540547
1.701427
1.846181
1.999186
1.963372
2.049813
1.88387
1.838681
1.899058
1.899058
1.73199
1.590799
1.506421
1.374792
1.403668
1.400293
1.450544
1.38473
1.514109
1.514109
1.696552
1.819931
1.989061
1.97406
1.999561
1.970685
1.842619
1.889308
1.740616
1.740616
1.590049
1.513921
1.372729
1.395043
1.410231
1.508859
1.369354
1.506421
1.708177
1.708177
1.822368
2.010999
1.976873
1.981561
1.985123
1.920059
1.881245
1.734615
1.734615
1.588736
1.516359
1.367479
1.402543
1.391292
1.490483
1.396355
1.462357
1.664488
1.664488
1.79968
1.980998
1.954935
1.994311
1.936747
1.945559
1.884058
1.703864
1.587423
1.587423
1.506234
1.359416
1.412106
1.380605
1.48467
1.424481
1.45617
1.639925
1.805118
1.805118
1.970873
1.968435
1.986436
1.956622
1.926809
2.009686
1.70724
1.582173
1.505858
1.505858
1.350041
1.400293
1.384167
1.46892
1.438356
1.482795
1.607299
1.784867
1.784867
1.984748
1.97406
1.995623
1.979685
1.887245
2.006499
1.760866
1.57111
1.520484
1.520484
1.358854
1.392605
1.374792
1.467232
1.429919
1.492733
1.593236
1.733865
1.940122
1.940122
1.933559
1.976873
1.987373
1.893808
1.971998
1.824618
1.592111
1.508296
1.361667
1.361667
1.403668
1.380042
1.454482
1.435544
1.47642
1.642363
1.71849
1.896245
1.939559
1.939559
1.983998
1.976873
1.896058
1.965435
1.835868
1.654551
1.499108
1.357729
1.404605
1.404605
1.375917
1.450169
1.440419
1.470045
1.645925
1.773429
1.871682
1.926809
1.926809
1.983436
1.95981
1.901683
1.978185
1.799305
1.684551
1.531922
1.341416
1.383605
1.383605
1.368604
1.422418
1.447169
1.464232
1.608987
1.822181
1.872057
1.907308
1.97181
1.97181
1.965622
1.899433
1.973873
1.820306
1.672739
1.606549
1.351166
1.379667
1.372354
1.372354
1.445482
1.452419
1.453169
1.602611
1.793305
1.958872
1.907308
1.951372
1.945559
1.945559
1.874495
1.982498
1.815618
1.686989
1.585173
1.404043
1.350416
1.367104
1.367104
1.433481
1.450357
1.447732
1.601299
1.763866
1.962247
1.956435
1.925309
1.935997
1.935997
1.876182
1.943122
1.832493
1.693177
1.579736
1.412293
1.361854
1.341791
1.430294
1.430294
1.442669
1.426356
1.582173
1.751116
1.896433
2.015687
1.895495
1.931497
1.861557
1.861557
1.928309
1.819555
1.686614
1.567735
1.419418
1.406855
1.320228
1.400855
1.436481
1.436481
1.432919
1.56361
1.753366
1.854244
1.98231
1.961685
1.890433
1.818243
1.818243
1.936372
1.795367
1.695239
1.565485
1.431231
1.411356
1.347979
1.37648
1.425606
1.425606
1.424668
1.543172
1.732178
1.835681
1.948184
2.001624
1.910496
1.808868
1.917621
1.917621
1.791992
1.682301
1.583486
1.438356
1.40573
1.38323
1.375542
1.419231
1.417918
1.417918
1.567923
1.73124
1.827431
1.956997
1.96881
2.025249
1.784867
1.913683
1.808118
1.808118
1.689239
1.582923
1.453357
1.413793
1.38548
1.428981
1.40498
1.409855
1.409855
1.562673
1.743428
1.829868
1.984748
1.949685
2.023374
1.859494
1.881245
1.80718
1.80718
1.684364
1.584236
1.465545
1.421856
1.389042
1.432356
1.413793
1.375542
1.55536
1.55536
1.742116
1.818431
1.974435
1.936747
1.986436
1.930184
1.87862
1.79593
1.684551
1.684551
1.581423
1.46592
1.415481
1.385105
1.429544
1.476233
1.362417
1.544297
1.72899
1.72899
1.808118
1.980623
1.947247
1.976123
1.913121
1.947059
1.783554
1.680614
1.576361
1.576361
1.451669
1.416418
1.398418
1.413231
1.473045
1.400293
1.508296
1.709115
1.709115
1.803618
1.952684
1.945184
1.973873
1.870745
1.97631
1.80868
1.661863
1.560048
1.560048
1.446419
1.416981
1.391667
1.399918
1.466857
1.416231
1.500796
1.675176
1.787117
1.787117
1.95606
1.928121
1.989811
1.890433
1.931871
1.900745
1.654926
1.55386
1.444169
1.444169
1.408168
1.399168
1.394668
1.475483
1.407418
1.561735
1.650988
1.777929
1.957747
1.957747
1.929996
1.996561
1.89137
1.920996
1.927559
1.747928
1.530609
1.432169
1.432169
1.405543
1.388292
1.39523
1.466857
1.402543
1.562485
1.689239
1.747553
1.932059
1.932059
1.939184
1.970123
1.906746
1.911433
1.876182
1.782992
1.552172
1.416231
1.397105
1.397105
1.389792
1.376104
1.47417
1.411356
1.543172
1.745491
1.740616
1.916683
1.933746
1.933746
1.966747
1.912746
1.921184
1.890995
1.764991
1.615549
1.396168
1.370854
1.382105
1.382105
1.382667
1.46967
1.409668
1.516546
1.712677
1.794617
1.88387
1.917434
1.917434
1.958685
1.88387
1.916308
1.888933
1.736866
1.618737
1.453732
1.347791
1.379292
1.379292
1.374792
1.470607
1.417918
1.518796
1.668801
1.817868
1.89062
1.874307
1.95531
1.95531
1.865119
1.888933
1.88312
1.746616
1.600549
1.489545
1.338603
1.350416
1.372917
1.372917
1.457107
1.402355
1.498921
1.6523
1.785054
1.988873
1.855182
1.924746
1.883307
1.883307
1.87262
1.906371
1.764054
1.597924
1.495171
1.384355
1.329416
1.349291
1.46667
1.46667
1.401605
1.499858
1.652863
1.779242
1.990186
1.925496
1.905621
1.867557
1.867557
1.881807
1.907308
1.767617
1.611987
1.503796
1.398605
1.361104
1.341228
1.436106
1.436106
1.403105
1.48842
1.6433
1.78918
1.927559
1.999186
1.907121
1.857807
1.875057
1.875057
1.900933
1.759929
1.616112
1.504733
1.379292
1.400105
1.321728
1.433106
1.392417
1.392417
1.495921
1.625862
1.767054
1.906371
1.943122
2.000124
1.846556
1.853494
1.902058
1.902058
1.770429
1.622112
1.530234
1.387917
1.394105
1.372729
1.406293
1.393917
1.393917
1.505296
1.631675
1.766679
1.916121
1.926434
2.024687
1.903183
1.809618
1.903183
1.903183
1.755429
1.614799
1.554798
1.39373
1.399168
1.374604
1.418668
1.373104
1.485983
1.485983
1.640863
1.759741
1.916683
1.948559
1.983436
1.991873
1.831556
1.894558
1.767054
1.767054
1.631675
1.578236
1.393543
1.414168
1.373479
1.466295
1.359416
1.471357
1.629987
1.629987
1.754304
1.899245
1.922871
1.951184
1.95906
1.911808
1.872245
1.742116
1.612549
1.612549
1.54936
1.390355
1.407043
1.373104
1.46967
1.39673
1.441356
1.608799
1.608799
1.768366
1.905996
1.939747
1.957747
1.937497
1.934684
1.907496
1.727303
1.608237
1.608237
1.547672
1.38323
1.411168
1.37948
1.452794
1.443232
1.434606
1.577111
1.768554
1.768554
1.916496
1.946309
1.960372
1.962435
1.903183
2.008374
1.717927
1.603736
1.546735
1.546735
1.377792
1.413981
1.382855
1.445107
1.430294
1.478108
1.54711
1.741553
1.911058
1.911058
1.931871
1.979123
1.959247
1.866619
1.996373
1.787304
1.592299
1.539235
1.539235
1.382292
1.416418
1.39073
1.449607
1.445857
1.476983
1.578423
1.711927
1.89362
1.89362
1.911996
1.949497
1.95981
1.87037
1.956247
1.843369
1.606174
1.282914
1.365604
1.374042
1.374042
1.450357
1.46067
1.454669
1.591549
1.776617
1.942184
1.885745
1.917996
1.935247
1.935247
1.858557
1.949122
1.81393
1.669926
1.568673
1.404793
1.353979
1.355479
1.437606
1.437606
1.440794
1.429919
1.593049
1.759741
1.918559
1.975373
1.89587
1.922121
1.853307
1.853307
1.930559
1.81243
1.683989
1.581611
1.419606
1.385855
1.329416
1.430294
1.430294
1.439481
1.423731
1.56661
1.755054
1.877495
2.018124
1.922121
1.905808
1.842806
1.842806
1.937122
1.815243
1.692427
1.573923
1.426731
1.409105
1.327916
1.394105
1.440419
1.440419
1.438356
1.571486
1.740428
1.853307
1.968248
2.010436
1.876557
1.815243
1.930184
1.930184
1.793305
1.697677
1.575611
1.427856
1.401418
1.38248
1.380792
1.431044
1.433856
1.433856
1.569235
1.727678
1.848431
1.953247
1.993561
1.966373
1.79968
1.913121
1.913121
1.801742
1.676301
1.584048
1.440606
1.418293
1.388667
1.409293
1.409293
1.425043
1.425043
1.573923
1.72524
1.833806
1.958685
1.933559
2.021312
1.804555
1.878432
1.781679
1.781679
1.673114
1.574673
1.444169
1.412856
1.377417
1.432169
1.402543
1.385105
1.546922
1.546922
1.735178
1.814118
1.973123
1.925684
1.982873
1.88837
1.855744
1.779429
1.669738
1.669738
1.565298
1.453919
1.411918
1.374042
1.430106
1.450544
1.367667
1.530797
1.530797
1.714927
1.788242
1.949497
1.928684
1.953247
1.895308
1.905808
1.774179
1.677801
1.677801
1.560985
1.452607
1.428794
1.387542
1.415106
1.459545
1.369917
1.504546
1.698802
1.698802
1.790117
1.935809
1.928496
1.968248
1.866432
1.982498
1.786742
1.658863
1.572986
1.572986
1.449607
1.420356
1.389417
1.412106
1.472482
1.411731
1.493671
1.684926
1.800617
1.800617
1.944434
1.942559
1.972373
1.866807
1.952122
1.87262
1.648363
1.551797
1.551797
1.439106
1.415106
1.390918
1.397293
1.47417
1.40798
1.522734
1.645175
1.771554
1.771554
1.949685
1.917434
1.981748
1.875245
1.911808
1.900371
1.686802
1.530609
1.421668
1.421668
1.406293
1.393917
1.406855
1.463857
1.404418
1.56136
1.654176
1.756179
1.933371
1.933371
1.920996
1.96131
1.888558
1.903933
1.885182
1.755991
1.522359
1.411731
1.40498
1.40498
1.395605
1.385667
1.470982
1.420168
1.560985
1.713052
1.73574
1.922684
1.930184
1.930184
1.96131
1.904496
1.908996
1.869807
1.770054
1.593424
1.405355
1.39373
1.39373
1.393917
1.393355
1.490858
1.421481
1.536234
1.733678
1.767991
1.900933
1.921746
1.921746
1.964497
1.903746
1.908808
1.887245
1.746241
1.623425
1.412293
1.362417
1.385292
1.385292
1.38548
1.464982
1.424856
1.530609
1.688676
1.836994
1.882557
1.894183
1.957935
1.957935
1.890245
1.888933
1.894183
1.737615
1.622862
1.473232
1.350416
1.379292
1.385855
1.385855
1.475295
1.424106
1.519921
1.669551
1.830993
1.940122
1.88387
1.946684
1.946684
1.894183
1.89362
1.911808
1.755616
1.606549
1.500233
1.373292
1.353604
1.383417
1.383417
1.48017
1.421668
1.515609
1.6538
1.786742
1.992998
1.870745
1.924371
1.878995
1.878995
1.879745
1.895308
1.764804
1.610112
1.508671
1.406106
1.346291
1.37798
1.470982
1.470982
1.423731
1.501171
1.6478
1.768554
1.952684
1.954935
1.88987
1.860432
1.869807
1.869807
1.891183
1.759929
1.631675
1.512046
1.419418
1.406293
1.339541
1.455607
1.455607
1.425981
1.510171
1.649863
1.779242
1.908621
1.973498
1.941247
1.849181
1.869057
1.869057
1.887058
1.770992
1.6463
1.541109
1.415856
1.410606
1.354166
1.446419
1.424481
1.424481
1.519921
1.64105
1.767241
1.916121
1.932997
2.022249
1.861744
1.852744
1.902058
1.902058
1.759554
1.639738
1.55536
1.408168
1.419981
1.396918
1.422043
1.414731
1.520296
1.520296
1.631675
1.768179
1.905808
1.903558
2.001249
1.918934
1.808868
1.893245
1.893245
1.754866
1.62305
1.561548
1.415293
1.418668
1.399168
1.459357
1.389042
1.504358
1.504358
1.64405
1.755991
1.916496
1.928121
1.95381
1.990748
1.824056
1.865307
1.746991
1.746991
1.630175
1.557235
1.402355
1.427481
1.38623
1.48542
1.391667
1.478858
1.633925
1.633925
1.761054
1.901495
1.935622
1.954747
1.951747
1.915934
1.859494
1.733303
1.623987
1.623987
1.55836
1.40498
1.421481
1.395793
1.478295
1.440231
1.446982
1.605049
1.758429
1.758429
1.889308
1.930371
1.949497
1.926621
1.922871
1.922871
1.71399
1.623612
1.623612
1.562485
1.39448
1.437794
1.398605
1.469857
1.46892
1.474545
1.593986
1.753741
1.753741
1.918371
1.927184
1.956997
1.960372
1.892683
2.014187
1.72899
1.624549
1.569048
1.569048
1.406855
1.449419
1.399168
1.471732
1.469107
1.509984
1.566423
1.742866
1.893808
1.893808
1.917058
1.942372
1.959622
1.87787
1.965435
1.815055
1.594361
1.536984
1.403105
1.403105
1.418106
1.395793
1.456919
1.450544
1.506796
1.605236
1.702927
1.867745
1.867745
1.907683
1.934684
1.939934
1.859119
1.925496
1.829868
1.63655
1.512046
1.384167
1.384167
1.411918
1.394293
1.443044
1.475857
1.467982
1.609549
1.698052
1.833806
1.903558
1.903558
1.927746
1.938434
1.860619
1.927746
1.808868
1.713427
1.517296
1.375729
1.422981
1.422981
1.385667
1.434044
1.463295
1.458795
1.599049
1.782992
1.804368
1.894745
1.924746
1.924746
1.929809
1.869807
1.928309
1.810555
1.702739
1.583111
1.375542
1.414356
1.414356
1.386792
1.442669
1.485608
1.453357
1.583111
1.79293
1.854807
1.87337
1.926996
1.926996
1.937122
1.846556
1.932621
1.812805
1.685301
1.607674
1.377792
1.389417
1.380605
1.380605
1.452982
1.484295
1.459357
1.584798
1.758054
1.900371
1.879745
1.905433
1.934872
1.934872
1.839619
1.932246
1.827243
1.699552
1.602237
1.440981
1.366354
1.368792
1.452982
1.452982
1.485795
1.447919
1.590236
1.744366
1.878807
1.97031
1.875995
1.911058
1.911058
1.835494
1.906558
1.818431
1.704239
1.592111
1.459169
1.403105
1.349104
1.430856
1.430856
1.469482
1.429731
1.575048
1.744553
1.841306
2.019437
1.899995
1.907871
1.849556
1.849556
1.918184
1.823681
1.711927
1.597924
1.456544
1.435919
1.346854
1.409855
1.463295
1.463295
1.427481
1.571298
1.738928
1.818806
1.985311
1.986248
1.893058
1.830618
1.926434
1.926434
1.818618
1.744928
1.605049
1.47192
1.439481
1.389417
1.388292
1.46292
1.437981
1.437981
1.57186
1.734428
1.815618
1.961685
1.992436
1.96806
1.80493
1.89512
1.89512
1.824243
1.720365
1.623987
1.477733
1.443044
1.415293
1.403855
1.434981
1.424668
1.424668
1.581611
1.709865
1.810743
1.957747
1.933746
2.031437
1.80718
1.881807
1.80793
1.80793
1.706865
1.604299
1.475857
1.436106
1.404418
1.450544
1.441544
1.421481
1.566423
1.566423
1.724303
1.809055
1.95681
1.933934
2.003124
1.898683
1.853682
1.80343
1.705364
1.705364
1.601111
1.500046
1.443419
1.40498
1.430106
1.478108
1.384355
1.54561
1.54561
1.71774
1.780179
1.957935
1.930184
1.958685
1.926059
1.879932
1.79218
1.704239
1.704239
1.591924
1.493671
1.441731
1.31704
1.474732
1.437794
1.561923
1.658301
1.766866
1.936372
1.936372
1.914808
1.971435
1.880307
1.894933
1.893433
1.72599
1.542797
1.451107
1.451107
1.437794
1.409293
1.406293
1.497046
1.442669
1.588361
1.681364
1.735365
1.919496
1.919496
1.916683
1.942747
1.882745
1.890808
1.860244
1.778867
1.554798
1.439669
1.406855
1.406855
1.410043
1.404605
1.489358
1.433294
1.55161
1.724678
1.702927
1.892495
1.897183
1.897183
1.941059
1.883495
1.88987
1.863244
1.773054
1.626612
1.431606
1.399168
1.418481
1.418481
1.402168
1.490296
1.445857
1.542985
1.71024
1.775304
1.853869
1.892683
1.892683
1.939934
1.875432
1.87712
1.881807
1.734615
1.637862
1.452419
1.369354
1.40498
1.40498
1.402168
1.48392
1.441169
1.529297
1.652863
1.80268
1.856119
1.869807
1.933746
1.933746
1.874682
1.867557
1.887245
1.750178
1.623612
1.522171
1.361854
1.38248
1.401605
1.401605
1.482795
1.442669
1.508859
1.645363
1.797242
1.926621
1.834931
1.921371
1.87487
1.87487
1.860619
1.895683
1.751116
1.616112
1.533422
1.390355
1.373104
1.386417
1.386417
1.48242
1.439856
1.530984
1.637112
1.766491
1.96506
1.859869
1.897933
1.848994
1.848994
1.860619
1.890058
1.752241
1.631487
1.519546
1.417918
1.363729
1.367104
1.476608
1.476608
1.429544
1.492358
1.649113
1.755804
1.905808
1.953997
1.871307
1.848806
1.855932
1.855932
1.886495
1.768929
1.634862
1.546922
1.429169
1.427481
1.345729
1.470607
1.436669
1.436669
1.506608
1.623987
1.753179
1.890058
1.937122
1.95231
1.828181
1.842056
1.842056
1.894933
1.756929
1.641988
1.553297
1.418668
1.426731
1.368229
1.438169
1.415668
1.415668
1.507546
1.617799
1.752428
1.883495
1.907496
1.998061
1.842244
1.81543
1.89212
1.89212
1.749803
1.6403
1.576923
1.418106
1.425981
1.396168
1.429356
1.408918
1.506796
1.506796
1.625487
1.746241
1.88687
1.908621
1.966935
1.944997
1.799492
1.879557
1.761991
1.761991
1.6373
1.578423
1.416981
1.435731
1.395418
1.475108
1.386042
1.500421
1.500421
1.637675
1.752991
1.884433
1.905621
1.932997
1.968998
1.855744
1.858182
1.750178
1.750178
1.630362
1.569985
1.413418
1.429731
1.398793
1.488045
1.418481
1.470795
1.621924
1.621924
1.758991
1.881245
1.914058
1.922684
1.929434
1.906746
1.865307
1.738928
1.635425
1.635425
1.57036
1.421481
1.444544
1.40723
1.490296
1.46517
1.450357
1.593611
1.755804
1.755804
1.878245
1.918184
1.945559
1.922496
1.896808
1.941622
1.717552
1.616299
1.616299
1.56361
1.405168
1.441544
1.405168
1.472107
1.466857
1.473607
1.55386
1.733115
1.733115
1.880682
1.893808
1.941434
1.924934
1.852369
1.980435
1.746241
1.607299
1.562298
1.562298
1.411356
1.437419
1.407043
1.462732
1.460857
1.491983
1.561173
1.716427
1.87337
1.87337
1.901683
1.935622
1.936184
1.855557
1.944809
1.833431
1.596049
1.55011
1.406855
1.406855
1.427669
1.406106
1.460857
1.459169
1.488233
1.617424
1.688489
1.836619
1.899433
1.899433
1.911058
1.933371
1.858182
1.918746
1.832493
1.659613
1.516546
1.387167
1.387167
1.414356
1.394668
1.447169
1.467045
1.478483
1.6223
1.72074
1.804555
1.905808
1.905808
1.917434
1.933184
1.847119
1.937872
1.815618
1.715677
1.531734
1.390167
1.418668
1.418668
1.39898
1.451669
1.484108
1.461607
1.595861
1.773992
1.791617
1.894183
1.908433
1.908433
1.918371
1.864744
1.906183
1.802118
1.696177
1.587986
1.371979
1.401793
1.390918
1.390918
1.427481
1.481483
1.452982
1.576173
1.769866
1.835306
1.863807
1.894558
1.894558
1.931871
1.836619
1.910871
1.808305
1.688676
1.596799
1.408918
1.387167
1.38023
1.38023
1.448107
1.481483
1.452794
1.580298
1.740616
1.875245
1.897745
1.87412
1.912558
1.912558
1.847869
1.907683
1.827993
1.705552
1.596424
1.456544
1.382292
1.365792
1.433669
1.433669
1.472857
1.431794
1.576173
1.740616
1.843744
1.979873
1.860807
1.910308
1.846369
1.846369
1.908996
1.827056
1.713427
1.584611
1.463857
1.412481
1.344791
1.431231
1.479233
1.479233
1.440419
1.585736
1.745866
1.818806
2.007999
1.905996
1.89587
1.838306
1.838306
1.907496
1.836994
1.707427
1.601486
1.457107
1.436481
1.369729
1.403855
1.465357
1.465357
1.444919
1.574486
1.727865
1.81318
1.958497
1.992061
1.896433
1.815805
1.893433
1.893433
1.806055
1.722428
1.613674
1.47042
1.446044
1.426169
1.382292
1.468545
1.438544
1.438544
1.576736
1.71774
1.80043
1.955872
1.965622
1.978373
1.796305
1.875057
1.823306
1.823306
1.720178
1.616112
1.48692
1.435731
1.422981
1.425793
1.438919
1.425606
1.425606
1.577673
1.710802
1.799867
1.948559
1.918934
2.002561
1.843744
1.857619
1.81918
1.81918
1.71999
1.603174
1.509421
1.448857
1.428981
1.450169
1.445482
1.410043
1.567923
1.567923
1.72899
1.794055
1.958685
1.928871
1.976873
1.924934
1.840931
1.818993
1.717552
1.717552
1.608237
1.514296
1.46367
1.423543
1.442482
1.522547
1.382105
1.551047
1.725053
1.725053
1.786367
1.954372
1.927184
1.957747
1.921371
1.911433
1.777929
1.705364
1.705364
1.594924
1.500983
1.449232
1.439106
1.421106
1.514671
1.423168
1.504921
1.684551
1.684551
1.788805
1.932246
1.928121
1.95306
1.87787
1.936747
1.816368
1.691864
1.586861
1.586861
1.494233
1.446044
1.429356
1.421481
1.493296
1.439856
1.491233
1.651363
1.763679
1.763679
1.929246
1.896245
1.943309
1.88012
1.898495
1.898683
1.674239
1.56586
1.488233
1.488233
1.437231
1.437794
1.417168
1.501733
1.450732
1.540359
1.632425
1.745866
1.745866
1.920246
1.902808
1.95381
1.878057
1.870182
1.918746
1.701614
1.54936
1.47642
1.47642
1.426919
1.420918
1.405543
1.486545
1.434794
1.54336
1.652863
1.720927
1.890995
1.890995
1.899058
1.923246
1.88387
1.87637
1.87262
1.775117
1.55761
1.477357
1.414356
1.414356
1.421668
1.396168
1.497796
1.443607
1.536797
1.708365
1.70649
1.878432
1.887245
1.887245
1.922121
1.88987
1.857619
1.866057
1.762741
1.614049
1.454482
1.391855
1.412668
1.412668
1.40048
1.492358
1.448857
1.507359
1.675551
1.751303
1.835306
1.87037
1.87037
1.914808
1.860057
1.838681
1.887433
1.740428
1.648925
1.494046
1.373479
1.412106
1.412106
1.397668
1.473982
1.454107
1.508296
1.6388
1.79518
1.827243
1.843181
1.900371
1.900371
1.857994
1.835306
1.880495
1.745491
1.631862
1.539797
1.374604
1.398043
1.404605
1.404605
1.492546
1.453544
1.509984
1.633175
1.787867
1.922684
1.832306
1.902808
1.872995
1.872995
1.839244
1.915746
1.757866
1.631862
1.573735
1.418106
1.39223
1.399355
1.399355
1.490483
1.46367
1.514484
1.6403
1.770429
1.961685
1.878432
1.887058
1.888558
1.888558
1.837368
1.909933
1.765741
1.654363
1.55911
1.441356
1.387355
1.373667
1.495921
1.495921
1.452607
1.496296
1.63205
1.775867
1.905433
1.960185
1.87787
1.872432
1.846931
1.846931
1.922309
1.770617
1.667488
1.576548
1.432356
1.436481
1.346666
1.461982
1.455044
1.558173
1.558173
1.694864
1.892683
1.912746
1.941997
1.957747
1.902808
1.854619
1.750741
1.644238
1.644238
1.584423
1.427106
1.443044
1.419231
1.488795
1.451107
1.467795
1.619112
1.619112
1.757116
1.880495
1.928684
1.944247
1.927559
1.915558
1.911433
1.725428
1.63805
1.63805
1.589861
1.425043
1.449419
1.413981
1.480545
1.47717
1.451294
1.573548
1.748116
1.748116
1.88987
1.922309
1.943122
1.946872
1.884807
1.988311
1.740803
1.63205
1.575048
1.575048
1.415856
1.456732
1.403105
1.460482
1.464045
1.508671
1.550672
1.72824
1.895683
1.895683
1.908246
1.931497
1.95456
1.862307
1.987373
1.81243
1.617049
1.574298
1.574298
1.418481
1.449982
1.415668
1.468545
1.470045
1.515234
1.598299
1.724865
1.887058
1.887058
1.918559
1.939747
1.954185
1.866994
1.939372
1.860807
1.63205
1.548422
1.419606
1.419606
1.432919
1.40573
1.45992
1.477545
1.485233
1.6298
1.70499
1.834743
1.920434
1.920434
1.936184
1.958872
1.878057
1.936184
1.842431
1.71924
1.529297
1.395043
1.443794
1.443794
1.409668
1.467045
1.485045
1.470982
1.6238
1.768366
1.806805
1.905058
1.905058
1.943309
1.929809
1.867932
1.935059
1.815618
1.727865
1.56286
1.390355
1.416231
1.416231
1.408543
1.452419
1.503608
1.469482
1.594736
1.809618
1.830806
1.888183
1.919309
1.919309
1.926621
1.845056
1.933184
1.820306
1.691302
1.613862
1.383417
1.398793
1.398418
1.398418
1.455232
1.509421
1.46667
1.600549
1.780179
1.895308
1.877307
1.911058
1.946497
1.946497
1.866807
1.920434
1.834556
1.709115
1.609549
1.455794
1.389042
1.39148
1.454669
1.454669
1.503796
1.458795
1.605799
1.754866
1.88162
1.953622
1.88762
1.922871
1.922871
1.851807
1.920621
1.841119
1.72374
1.595111
1.455982
1.411918
1.370667
1.443982
1.443982
1.500233
1.46292
1.611424
1.744741
1.845056
2.016437
1.87262
1.910683
1.854057
1.854057
1.924746
1.840744
1.728053
1.611612
1.46892
1.464607
1.372354
1.444357
1.503421
1.503421
1.461232
1.599611
1.758429
1.832868
2.007249
1.976123
1.906933
1.851994
1.930934
1.930934
1.833806
1.747366
1.617424
1.47642
1.464795
1.416981
1.407418
1.485045
1.485045
1.473045
1.609737
1.762554
1.835681
1.98081
2.006499
1.936372
1.836244
1.904121
1.904121
1.833431
1.73799
1.632425
1.515609
1.471732
1.438356
1.409855
1.484108
1.463107
1.463107
1.602237
1.741741
1.842994
1.984373
1.970685
2.025999
1.824618
1.907308
1.849369
1.849369
1.742116
1.6403
1.516171
1.457482
1.453919
1.46817
1.46517
1.453357
1.612362
1.612362
1.757116
1.833431
1.979123
1.96131
2.026749
1.896058
1.867932
1.829493
1.829493
1.740428
1.630925
1.531172
1.457482
1.431981
1.468732
1.482795
1.415481
1.584236
1.584236
1.758991
1.819931
1.989998
1.956247
1.97931
1.95306
1.870745
1.822931
1.736115
1.736115
1.626425
1.525734
1.464045
1.451107
1.453169
1.536422
1.415856
1.556672
1.741366
1.741366
1.805868
1.979873
1.953997
1.980623
1.931121
1.971623
1.813368
1.726178
1.622862
1.622862
1.506984
1.46142
1.449419
1.441169
1.540922
1.468732
1.531172
1.708927
1.708927
1.815055
1.973873
1.96656
1.991498
1.917246
1.990186
1.879745
1.718302
1.610862
1.610862
1.503796
1.454294
1.457107
1.449794
1.518234
1.472857
1.521796
1.674239
1.801367
1.801367
1.965247
1.942934
1.991311
1.921559
1.930371
1.97031
1.711927
1.599799
1.501733
1.501733
1.450357
1.452982
1.432169
1.510359
1.460107
1.590236
1.656988
1.79443
1.95306
1.95306
1.939559
1.996373
1.934684
1.913683
1.947622
1.811493
1.582923
1.500983
1.447169
1.447169
1.453544
1.430294
1.528359
1.469107
1.579736
1.72599
1.755054
1.937122
1.937122
1.947997
1.988311
1.932997
1.909933
1.923246
1.839244
1.621924
1.482795
1.425231
1.425231
1.431044
1.419981
1.524796
1.460482
1.548422
1.744366
1.757491
1.911808
1.923996
1.923996
1.980248
1.931309
1.905246
1.931121
1.79743
1.670864
1.477357
1.399355
1.432544
1.432544
1.415106
1.517859
1.463857
1.546172
1.706677
1.835118
1.891558
1.919496
1.97856
1.97856
1.923434
1.906183
1.943497
1.79443
1.683239
1.553672
1.394105
1.432356
1.432356
1.417356
1.509046
1.48992
1.55011
1.696552
1.859307
1.915934
1.89512
1.969935
1.969935
1.914058
1.88537
1.948372
1.786555
1.6538
1.581423
1.380042
1.40348
1.413043
1.413043
1.509984
1.457482
1.53811
1.684926
1.806805
1.996561
1.87712
1.934309
1.902058
1.902058
1.862682
1.943872
1.793305
1.653988
1.57036
1.420918
1.368604
1.387542
1.488233
1.488233
1.457294
1.520484
1.652488
1.784305
