1.455232
1.6493
1.798742
1.939184
2.000686
2.036312
2.04325
2.04325
1.992248
1.884807
1.753741
1.583486
1.445482
1.32454
1.285164
1.274289
1.285914
1.285914
1.331103
1.453169
1.626612
1.797805
1.918934
1.982123
2.022999
2.04025
1.997123
1.997123
1.88912
1.756554
1.590986
1.449419
1.326603
1.281789
1.272601
1.280102
1.280102
1.319665
1.426544
1.603924
1.761054
1.89287
1.961122
1.991311
2.010999
1.968248
1.968248
1.864932
1.738741
1.575611
1.419793
1.312165
1.274101
1.266601
1.272039
1.297165
1.297165
1.375167
1.54636
1.712302
1.853494
1.913683
1.947997
1.963935
1.928309
1.827806
1.827806
1.693927
1.522734
1.360916
1.288164
1.265664
1.261726
1.263789
1.274664
1.31179
1.31179
1.470982
1.637487
1.774742
1.843181
1.88387
1.895683
1.873745
1.777929
1.777929
1.644238
1.487483
1.338041
1.276164
1.261351
1.260226
1.262101
1.268476
1.296227
1.296227
1.436856
1.609549
1.751491
1.832868
1.875807
1.898495
1.88462
1.791805
1.674614
1.674614
1.529484
1.361479
1.284602
1.265101
1.260976
1.263039
1.272601
1.31479
1.465732
1.465732
1.63655
1.798742
1.88237
1.935622
1.96506
1.950247
1.872057
1.757679
1.603362
1.603362
1.448857
1.331291
1.279164
1.270164
1.276539
1.302227
1.39298
1.55536
1.55536
1.73724
1.901871
1.991873
2.043062
2.071188
2.06725
1.990186
1.863432
1.729178
1.729178
1.571486
1.438919
1.342541
1.310665
1.313102
1.374417
1.480545
1.631487
1.814493
1.814493
1.970123
2.063688
2.121627
2.146565
2.144503
2.065751
1.941809
1.793492
1.627175
1.627175
1.496108
1.39223
1.338791
1.341041
1.407043
1.509233
1.657738
1.986998
2.082251
2.082251
2.139065
2.160254
2.155753
2.084689
1.966747
1.809243
1.64255
1.500796
1.383417
1.383417
1.334666
1.335041
1.387355
1.484108
1.6298
1.804555
1.955122
2.060313
2.109064
2.109064
2.140003
2.138315
2.061813
1.935247
1.795555
1.623237
1.485233
1.362042
1.315353
1.315353
1.311228
1.354916
1.452982
1.594361
1.772492
1.933371
2.03425
2.088439
2.113564
2.113564
2.11094
2.040812
1.924184
1.781492
1.616487
1.472482
1.352666
1.31104
1.31104
1.304477
1.337853
1.415106
1.561548
1.741366
1.915746
2.009874
2.064626
2.091814
2.091814
2.089939
2.033499
1.914808
1.779054
1.605049
1.46217
1.343666
1.297727
1.287602
1.287602
1.317978
1.406855
1.543172
1.721678
1.88162
1.989436
2.055063
2.089939
2.089939
2.089939
2.02825
1.920996
1.789929
1.619112
1.473232
1.349479
1.302415
1.291914
1.325853
1.325853
1.410043
1.540172
1.71999
1.884245
2.007061
2.063313
2.099314
2.106439
2.052438
2.052438
1.942372
1.811868
1.641237
1.495546
1.369354
1.310103
1.301477
1.328478
1.328478
1.412481
1.550297
1.733303
1.893808
2.023374
2.084126
2.112814
2.131565
2.077188
2.077188
1.964497
1.830431
1.663926
1.524234
1.393917
1.327353
1.301852
1.332978
1.406855
1.406855
1.536797
1.721303
1.887058
2.015499
2.081876
2.126503
2.140003
2.096314
1.991686
1.991686
1.853682
1.689052
1.535109
1.395605
1.326791
1.30204
1.323603
1.402168
1.519546
1.519546
1.699177
1.87037
2.001811
2.062751
2.101189
2.103252
2.065751
1.966747
1.966747
1.830243
1.666926
1.509609
1.378167
1.311978
1.292477
1.310477
1.375355
1.495921
1.495921
1.672176
1.858182
1.990748
2.061438
2.110377
2.12819
2.092001
1.994873
1.869807
1.869807
1.712865
1.56211
1.429356
1.345166
1.31779
1.333166
1.408543
1.529859
1.703677
1.703677
1.872057
2.021874
2.074001
2.123127
2.136253
2.11394
2.012311
1.893245
1.731053
1.731053
1.564923
1.431044
1.349854
1.319103
1.336916
1.408543
1.521046
1.685301
1.685301
1.856494
2.001249
2.083938
2.130815
2.140565
2.121065
2.020749
1.896245
1.734053
1.734053
1.569985
1.446044
1.357541
1.320978
1.340666
1.40648
1.515609
1.686239
1.850494
1.850494
2.016999
2.084876
2.12744
2.149191
2.129315
2.037625
1.912746
1.757116
1.588361
1.588361
1.446794
1.353791
1.318353
1.330728
1.39448
1.504733
1.666738
1.838119
2.002749
2.002749
2.073251
2.126315
2.142628
2.134565
2.039687
1.916496
1.764991
1.604674
1.604674
1.472482
1.370292
1.329228
1.339728
1.398043
1.494233
1.643675
1.829681
1.990748
1.990748
2.080376
2.148816
2.159691
2.13869
2.023562
1.863244
1.663926
1.436669
1.290414
1.290414
1.260788
1.258538
1.257788
1.258538
1.260226
1.274289
1.37423
1.505108
1.6283
1.6283
1.836056
2.161941
2.28757
2.20413
2.040812
1.882183
1.757116
1.72449
1.679301
1.679301
1.755616
1.87637
1.955685
2.050562
2.158191
2.338009
2.471325
2.553078
2.571828
2.571828
2.557391
2.518202
2.401198
2.251569
2.083376
1.869244
1.70499
1.572423
1.572423
1.494233
1.46217
1.488233
1.568673
1.686614
1.836619
1.97556
2.061625
2.102314
2.102314
2.128002
2.119377
2.043625
1.921934
1.773429
1.596986
1.456357
1.334103
1.297352
1.297352
1.293414
1.333541
1.421668
1.562485
1.731053
1.88987
1.998999
2.04925
2.074376
2.074376
2.074938
2.007249
1.88612
1.746616
1.578611
1.440419
1.319665
1.292477
1.283477
1.283477
1.30804
1.388105
1.521421
1.709302
1.875057
1.975185
2.031812
2.061625
2.061625
2.071376
2.005186
1.893245
1.752616
1.580298
1.446794
1.32304
1.285539
1.279914
1.279914
1.301665
1.386417
1.515796
1.705739
1.858557
1.975935
2.042125
2.063313
2.071938
2.071938
2.016062
1.903746
1.761054
1.587986
1.444169
1.319665
1.284039
1.276914
1.293414
1.293414
1.355479
1.474732
1.661863
1.828743
1.942747
2.000499
2.0425
2.034812
1.983811
1.983811
1.872432
1.743991
1.564548
1.411168
1.307852
1.273539
1.270539
1.285914
1.285914
1.332041
1.446607
1.627737
1.800242
1.940309
1.994123
2.019437
2.028624
1.979498
1.979498
1.860994
1.726178
1.570735
1.401793
1.300915
1.274289
1.267351
1.277101
1.31929
1.31929
1.424293
1.598299
1.769491
1.906933
1.957372
1.995998
2.024499
1.953997
1.845619
1.845619
1.712302
1.533422
1.382105
1.291914
1.268476
1.264726
1.270164
1.287227
1.363354
1.363354
1.541672
1.698427
1.829681
1.899058
1.931121
1.939934
1.899245
1.78693
1.78693
1.649863
1.479233
1.329978
1.273351
1.262476
1.260038
1.262101
1.272226
1.308602
1.308602
1.446419
1.629237
1.775304
1.835118
1.88612
1.889683
1.851619
1.754491
1.623612
1.623612
1.449232
1.316853
1.270351
1.260976
1.259663
1.262101
1.269601
1.30654
1.46142
1.46142
1.635612
1.79143
1.871495
1.906183
1.931497
1.904121
1.805305
1.674239
1.522734
1.522734
1.367854
1.290414
1.267351
1.263414
1.267539
1.291914
1.370104
1.537547
1.726365
1.726365
1.894745
1.973123
2.029374
2.054125
2.0395
1.954372
1.821056
1.674426
1.674426
1.513546
1.386417
1.30729
1.295102
1.310477
1.376292
1.503608
1.678926
1.857244
1.857244
2.015124
2.095001
2.152191
2.170004
2.160441
2.068001
1.943872
1.796492
1.617424
1.617424
1.490108
1.405918
1.353041
1.365979
1.445294
1.553672
1.72374
1.911996
2.061813
2.061813
2.145253
2.20038
2.21463
2.20338
2.115627
1.989623
1.831181
1.659988
1.527609
1.527609
1.411918
1.367292
1.385855
1.439669
1.558735
1.717177
1.89662
2.05525
2.05525
2.150128
2.199442
2.214443
2.199442
2.107939
1.980435
1.824431
1.649113
1.506984
1.506984
1.398418
1.352291
1.349854
1.426169
1.529672
1.679301
1.868682
2.024874
2.124065
2.124065
2.178066
2.188004
2.171316
2.081876
1.949872
1.802305
1.6223
1.493296
1.370479
1.370479
1.320978
1.31854
1.386792
1.490858
1.649675
1.843931
1.994123
2.090501
2.141503
2.141503
2.164191
2.155753
2.075876
1.940309
1.788242
1.613299
1.46667
1.348541
1.348541
1.30729
1.30879
1.355479
1.469482
1.622862
1.822181
1.977435
2.076063
2.136065
2.136065
2.160816
2.153691
2.068001
1.939372
1.79293
1.619299
1.474732
1.347791
1.305602
1.305602
1.30204
1.349666
1.451294
1.602799
1.79368
1.959435
2.067438
2.126127
2.145066
2.145066
2.142815
2.070438
1.938434
1.79668
1.621362
1.47567
1.351729
1.302227
1.297352
1.297352
1.344041
1.449607
1.588923
1.775304
1.948372
2.062751
2.12294
2.152378
2.152378
2.153316
2.091251
1.955122
1.817305
1.63655
1.482983
1.366167
1.314415
1.298852
1.298852
1.337478
1.437606
1.583486
1.774929
1.930184
2.064063
2.124065
2.155191
2.144128
2.144128
2.083376
1.962435
1.817305
1.63655
1.490858
1.365604
1.30354
1.298477
1.340853
1.340853
1.424106
1.557985
1.761616
1.927746
2.058625
2.115814
2.152753
2.153316
2.086751
2.086751
1.971435
1.825556
1.64855
1.500983
1.368604
1.307477
1.294915
1.332603
1.332603
1.412106
1.554985
1.745866
1.906183
2.058625
2.156691
2.158941
2.106627
1.978935
1.839994
1.839994
1.663926
1.512234
1.378542
1.317603
1.296602
1.333916
1.421481
1.552735
1.744178
1.744178
1.923809
2.0575
2.125752
2.156128
2.161566
2.099501
1.975185
1.833618
1.655113
1.655113
1.502858
1.360167
1.297352
1.281977
1.307852
1.38323
1.514296
1.691302
1.863619
1.863619
2.018124
2.083751
2.126503
2.131565
2.081126
1.969935
1.826118
1.654363
1.495546
1.495546
1.358667
1.299227
1.281977
1.298665
1.375167
1.504546
1.690739
1.878245
1.878245
2.020562
2.099501
2.14544
2.148628
2.106627
1.995623
1.840556
1.682489
1.512421
1.512421
1.372729
1.30429
1.288727
1.299977
1.37648
1.506234
1.681926
1.865869
2.013624
2.013624
2.085626
2.136815
2.155566
2.110752
1.999749
1.864369
1.696927
1.526859
1.382855
1.382855
1.30429
1.283102
1.30129
1.38323
1.496858
1.669363
1.852744
1.996748
2.088439
2.088439
2.14244
2.147128
2.122377
2.015687
1.876557
1.714177
1.548047
1.403668
1.403668
1.31179
1.289289
1.300727
1.364854
1.48992
1.658113
1.843744
1.999186
2.083001
2.083001
2.134003
2.152003
2.130627
2.025249
1.888933
1.71699
1.55086
1.412293
1.320978
1.320978
1.288164
1.300727
1.364479
1.489358
1.65155
1.848244
2.003686
2.106252
2.158941
2.158941
2.170004
2.14694
2.027874
1.87337
1.711552
1.54711
1.421481
1.322103
1.294727
1.294727
1.294352
1.334103
1.406293
1.516171
1.6493
1.745866
1.786367
1.802305
1.802305
1.769679
1.708177
1.591174
1.438731
1.315353
1.264539
1.259851
1.258351
1.289102
1.289102
1.431044
1.577673
1.660551
1.814118
2.037437
2.330133
2.470763
2.616455
2.653956
2.653956
2.653956
2.624892
2.568266
2.431762
2.229818
2.05975
1.883307
1.768742
1.72899
1.72899
1.760491
1.838869
1.96881
2.115064
2.247631
2.329009
2.369697
2.366697
2.315883
2.315883
2.194004
2.029187
1.840369
1.639363
1.478483
1.357729
1.30804
1.308602
1.308602
1.349291
1.454107
1.603362
1.801742
1.960372
2.069501
2.12144
2.143378
2.13644
2.13644
2.047937
1.907683
1.763491
1.567923
1.414356
1.300165
1.282164
1.278227
1.30504
1.30504
1.39823
1.544672
1.735365
1.889683
2.021499
2.076063
2.110189
2.099876
2.022062
2.022062
1.894558
1.744178
1.557985
1.409855
1.304852
1.274851
1.274101
1.302415
1.384355
1.384355
1.528172
1.718115
1.889683
2.019437
2.079063
2.103814
2.088251
2.025812
2.025812
1.899621
1.747928
1.577861
1.414918
1.310477
1.278789
1.272789
1.293414
1.375355
1.375355
1.519359
1.71399
1.868119
2.000874
2.071376
2.107002
2.108127
2.031437
1.904121
1.904121
1.748491
1.572048
1.428606
1.306165
1.279914
1.274476
1.288539
1.357729
1.500421
1.500421
1.699177
1.864557
1.995436
2.058625
2.090689
2.087314
2.024499
1.907308
1.754491
1.754491
1.575048
1.427856
1.30729
1.274851
1.270539
1.284602
1.345166
1.475108
1.475108
1.660926
1.850869
1.968623
2.036125
2.075126
2.076438
2.007811
1.891558
1.744928
1.744928
1.56361
1.398418
1.296414
1.268851
1.265289
1.276539
1.312165
1.428044
1.603924
1.603924
1.782242
1.931684
2.001436
2.029374
2.028437
1.970873
1.838306
1.700302
1.524234
1.524234
1.353979
1.275226
1.263976
1.260226
1.263976
1.279352
1.344604
1.521984
1.695052
1.695052
1.828931
1.895308
1.947622
1.949872
1.889308
1.768929
1.635987
1.46067
1.46067
1.314228
1.269601
1.260038
1.258913
1.260601
1.267914
1.309165
1.46367
1.650988
1.650988
1.80343
1.879557
1.917058
1.928684
1.895495
1.777179
1.6328
1.467232
1.314603
1.314603
1.272414
1.261351
1.259663
1.260976
1.271476
1.32154
1.488045
1.674426
1.827806
1.827806
1.913683
1.967873
1.98081
1.943872
1.846369
1.713052
1.548235
1.386417
1.295665
1.295665
1.266976
1.263601
1.269601
1.293602
1.386042
1.569235
1.772679
1.931309
2.019437
2.019437
2.075126
2.094439
2.073251
1.972185
1.832681
1.667488
1.512234
1.371229
1.371229
1.29679
1.280289
1.293789
1.347229
1.484295
1.651738
1.843369
1.998249
2.096501
2.096501
2.152378
2.167754
2.132878
2.03725
1.908058
1.738741
1.562673
1.430294
1.329416
1.329416
1.297165
1.31029
1.377042
1.503608
1.676489
1.862119
2.022624
2.115064
2.170754
2.170754
2.182379
2.165691
2.056938
1.915746
1.755991
1.582361
1.443232
1.330353
1.300727
1.300727
1.309165
1.377792
1.496296
1.659613
1.852182
2.023749
2.115627
2.169441
2.169441
2.183692
2.162128
2.061438
1.934872
1.769304
1.591361
1.440419
1.332041
1.293602
1.293602
1.304102
1.359604
1.469482
1.629987
1.824431
1.989623
2.078314
2.148066
2.160816
2.160816
2.137753
2.049062
1.913308
1.769304
1.583486
1.426356
1.317978
1.285914
1.289289
1.289289
1.332978
1.443794
1.599611
1.793117
1.95606
2.0635
2.120315
2.147691
2.12744
2.12744
2.04475
1.89512
1.743428
1.564548
1.429919
1.309165
1.281789
1.285164
1.285164
1.323978
1.415481
1.571673
1.760491
1.935809
2.045312
2.091626
2.12219
2.117502
2.117502
2.024687
1.89662
1.747553
1.571486
1.431419
1.314603
1.283477
1.280664
1.311228
1.311228
1.40573
1.538672
1.761054
1.920996
2.036875
2.101939
2.12744
2.124253
2.04175
2.04175
1.912558
1.768179
1.587236
1.426731
1.31179
1.281977
1.280477
1.307852
1.405168
1.405168
1.54411
1.736678
1.906558
2.035562
2.101002
2.132878
2.126878
2.05
2.05
1.925684
1.78693
1.595674
1.447357
1.328853
1.286477
1.279164
1.31029
1.395793
1.395793
1.537172
1.734241
1.910871
2.034812
2.094439
2.141128
2.131565
2.0665
1.936747
1.936747
1.79443
1.618174
1.463107
1.337478
1.290414
1.284039
1.30129
1.39148
1.537172
1.537172
1.721678
1.899433
2.034812
2.101939
2.149941
2.144503
2.074938
1.958497
1.81393
1.81393
1.629237
1.470795
1.341416
1.290789
1.281414
1.30279
1.38248
1.518984
1.727115
1.727115
1.891558
2.027874
2.090126
2.135878
2.137753
2.079813
1.95831
1.818243
1.818243
1.636362
1.475295
1.340853
1.291352
1.281602
1.29904
1.378917
1.506984
1.694864
1.694864
1.860994
2.013436
2.084501
2.127252
2.143565
2.091439
1.966935
1.824618
1.647613
1.647613
1.486545
1.364104
1.296977
1.282914
1.297165
1.387542
1.503983
1.696552
1.874307
1.874307
2.019062
2.091251
2.143565
2.138315
2.094626
1.97331
1.827993
1.655301
1.47867
1.47867
1.345729
1.282352
1.275226
1.289102
1.340291
1.46592
1.649675
1.825181
1.825181
1.975185
2.049625
2.094439
2.108502
2.067063
1.951372
1.815243
1.644425
1.479045
1.479045
1.352479
1.290977
1.275226
1.291352
1.347416
1.468545
1.655488
1.835681
1.990186
1.990186
2.071376
2.12369
2.13119
2.098377
1.990748
1.851807
1.673676
1.518046
1.370104
1.370104
1.295852
1.282164
1.291914
1.341791
1.457669
1.643488
1.823868
1.983061
2.067626
2.067626
2.123315
2.12894
2.105127
1.992061
1.861182
1.700864
1.522171
1.381542
1.381542
1.299602
1.278977
1.289852
1.345916
1.455794
1.625862
1.813743
1.973123
2.06125
2.06125
2.124253
2.13044
2.010249
1.866994
1.71174
1.540547
1.393167
1.30429
1.285352
1.288539
1.288539
1.337853
1.461045
1.624925
1.809243
1.968998
2.060875
2.113564
2.118627
2.123877
2.123877
2.018687
1.888183
1.713615
1.540172
1.40423
1.306352
1.281227
1.287602
1.287602
1.336728
1.445857
1.607862
1.806055
1.969185
2.076063
2.120127
2.130627
2.108127
2.108127
2.003686
1.852182
1.709115
1.535672
1.395605
1.302977
1.279352
1.275039
1.289102
1.289102
1.329416
1.417168
1.54861
1.667863
1.731428
1.740053
1.709115
1.674426
1.56211
1.56211
1.440231
1.312165
1.265664
1.261351
1.266601
1.350791
1.456357
1.534172
1.610862
1.610862
1.766117
2.06725
2.319258
2.532265
2.62733
2.653769
2.653956
2.631643
2.631643
2.555703
2.418636
2.197192
2.014561
1.816368
1.707427
1.666738
1.682301
1.761804
1.761804
1.880495
2.012499
2.172254
2.278195
2.293758
2.287757
2.257006
2.143378
1.977998
1.977998
1.79593
1.602424
1.438731
1.326603
1.286852
1.280477
1.306352
1.388667
1.526109
1.526109
1.72149
1.887245
2.005186
2.074188
2.099501
2.092001
2.023374
1.882557
1.734053
1.734053
1.544297
1.391855
1.292852
1.272039
1.269414
1.285914
1.345541
1.479045
1.479045
1.673676
1.844494
1.960747
2.025249
2.060313
2.056375
1.996186
1.869244
1.721678
1.721678
1.54411
1.39673
1.295477
1.271101
1.268851
1.285164
1.338416
1.469482
1.663176
1.663176
1.840744
1.963747
2.03425
2.066875
2.068563
2.005936
1.881057
1.73649
1.565673
1.565673
1.410606
1.29979
1.275226
1.267539
1.281227
1.338603
1.470232
1.652863
1.828743
1.828743
1.974248
2.020937
2.066875
2.082814
2.014936
1.896058
1.752803
1.569985
1.569985
1.415106
1.309352
1.274101
1.269601
1.281977
1.336353
1.449607
1.650425
1.810555
1.810555
1.949685
2.021874
2.065938
2.060875
2.022249
1.89437
1.752428
1.575611
1.414918
1.414918
1.305602
1.274101
1.268476
1.276164
1.321728
1.436294
1.614612
1.79368
1.942559
1.942559
2.006874
2.044562
2.053375
2.000499
1.888933
1.752803
1.572986
1.411543
1.295477
1.295477
1.269414
1.263789
1.271664
1.291727
1.404418
1.559298
1.746803
1.891183
1.891183
1.958497
1.988498
1.991873
1.953997
1.832118
1.697114
1.528734
1.365417
1.282352
1.282352
1.264351
1.260413
1.262664
1.272226
1.318728
1.472482
1.639738
1.796867
1.865494
1.865494
1.909183
1.926059
1.884058
1.778679
1.625487
1.46067
1.31704
1.272226
1.260038
1.260038
1.258726
1.259851
1.263976
1.287602
1.423168
1.597174
1.756929
1.837744
1.88312
1.88312
1.908621
1.875807
1.776617
1.651925
1.489358
1.335791
1.275414
1.262101
1.262101
1.260038
1.260976
1.269226
1.306165
1.442482
1.638425
1.799867
1.887995
1.943122
1.943122
1.956247
1.947434
1.849369
1.727865
1.570923
1.415668
1.30504
1.268476
1.264164
1.264164
1.269414
1.288539
1.378355
1.552735
1.738553
1.908808
2.016999
2.0635
2.085626
2.085626
2.076626
1.98231
1.850119
1.709115
1.526109
1.40498
1.31254
1.286664
1.294165
1.294165
1.344979
1.46817
1.624925
1.826681
1.989248
2.082438
2.141128
2.177504
2.155941
2.155941
2.059
1.937122
1.775867
1.594174
1.454669
1.343291
1.310103
1.31554
1.31554
1.370479
1.487858
1.653613
1.833618
1.998061
2.103064
2.159128
2.174504
2.169254
2.169254
2.084126
1.946872
1.792742
1.609924
1.461607
1.350979
1.314415
1.311978
1.368604
1.368604
1.476795
1.630362
1.824056
1.983248
2.086376
2.147691
2.168879
2.159503
2.075876
2.075876
1.945372
1.785054
1.608612
1.466295
1.348354
1.299602
1.30129
1.349854
1.448669
1.448669
1.594924
1.793117
1.95231
2.073813
2.13119
2.148253
2.143565
2.060688
2.060688
1.934497
1.790305
1.609924
1.465357
1.335791
1.295477
1.287414
1.32979
1.427481
1.427481
1.574111
1.759929
1.932246
2.04775
2.107564
2.14169
2.133628
2.068188
1.929059
1.929059
1.787492
1.606924
1.469295
1.335978
1.292102
1.290039
1.320978
1.405355
1.561548
1.561548
1.756741
1.919496
2.035562
2.097626
2.130065
2.131002
2.056938
1.938059
1.79518
1.79518
1.610487
1.467982
1.336166
1.299415
1.285914
1.320978
1.402918
1.541109
1.541109
1.731053
1.909933
2.032
2.096689
2.131752
2.134378
2.072501
1.950247
1.808868
1.808868
1.622675
1.473045
1.343104
1.293602
1.284414
1.314978
1.392792
1.541297
1.73124
1.73124
1.903558
2.038937
2.108877
2.142815
2.141503
2.096314
1.974623
1.826493
1.642175
1.642175
1.490108
1.356979
1.300165
1.287977
1.311603
1.405168
1.549547
1.728428
1.914621
1.914621
2.047
2.108877
2.145628
2.153878
2.088251
1.972748
1.836056
1.652863
1.495171
1.495171
1.363542
1.299602
1.286289
1.311415
1.38998
1.521609
1.705177
1.881245
1.881245
2.025624
2.093502
2.13719
2.135128
2.094439
1.986061
1.835868
1.671239
1.510171
1.510171
1.363729
1.303915
1.284789
1.302415
1.377604
1.501171
1.693739
1.868119
2.012311
2.012311
2.085064
2.128752
2.14319
2.095001
1.989061
1.849744
1.671988
1.515796
1.373292
1.373292
1.303915
1.287789
1.300727
1.371792
1.492546
1.671239
1.857994
2.002561
2.080001
2.080001
2.12069
2.138503
2.101189
1.988123
1.861182
1.673301
1.522547
1.381355
1.381355
1.302227
1.286664
1.296602
1.364104
1.486358
1.656801
1.851244
2.003311
2.084126
2.084126
2.145815
2.154628
2.113189
2.000499
1.854619
1.691864
1.518796
1.39073
1.30579
1.30579
1.286664
1.29904
1.359041
1.48842
1.663551
1.841306
1.999186
2.079251
2.127627
2.127627
2.141878
2.110564
2.012124
1.864557
1.696177
1.529672
1.37948
1.29754
1.281039
1.281039
1.284602
1.331103
1.443982
1.616112
1.81018
1.947059
2.041187
2.104002
2.104002
2.106627
2.091626
1.988498
1.849556
1.698052
1.53811
1.388667
1.300165
1.280102
1.280102
1.289477
1.331666
1.439294
1.611049
1.797992
1.962247
2.05825
2.119565
2.130065
2.130065
2.119565
2.020187
1.875995
1.716802
1.55386
1.40948
1.306352
1.282727
1.287414
1.287414
1.334103
1.450169
1.611799
1.79443
1.957747
2.057313
2.112814
2.13044
2.118627
2.118627
2.027312
1.903558
1.747366
1.566985
1.430481
1.31179
1.286477
1.290602
1.32979
1.32979
1.428231
1.594174
1.772679
1.928871
2.053375
2.102877
2.128002
2.109252
2.109252
2.026562
1.904308
1.753928
1.569423
1.428606
1.326416
1.287789
1.287602
1.322665
1.322665
1.423731
1.574111
1.761429
1.933371
2.048875
2.092189
2.121627
2.111127
2.041562
2.041562
1.923996
1.774929
1.598674
1.446419
1.326978
1.293414
1.285727
1.322478
1.409105
1.409105
1.563798
1.756366
1.914433
2.037625
2.090876
2.112814
2.100252
2.020187
1.903183
1.903183
1.768366
1.603362
1.46442
1.336353
1.286852
1.276726
1.293227
1.325665
1.325665
1.39298
1.513546
1.6508
1.735553
1.757304
1.752803
1.72074
1.645175
1.541672
1.541672
1.423356
1.311415
1.354916
1.488233
1.535859
1.479795
1.474732
1.560235
1.727865
1.727865
1.981935
2.251756
2.523639
2.620768
2.653956
2.640455
2.576329
2.464575
2.096501
1.916308
1.916308
1.762366
1.671051
1.614424
1.607299
1.669551
1.751116
1.911996
2.04775
2.144503
2.144503
2.197942
2.204505
2.176941
2.092001
1.952684
1.800242
1.621174
1.458232
1.329228
1.329228
1.282352
1.275414
1.294727
1.349479
1.47042
1.645925
1.814118
1.948559
1.948559
2.011374
2.049438
2.068938
2.019624
1.891933
1.764054
1.590611
1.439856
1.315728
1.315728
1.278602
1.271101
1.284414
1.332416
1.432544
1.618549
1.781117
1.918746
1.980998
1.980998
2.027124
2.034062
1.993186
1.898495
1.764991
1.595674
1.440606
1.325103
1.280477
1.280477
1.269414
1.280289
1.314603
1.430106
1.602799
1.770804
1.929434
1.981748
2.021124
2.021124
2.037062
2.000311
1.902433
1.785242
1.6238
1.464045
1.339353
1.281602
1.281602
1.270726
1.283477
1.32304
1.415106
1.589674
1.774367
1.907683
1.973123
2.028999
2.028999
2.053375
2.010624
1.911808
1.782992
1.612362
1.455607
1.337853
1.283664
1.270164
1.270164
1.276914
1.307102
1.404418
1.576548
1.749053
1.901871
1.964685
2.015687
2.031625
2.031625
2.011561
1.912933
1.78918
1.621737
1.465732
1.345166
1.280289
1.269601
1.275601
1.275601
1.301102
1.39448
1.549735
1.72449
1.88162
1.949872
2.004999
2.021312
2.007811
2.007811
1.911058
1.781679
1.629237
1.447169
1.327541
1.275414
1.267351
1.269789
1.269789
1.287602
1.355479
1.499671
1.689614
1.830056
1.89662
1.956247
1.968998
1.948372
1.948372
1.864932
1.734991
1.574298
1.400855
1.297352
1.266414
1.261913
1.262289
1.269601
1.269601
1.306352
1.421481
1.596799
1.762366
1.835868
1.882183
1.901495
1.88912
1.800617
1.800617
1.692052
1.521984
1.363917
1.286102
1.263039
1.259663
1.260976
1.265476
1.284977
1.284977
1.38848
1.572798
1.724303
1.815055
1.882557
1.89812
1.888745
1.821431
1.821431
1.704052
1.555547
1.39073
1.292852
1.264914
1.261163
1.261726
1.269789
1.299227
1.299227
1.419793
1.595861
1.760304
1.862119
1.915183
1.95681
1.96206
1.888933
1.778679
1.778679
1.64255
1.481858
1.355854
1.277851
1.268851
1.271289
1.287039
1.364104
1.496671
1.496671
1.686239
1.852744
1.96131
2.026937
2.061438
2.065751
2.007061
1.89512
1.752053
1.752053
1.584236
1.451482
1.337103
1.301852
1.298665
1.341228
1.433106
1.581236
1.581236
1.772304
1.930559
2.045687
2.104189
2.13119
2.138503
2.085626
1.96131
1.830993
1.830993
1.665988
1.519921
1.389605
1.338603
1.330541
1.375729
1.464982
1.609924
1.794992
1.794992
1.946122
2.062563
2.119565
2.159503
2.155753
2.099127
1.974248
1.836806
1.657738
1.657738
1.528359
1.394105
1.332978
1.320978
1.353979
1.447919
1.583486
1.758804
1.921371
1.921371
2.042125
2.103627
2.129877
2.135503
2.080939
1.963185
1.823493
1.646675
1.646675
1.509046
1.364854
1.315353
1.297352
1.328665
1.422981
1.544672
1.724303
1.879745
1.879745
2.003124
2.065563
2.104189
2.118627
2.059188
1.952872
1.815993
1.646113
1.490483
1.490483
1.355479
1.300352
1.288164
1.312353
1.389042
1.505858
1.696739
1.866245
1.990373
1.990373
2.055438
2.083938
2.100627
2.044562
1.940872
1.80943
1.637487
1.483733
1.353041
1.353041
1.297352
1.282727
1.303352
1.371979
1.495171
1.677051
1.845619
1.987186
1.987186
2.045687
2.083001
2.094814
2.051312
1.946684
1.823868
1.642175
1.492733
1.360729
1.360729
1.303352
1.286102
1.306352
1.369917
1.488795
1.675739
1.844306
1.981373
2.04625
2.04625
2.091439
2.100252
2.073251
1.965435
1.829868
1.661863
1.514296
1.374792
1.314978
1.314978
1.289102
1.309352
1.375355
1.491983
1.669551
1.829868
1.971623
2.046438
2.089001
2.089001
2.109439
2.081313
1.975185
1.847119
1.690177
1.525172
1.387542
1.314228
1.314228
1.294352
1.309727
1.370479
1.48542
1.657926
1.828368
1.975373
2.045875
2.089189
2.089189
2.107002
2.086939
1.982686
1.856307
1.688864
1.534172
1.39898
1.314978
1.291914
1.291914
1.308602
1.366354
1.495171
1.652113
1.830993
1.97856
2.042312
2.099501
2.119002
2.119002
2.098001
2.003874
1.88012
1.718115
1.55536
1.416981
1.327916
1.295102
1.307102
1.307102
1.365042
1.483358
1.639925
1.816368
1.951184
2.027499
2.082438
2.104564
2.097064
2.097064
1.994873
1.874495
1.704615
1.542797
1.398043
1.306165
1.281977
1.289289
1.289289
1.329228
1.430106
1.591549
1.776429
1.926059
2.013061
2.059938
2.080001
2.079251
2.079251
1.98456
1.861182
1.713615
1.547672
1.40648
1.312353
1.288352
1.292289
1.346479
1.346479
1.46217
1.614612
1.798367
1.958872
2.035187
2.082814
2.105127
2.095189
2.010624
2.010624
1.885745
1.739303
1.567548
1.433669
1.330166
1.294915
1.29979
1.350041
1.447732
1.447732
1.598861
1.779804
1.925871
2.029562
2.082251
2.110189
2.101752
2.020374
2.020374
1.899995
1.752991
1.584048
1.452607
1.331666
1.297727
1.29829
1.342916
1.443982
1.443982
1.586486
1.773242
1.922309
2.018499
2.085251
2.110752
2.109252
2.033875
1.914246
1.914246
1.766866
1.596236
1.46142
1.343666
1.29529
1.294352
1.333916
1.435356
1.574673
1.574673
1.762179
1.920434
2.025624
2.071751
2.103439
2.100627
2.032562
1.915746
1.769304
1.769304
1.608424
1.467232
1.339166
1.29679
1.298477
1.338228
1.439669
1.578798
1.578798
1.764616
1.926996
2.021874
2.072876
2.105877
2.111877
2.041562
1.933559
1.803805
1.803805
1.63655
1.461045
1.324728
1.284977
1.268289
1.268664
1.276164
1.32004
1.467795
1.467795
1.589111
1.666551
1.689239
1.694864
1.699552
1.674801
1.592674
1.691489
1.777179
1.777179
1.721865
1.545985
1.443607
1.405355
1.492358
1.646675
1.869057
2.221193
2.490451
2.490451
2.570703
2.590392
2.588704
2.577266
2.499826
2.373447
2.209005
2.026749
2.026749
1.862307
1.700114
1.587986
1.54336
1.55011
1.610299
1.716427
1.865494
2.021874
2.021874
2.112627
2.144878
2.142628
2.122752
2.059
1.937122
1.789555
1.609924
1.454669
1.454669
1.334103
1.287039
1.278789
1.293977
1.352666
1.47717
1.656613
1.821243
1.95006
1.95006
2.009686
2.042312
2.056
2.005374
1.899808
1.765179
1.594736
1.439294
1.318353
1.318353
1.283852
1.274476
1.283477
1.332603
1.445294
1.629237
1.79518
1.928871
1.993373
1.993373
2.032937
2.044375
2.008186
1.903746
1.773242
1.605049
1.452982
1.331853
1.331853
1.281039
1.271851
1.281977
1.327353
1.434981
1.608987
1.777742
1.921746
1.983248
1.983248
2.042687
2.0635
2.027312
1.914621
1.788242
1.612737
1.459732
1.341041
1.285164
1.285164
1.274476
1.281977
1.335603
1.430856
1.603362
1.791242
1.920246
1.997123
2.043812
2.043812
2.06425
2.030687
1.917621
1.800805
1.63205
1.455982
1.335603
1.286477
1.274664
1.274664
1.279164
1.317603
1.423918
1.587611
1.765366
1.919121
1.985686
2.032
2.032
2.057875
2.030499
1.925871
1.793492
1.646113
1.473232
1.347979
1.285164
1.273539
1.273539
1.278789
1.309165
1.412668
1.582173
1.757116
1.897933
1.969373
2.021687
2.03425
2.03425
2.028062
1.921184
1.794617
1.633737
1.335228
1.279164
1.269601
1.273726
1.295665
1.295665
1.365604
1.529109
1.704427
1.850494
1.933746
1.977623
1.988873
1.985123
1.87412
1.87412
1.752053
1.595486
1.427669
1.312165
1.269039
1.262476
1.264351
1.274851
1.316665
1.316665
1.453919
1.614049
1.772867
1.846181
1.908058
1.923246
1.923246
1.822743
1.700114
1.700114
1.540735
1.376104
1.288727
1.263414
1.260413
1.261913
1.267539
1.293602
1.40948
1.40948
1.601111
1.751303
1.850681
1.906183
1.931497
1.926434
1.842619
1.719052
1.719052
1.575798
1.408355
1.303352
1.267351
1.261539
1.263226
1.271851
1.31179
1.443794
1.443794
1.63355
1.80643
1.900933
1.96131
1.989436
1.990373
1.913496
1.80268
1.662051
1.662051
1.505108
1.373104
1.287039
1.272601
1.275976
1.303165
1.387542
1.542797
1.737428
1.737428
1.88612
2.002186
2.064063
2.093689
2.099689
2.023374
1.904871
1.769679
1.587048
1.587048
1.47117
1.347604
1.308415
1.30504
1.354729
1.45842
1.602799
1.787492
1.787492
1.959247
2.054125
2.120502
2.160816
2.154628
2.089376
1.972373
1.835306
1.664113
1.664113
1.518984
1.398043
1.338228
1.331103
1.379667
1.468732
1.615174
1.801742
1.96131
1.96131
2.075876
2.137565
2.160628
2.167941
2.097626
1.977435
1.832306
1.660551
1.513171
1.513171
1.39523
1.331666
1.314603
1.357354
1.448669
1.580486
1.766117
1.925121
2.04775
2.04775
2.106439
2.138315
2.13794
2.075501
1.961497
1.815993
1.636737
1.494233
1.494233
1.356229
1.308977
1.293039
1.327165
1.40948
1.545797
1.727303
1.893058
2.011936
2.011936
2.073813
2.104939
2.111315
2.055063
1.940684
1.806055
1.614237
1.486545
1.352291
1.352291
1.30054
1.285727
1.315728
1.386417
1.517859
1.694864
1.864557
1.993186
2.0575
2.0575
2.092752
2.101002
2.053375
1.936934
1.80043
1.6268
1.469482
1.342353
1.294727
1.294727
1.283852
1.306352
1.37798
1.501921
1.681739
1.856119
1.970685
2.042312
2.080939
2.080939
2.088439
2.050375
1.947247
1.809618
1.643113
1.473982
1.355854
1.29454
1.29454
1.283289
1.29829
1.362979
1.490483
1.677051
1.844681
1.978373
2.046438
2.089564
2.089564
2.105127
2.06725
1.960185
1.81918
1.661113
1.499108
1.364667
1.303165
1.284977
1.284977
1.304102
1.366917
1.483358
1.671239
1.842244
1.990186
2.057688
2.105877
2.108315
2.108315
2.074001
1.97406
1.839806
1.681926
1.508671
1.372542
1.300915
1.291164
1.302415
1.302415
1.367479
1.495733
1.658676
1.834556
1.995436
2.054313
2.100064
2.115064
2.115064
2.088814
1.987186
1.860619
1.693552
1.518609
1.390543
1.313478
1.293039
1.305977
1.305977
1.368042
1.485233
1.657926
1.832118
1.985123
2.064438
2.102127
2.118065
2.093502
2.093502
1.999374
1.852182
1.695052
1.521609
1.393543
1.310477
1.287789
1.30129
1.343479
1.343479
1.45992
1.621737
1.793117
1.952497
2.021499
2.064063
2.085439
2.062376
1.966747
1.966747
1.844119
1.676489
1.507171
1.381542
1.296977
1.280477
1.291539
1.333916
1.333916
1.444919
1.627737
1.802493
1.949122
2.040437
2.088064
2.106627
2.100064
2.009311
2.009311
1.874307
1.708927
1.544485
1.403105
1.313665
1.288727
1.293039
1.344604
1.451107
1.451107
1.601486
1.79593
1.943684
2.038
2.089376
2.110752
2.095752
2.006124
1.876932
1.876932
1.723553
1.551797
1.419043
1.313102
1.288914
1.293039
1.339728
1.444544
1.599424
1.599424
1.780554
1.945747
2.037812
2.083189
2.10869
2.096876
2.011374
1.891745
1.891745
1.738928
1.56211
1.431231
1.316853
1.289289
1.293227
1.331666
1.433669
1.582923
1.582923
1.770242
1.923996
2.025624
2.098001
2.109064
2.107377
2.027874
1.897558
1.748303
1.748303
1.578611
1.436294
1.325478
1.290039
1.290602
1.331478
1.425793
1.578048
1.764804
1.764804
1.916121
2.027499
2.085251
2.109064
2.110002
2.037625
1.912371
1.752991
1.565485
1.565485
1.40948
1.29979
1.276914
1.279914
1.30804
1.404605
1.541672
1.700677
1.700677
1.841306
1.897558
1.897745
1.866994
1.796867
1.693739
1.534734
1.355666
1.269601
1.269601
1.259288
1.257413
1.257413
1.257226
1.257976
1.297727
1.64555
1.954185
2.130627
2.130627
2.203567
2.256819
2.360322
2.444512
2.470201
2.490638
2.429699
2.266569
2.125377
2.125377
1.977623
1.89662
1.853307
1.869432
1.909933
1.988498
2.14394
2.266382
2.348697
2.348697
2.377198
2.352447
2.338009
2.255881
2.125377
1.935059
1.742866
1.56136
1.40723
1.40723
1.31104
1.289289
1.317978
1.39598
1.526297
1.700489
1.872245
1.987373
1.987373
2.04175
2.076438
2.074938
2.024124
1.908996
1.770992
1.586111
1.434606
1.319478
1.319478
1.277664
1.271664
1.285727
1.337478
1.454857
1.638613
1.80193
1.95006
2.008186
2.008186
2.0395
2.0425
1.998249
1.885745
1.749241
1.580673
1.425418
1.309727
1.275414
1.275414
1.269976
1.282539
1.328478
1.446419
1.629612
1.802305
1.939559
1.992998
2.034625
2.034625
2.046438
2.010624
1.903746
1.762741
1.595674
1.437794
1.317978
1.283289
1.283289
1.271664
1.284789
1.333541
1.437231
1.617987
1.785054
1.924371
1.994686
2.033499
2.033499
2.051312
2.010249
1.912746
1.78843
1.617799
1.449982
1.329603
1.283852
1.272789
1.272789
1.281977
1.327916
1.440794
1.619862
1.784492
1.925121
1.998249
2.028437
2.055063
2.055063
2.024312
1.918371
1.777554
1.620237
1.455419
1.337291
1.281977
1.272414
1.278977
1.278977
1.319478
1.417918
1.589111
1.778304
1.920809
1.988498
2.026374
2.037437
2.037437
2.014936
1.902996
1.776242
1.612924
1.436294
1.326791
1.276539
1.268664
1.274289
1.274289
1.300352
1.380605
1.545985
1.726553
1.875057
1.964122
1.990561
2.001249
1.982686
1.982686
1.87787
1.744366
1.578423
1.407793
1.303727
1.267539
1.262851
1.265476
1.274289
1.274289
1.32154
1.47342
1.645925
1.79518
1.87187
1.912933
1.922121
1.903933
1.799117
1.799117
1.669176
1.498546
1.344041
1.276164
1.261163
1.259101
1.260038
1.265289
1.265289
1.288914
1.397293
1.583486
1.738178
1.819931
1.867182
1.88162
1.881807
1.778867
1.778867
1.65305
1.502108
1.339916
1.278227
1.260788
1.259476
1.260788
1.266226
1.288914
1.288914
1.402543
1.597924
1.761804
1.850681
1.902058
1.928684
1.933184
1.823868
1.711365
1.711365
1.57036
1.406106
1.302602
1.268101
1.263226
1.264351
1.278789
1.338228
1.48092
1.48092
1.688302
1.857432
1.949685
2.020187
2.041375
2.037062
1.960747
1.837931
1.837931
1.690177
1.523484
1.397855
1.30129
1.279539
1.284977
1.324728
1.425043
1.575798
1.575798
1.775304
1.938622
2.050375
2.101002
2.133065
2.132128
2.050562
1.913871
1.778867
1.778867
1.593049
1.46142
1.345729
1.301102
1.307102
1.348541
1.456732
1.612549
1.792555
1.792555
1.974623
2.084501
2.138878
2.167566
2.167004
2.070813
1.965998
1.803243
1.618174
1.618174
1.476233
1.347229
1.305227
1.301665
1.352104
1.447169
1.601111
1.79668
1.959435
1.959435
2.061813
2.12444
2.150691
2.150128
2.077939
1.948372
1.789555
1.615174
1.615174
1.452794
1.345541
1.291539
1.329228
1.426356
1.566423
1.760304
1.929809
2.050188
2.104189
2.104189
2.130815
2.126127
2.05975
1.934122
1.782429
1.608049
1.435544
1.330916
1.284039
1.284039
1.277289
1.301102
1.379667
1.517484
1.721115
1.87187
2.006499
2.063125
2.093502
2.093502
2.085814
2.026749
1.90112
1.751491
1.580861
1.422981
1.308227
1.274664
1.272601
1.272601
1.289664
1.353229
1.487858
1.693552
1.862869
1.987748
2.053
2.082251
2.082251
2.088439
2.028999
1.901871
1.752428
1.578423
1.426169
1.310477
1.277289
1.271851
1.271851
1.289664
1.345353
1.474732
1.673864
1.841119
1.977248
2.043437
2.084876
2.088064
2.088064
2.033499
1.912558
1.763866
1.590611
1.425793
1.307852
1.278227
1.272976
1.284602
1.284602
1.351729
1.46817
1.664863
1.842056
1.983623
2.048875
2.087689
2.089001
2.04325
2.04325
1.930934
1.782804
1.610112
1.453732
1.331853
1.289477
1.274289
1.283664
1.283664
1.355479
1.47567
1.670864
1.843369
1.996748
2.067813
2.116752
2.116752
2.072501
2.072501
1.951184
1.80793
1.65155
1.480545
1.342353
1.289477
1.277101
1.288164
1.346854
1.346854
1.473045
1.656238
1.843744
1.981561
2.060126
2.097251
2.107564
2.063125
1.932997
1.932997
1.79818
1.626612
1.461045
1.330916
1.283477
1.272789
1.279727
1.331666
1.444544
1.444544
1.629987
1.834743
1.983623
2.05375
2.115814
2.11919
2.085064
1.969935
1.825368
1.825368
1.666363
1.494796
1.354729
1.290977
1.281977
1.290414
1.335041
1.453169
1.453169
1.630362
1.820493
1.975185
2.063125
2.108127
2.116752
2.085814
1.977998
1.845244
1.845244
1.673676
1.503233
1.357354
1.292289
1.273539
1.281977
1.334478
1.439294
1.619487
1.619487
1.807368
1.964497
2.058625
2.104939
2.114127
2.087689
1.982498
1.852556
1.671239
1.671239
1.493296
1.371417
1.287039
1.274851
1.282352
1.322478
1.451294
1.597361
1.597361
1.802305
1.957935
2.053188
2.101939
2.11844
2.098564
1.995998
1.856307
1.700489
1.700489
1.511859
1.376855
1.292852
1.275976
1.278039
1.32229
1.422418
1.584236
1.789555
1.789555
1.958872
2.052625
2.095001
2.11619
2.097064
1.995623
1.858932
1.695802
1.518046
1.518046
1.385292
1.290227
1.276914
1.284602
1.317415
1.413793
1.549547
1.746241
1.907683
1.907683
2.026937
2.074938
2.113002
2.089939
1.98006
1.816368
1.620612
1.39598
1.277101
1.277101
1.258726
1.257601
1.257413
1.257601
1.258913
1.266226
1.315353
1.478858
1.478858
1.561548
1.683426
1.850681
2.142066
2.214255
2.104002
1.903746
1.720927
1.640488
1.640488
1.625487
1.662801
1.787304
1.96281
2.094814
2.249694
2.421637
2.551015
2.572016
2.572016
2.604079
2.585704
2.566578
2.46795
2.28532
2.097064
1.865682
1.672364
1.515609
1.515609
1.446982
1.405918
1.425793
1.515796
1.630175
1.795555
1.933184
2.030312
2.091251
2.091251
2.116377
2.091439
2.007811
1.869432
1.712302
1.536984
1.370104
1.283664
1.283664
1.267539
1.269414
1.282914
1.338603
1.469295
1.657551
1.824056
1.957185
2.017936
2.017936
2.040625
2.035187
1.962622
1.831931
1.679489
1.508671
1.358854
1.281227
1.264726
1.264726
1.264539
1.274101
1.321165
1.440044
1.647238
1.814493
1.944997
2.007999
2.049438
2.049438
2.035187
1.974998
1.852182
1.710427
1.527234
1.378355
1.283289
1.269789
1.266789
1.266789
1.275226
1.323228
1.449419
1.641237
1.820868
1.960747
2.023374
2.06125
2.06125
2.062376
2.013624
1.872995
1.73349
1.546547
1.39073
1.290602
1.272976
1.265289
1.265289
1.276726
1.31779
1.447732
1.633362
1.816368
1.952497
2.024874
2.05975
2.060688
2.060688
2.005186
1.896995
1.744178
1.56736
1.398418
1.297165
1.270351
1.268851
1.275414
1.275414
1.312915
1.421106
1.611049
1.786367
1.935997
2.010624
2.038562
2.042125
1.990561
1.990561
1.87712
1.725428
1.562298
1.387355
1.292102
1.267726
1.263226
1.269226
1.297165
1.297165
1.38323
1.56961
1.742303
1.893808
1.96881
2.005186
1.989998
1.962435
1.962435
1.836056
1.686989
1.510546
1.352666
1.280102
1.262476
1.261163
1.262851
1.274289
1.274289
1.325103
1.495733
1.675176
1.81693
1.889308
1.930371
1.918934
1.899621
1.773242
1.773242
1.625862
1.446419
1.304477
1.266226
1.260038
1.257976
1.259288
1.262476
1.280852
1.280852
1.404418
1.597361
1.740241
1.81768
1.859869
1.873932
1.830243
1.724678
1.583673
1.583673
1.412106
1.292477
1.264914
1.258538
1.258351
1.258913
1.262476
1.282352
1.282352
1.393167
1.573735
1.743053
1.834931
1.877682
1.904308
1.87037
1.763679
1.625112
1.625112
1.470045
1.313853
1.271664
1.260226
1.258726
1.259851
1.266601
1.302227
1.449982
1.449982
1.651175
1.820681
1.921184
1.98231
1.991686
1.97706
1.877307
1.755616
1.601111
1.601111
1.427294
1.321728
1.270726
1.266601
1.267539
1.293977
1.39073
1.55236
1.775492
1.775492
1.935809
2.030124
2.086376
2.117315
2.100627
2.002749
1.867932
1.71774
1.530047
1.530047
1.403105
1.31254
1.285164
1.293414
1.347041
1.457669
1.629425
1.828181
1.828181
1.978748
2.089001
2.146003
2.161941
2.147128
2.057688
1.914621
1.763116
1.567548
1.567548
1.448857
1.332791
1.301665
1.297915
1.348541
1.466857
1.612737
1.814118
1.976498
1.976498
2.085626
2.136065
2.165879
2.149941
2.06725
1.935622
1.775867
1.593611
1.451107
1.451107
1.331291
1.293602
1.29529
1.348541
1.448107
1.607862
1.793305
1.967123
2.075688
2.075688
2.134003
2.155566
2.148441
2.065938
1.929434
1.774367
1.587423
1.448482
1.448482
1.32379
1.296602
1.288914
1.328103
1.429169
1.580486
1.776054
1.943497
2.058438
2.058438
2.12294
2.149941
2.13569
2.049062
1.932246
1.766866
1.587799
1.433669
1.331291
1.331291
1.286852
1.282539
1.32004
1.407418
1.55611
1.756179
1.920621
2.054688
2.117877
2.117877
2.140003
2.13344
2.068563
1.928871
1.784117
1.598861
1.445669
1.314978
1.287039
1.287039
1.285727
1.31179
1.400855
1.551047
1.745866
1.913121
2.052625
2.108127
2.147503
2.147503
2.141878
2.070438
1.940122
1.791992
1.614049
1.449982
1.332603
1.284977
1.284977
1.281414
1.315353
1.39523
1.530609
1.736115
1.914433
2.045312
2.109814
2.135315
2.135315
2.132878
2.075876
1.957372
1.815805
1.6388
1.480545
1.340853
1.29904
1.284602
1.284602
1.312165
1.40498
1.544672
1.729365
1.907871
2.047563
2.110564
2.153691
2.158753
2.158753
2.089751
1.966185
1.821618
1.648738
1.48392
1.351166
1.293039
1.284977
1.30579
1.30579
1.384167
1.516921
1.711927
1.87637
2.013999
2.087314
2.107752
2.110752
2.110752
2.063875
1.951184
1.799492
1.627362
1.467232
1.336728
1.290039
1.282164
1.29454
1.29454
1.368229
1.509421
1.689989
1.875995
2.030124
2.092939
2.142066
2.14394
2.103814
2.103814
1.982498
1.847494
1.665988
1.502483
1.361667
1.293227
1.280102
1.304477
1.366542
1.366542
1.497421
1.698427
1.860807
2.025249
2.106252
2.148441
2.14694
2.11394
1.998249
1.998249
1.851619
1.683051
1.511484
1.368792
1.30129
1.283664
1.299415
1.495358
1.677801
1.677801
1.860994
2.009311
2.096127
2.13344
2.169066
2.117127
2.015124
1.857994
1.688676
1.688676
1.512984
1.390167
1.300352
1.281789
1.305227
1.371792
1.47942
1.662238
1.846181
1.846181
1.994873
2.099127
2.139065
2.144691
2.131377
2.006686
1.854619
1.70649
1.70649
1.540172
1.39448
1.303165
1.290227
1.30204
1.363354
1.478858
1.663363
1.836056
1.836056
2.002561
2.073813
2.132878
2.137565
2.123502
2.038187
1.891558
1.710427
1.530422
1.530422
1.429544
1.299415
1.277101
1.286289
1.32379
1.451669
1.630737
1.813743
1.959622
1.959622
2.060688
2.123315
2.076063
1.993936
1.836244
1.641237
1.445669
1.29529
1.261351
1.261351
1.257601
1.257226
1.257226
1.257788
1.261726
1.302977
1.638613
2.095189
2.095189
2.299195
2.317571
2.332571
2.290757
2.267319
2.240506
2.176941
2.172254
2.143003
2.143003
2.012874
1.922121
1.895683
1.929434
2.011749
2.13269
2.271444
2.403636
2.4627
2.4627
2.449762
2.4552
2.416199
2.288695
2.131002
1.982873
1.781867
1.595486
1.439669
1.439669
1.376855
1.333541
1.369729
1.451857
1.579923
1.771367
1.929996
2.030312
2.085064
2.085064
2.092189
2.079813
2.002186
1.89362
1.747178
1.560423
1.427294
1.306727
1.306727
1.283102
1.288164
1.310477
1.374792
1.510921
1.706677
1.857807
1.971248
2.040812
2.040812
2.05675
2.056375
1.966747
1.859494
1.71774
1.547485
1.401043
1.298665
1.277664
1.277664
1.273164
1.294727
1.379667
1.495358
1.689427
1.856119
1.953997
2.020187
2.068188
2.068188
2.053188
1.985873
1.868495
1.735553
1.56286
1.418668
1.305602
1.278602
1.279352
1.279352
1.291164
1.358854
1.491796
1.684551
1.855744
1.974623
2.031062
2.064438
2.064438
2.054125
1.999186
1.90112
1.745116
1.57186
1.429169
1.312165
1.285727
1.273726
1.273726
1.296977
1.356791
1.48392
1.662613
1.847681
1.965998
2.021499
2.061063
2.0575
2.0575
1.993748
1.906933
1.758616
1.57036
1.444357
1.313478
1.279352
1.274851
1.291352
1.291352
1.357541
1.46292
1.63355
1.816555
1.947809
2.004999
2.029562
2.046062
1.994873
1.994873
1.866245
1.748303
1.567923
1.413043
1.310853
1.277664
1.267726
1.276914
1.314228
1.314228
1.420918
1.589861
1.760116
1.892683
1.944247
1.992061
1.991311
1.943309
1.943309
1.841681
1.705552
1.523484
1.373479
1.283477
1.265289
1.263976
1.265101
1.281039
1.281039
1.351354
1.522547
1.671614
1.824993
1.869619
1.891558
1.915371
1.872432
1.774367
1.774367
1.632612
1.447544
1.309727
1.270164
1.262289
1.259101
1.261539
1.270164
1.298102
1.298102
1.455044
1.619299
1.763304
1.842056
1.88762
1.885932
1.852182
1.750741
1.62605
1.62605
1.461795
1.31629
1.274289
1.260976
1.260038
1.261351
1.270914
1.314978
1.314978
1.465545
1.654363
1.813555
1.888745
1.931309
1.956435
1.920996
1.823681
1.699364
1.699364
1.540172
1.374417
1.293602
1.267351
1.263976
1.269039
1.290789
1.389605
1.56511
1.56511
1.758054
1.920809
2.012874
2.057875
2.076251
2.055063
1.949122
1.822368
1.671239
1.671239
1.510359
1.375917
1.29829
1.280289
1.295852
1.365417
1.480733
1.651175
1.844681
1.844681
2.010999
2.105127
2.155941
2.160816
2.148816
2.048312
1.911621
1.749241
1.749241
1.588548
1.447919
1.344229
1.309727
1.331291
1.406106
1.522547
1.689239
1.895683
1.895683
2.04175
2.142815
2.185379
2.195879
2.178066
2.080564
1.936184
1.782429
1.597924
1.597924
1.46217
1.352854
1.31329
1.316853
1.382105
1.508671
1.673114
1.855557
2.017374
2.017374
2.110564
2.156503
2.177504
2.158941
2.065751
1.929809
1.774367
1.588923
1.442669
1.442669
1.325665
1.294915
1.301477
1.365229
1.470795
1.62305
1.803243
1.976685
1.976685
2.073438
2.12069
2.154628
2.118252
2.038187
1.896995
1.752803
1.575611
1.423168
1.423168
1.315728
1.290789
1.289102
1.327165
1.434419
1.600924
1.782242
1.941247
2.051875
2.051875
2.099689
2.114502
2.123877
2.0425
1.89287
1.752428
1.566235
1.425981
1.31779
1.31779
1.284789
1.286852
1.332603
1.425231
1.577673
1.772679
1.940684
2.037812
2.102877
2.102877
2.12219
2.111127
2.041187
1.923996
1.770804
1.579173
1.422418
1.32529
1.285164
1.285164
1.292852
1.325478
1.432356
1.587048
1.776429
1.948747
2.055813
2.11694
2.11694
2.128752
2.131565
2.0575
1.926621
1.781867
1.598674
1.453544
1.328478
1.290789
1.290789
1.288539
1.319853
1.418106
1.565485
1.756554
1.922121
2.042125
2.099501
2.126878
2.126878
2.12669
2.0575
1.938997
1.777742
1.582736
1.436481
1.315915
1.281977
1.275226
1.275226
1.300352
1.383605
1.526859
1.715865
1.893058
2.028999
2.077939
2.116565
2.109627
2.109627
2.051125
1.935434
1.783554
1.619674
1.454107
1.335041
1.289664
1.279164
1.279164
1.317415
1.40573
1.55236
1.750366
1.919309
2.046813
2.11169
2.146753
2.141503
2.141503
2.081501
1.96206
1.802118
1.63955
1.47117
1.335603
1.29904
1.281977
1.313665
1.313665
1.402918
1.535109
1.732365
1.906183
2.037062
2.108502
2.14169
2.13644
2.084689
2.084689
1.965247
1.813743
1.647238
1.472295
1.356979
1.294915
1.284414
1.316103
1.397105
1.397105
1.532297
1.733115
1.900745
2.042687
2.104189
2.14394
2.146753
2.088064
2.088064
1.971623
1.830243
1.652113
1.487295
1.359604
1.29904
1.284977
1.308602
1.384917
1.384917
1.516734
1.711177
1.89362
2.035
2.104939
2.14394
2.144315
2.101939
1.98006
1.98006
1.827243
1.679676
1.501358
1.358479
1.294165
1.286852
1.304477
1.378542
1.504546
1.504546
1.705927
1.882745
2.049625
2.122752
2.153128
2.147691
2.102127
1.988123
1.853682
1.853682
1.685301
1.528359
1.39748
1.31404
1.287977
1.294727
1.340478
1.420168
1.420168
1.541297
1.687927
1.799867
1.862869
1.864744
1.844306
1.773242
1.6463
1.494421
1.494421
1.375167
1.30054
1.389417
1.488608
1.48467
1.444919
1.511296
1.619674
1.839806
1.839806
2.088251
2.356009
2.572579
2.647581
2.649268
2.573328
2.491576
2.29057
2.115064
2.115064
1.913121
1.751303
1.653425
1.589674
1.575048
1.624925
1.720178
1.850869
2.014749
2.014749
2.160816
2.212943
2.236193
2.237881
2.177504
2.030499
1.88012
1.702177
1.702177
1.511109
1.358854
1.283852
1.271289
1.280289
1.315165
1.417543
1.593049
1.781679
1.781679
1.951184
2.032
2.078501
2.093689
2.074001
1.966185
1.824431
1.671614
1.489545
1.489545
1.351916
1.278789
1.269414
1.273351
1.302602
1.394105
1.563423
1.756366
1.918746
1.918746
2.012311
2.05675
2.078126
2.060126
1.964122
1.829306
1.668801
1.494421
1.356229
1.356229
1.283102
1.269789
1.274101
1.298477
1.381542
1.54486
1.751678
1.909558
2.005749
2.005749
2.063688
2.083751
2.071188
1.975185
1.847306
1.681364
1.503233
1.373479
1.373479
1.284977
1.270726
1.272039
1.300915
1.38398
1.54561
1.73799
1.891183
2.008749
2.008749
2.067063
2.088064
2.072313
1.986998
1.854244
1.702552
1.513546
1.371979
1.285727
1.285727
1.270726
1.271476
1.291539
1.376292
1.528734
1.881807
2.001624
2.051312
2.076438
2.069501
2.069501
1.98456
1.851619
1.700114
1.513921
1.369542
1.285164
1.268851
1.268851
1.283289
1.283289
1.353229
1.495921
1.696739
1.860619
1.981561
2.035375
2.060126
2.053375
1.96656
1.96656
1.845994
1.698989
1.509796
1.358104
1.280477
1.265851
1.264539
1.275414
1.275414
1.31629
1.445294
1.633362
1.812618
1.920434
1.986061
2.010999
1.998249
1.926059
1.926059
1.800992
1.636737
1.452044
1.317603
1.267164
1.261726
1.260226
1.264539
1.281227
1.281227
1.369167
1.55836
1.727678
1.858182
1.921746
1.944059
1.939184
1.871495
1.741366
1.741366
1.587986
1.415481
1.294915
1.263789
1.259663
1.259101
1.262664
1.275789
1.342353
1.342353
1.515796
1.703864
1.841119
1.900558
1.956247
1.950997
1.894558
1.771179
1.771179
1.629612
1.458795
1.31779
1.270914
1.261351
1.260413
1.264726
1.284977
1.377042
1.377042
1.574486
1.754679
1.914621
1.981561
2.019812
2.031812
1.97781
1.869807
1.72749
1.72749
1.555547
1.406293
1.303165
1.274664
1.268664
1.283477
1.341228
1.482045
1.685301
1.685301
1.858744
2.007249
2.086564
2.130065
2.138128
2.095564
1.98006
1.847119
1.669176
1.669176
1.512984
1.378542
1.311603
1.297165
1.331478
1.417543
1.554798
1.742678
1.742678
1.930934
2.077564
2.154628
2.193442
2.214818
2.166066
2.052063
1.909183
1.729928
1.729928
1.559298
1.426731
1.351354
1.312915
1.348541
1.438544
1.574111
1.752241
1.932809
1.932809
2.083938
2.165129
2.208255
2.206192
2.164941
2.052625
1.902058
1.727303
1.560235
1.560235
1.419606
1.330166
1.305602
1.322665
1.403293
1.534922
1.713615
1.89812
2.052813
2.052813
2.122377
2.162316
2.174879
2.144503
2.0365
1.88762
1.70799
1.533422
1.533422
1.391105
1.31179
1.286289
1.298665
1.363542
1.485045
1.668613
1.848056
2.009124
2.009124
2.091064
2.146565
2.144315
2.115064
2.003686
1.872245
1.701802
1.527984
1.386792
1.386792
1.297915
1.279727
1.290039
1.344604
1.46592
1.629612
1.818618
1.971998
2.070813
2.070813
2.115439
2.124627
2.105314
1.998061
1.861932
1.698802
1.515609
1.381917
1.29454
1.29454
1.279727
1.285727
1.327541
1.444919
1.615174
1.797617
1.96881
2.054875
2.054875
2.108127
2.126127
2.104752
2.008374
1.87937
1.718302
1.541484
1.404605
1.306727
1.306727
1.284039
1.292477
1.343853
1.460295
1.6283
1.829306
1.978935
2.086564
2.131377
2.131377
2.148441
2.135315
2.035562
1.904496
1.749053
1.55086
1.427294
1.31404
1.281039
1.281039
1.284227
1.338228
1.439856
1.607862
1.79893
1.954935
2.062938
2.105689
2.123127
2.123127
2.11394
2.018312
1.880495
1.725803
1.545235
1.402543
1.304665
1.280102
1.283102
1.283102
1.316103
1.419606
1.589861
1.776429
1.95006
2.064813
2.11769
2.142628
2.142628
2.136628
2.052438
1.920621
1.766679
1.585548
1.452794
1.322478
1.290414
1.287227
1.287227
1.330916
1.434231
1.583111
1.779804
1.951184
2.069126
2.12894
2.148253
2.14169
2.14169
2.065938
1.934872
1.780929
1.594924
1.452982
1.324165
1.293039
1.286852
1.324728
1.324728
1.427481
1.578611
1.766491
1.941622
2.068563
2.122002
2.153316
2.145066
2.076063
2.076063
1.952497
1.787867
1.617237
1.457107
1.335791
1.294727
1.286852
1.328291
1.328291
1.426544
1.566235
1.767804
1.926809
2.05225
2.124815
2.146753
2.142628
2.066313
2.066313
1.950247
1.794992
1.623612
1.466857
1.343291
1.292289
1.287039
1.322853
1.40948
1.40948
1.55161
1.746428
1.915558
2.052813
2.114502
2.148816
2.150128
2.086001
1.958685
1.958685
1.80568
1.62905
1.48167
1.354166
1.299977
1.287039
1.30804
1.382855
1.503983
1.503983
1.705364
1.886495
2.026937
2.101002
2.12969
2.119002
2.04025
1.894183
1.894183
1.687176
1.453919
1.291352
1.261163
1.257601
1.257413
1.257601
1.257976
1.261726
1.261726
1.304852
1.408731
1.600361
1.803055
2.14094
2.30332
2.266944
2.113002
1.956247
1.956247
1.809243
1.760866
1.689989
1.745491
1.815805
1.886308
1.982686
2.103814
2.267882
2.267882
2.432699
2.548578
2.583266
2.569953
2.548953
2.464763
2.311571
2.13194
1.913496
1.913496
1.71549
1.56661
1.469857
1.390355
1.413418
1.472295
1.56811
1.726178
1.726178
1.882183
2.030499
2.098189
2.136815
2.132878
2.082626
1.967873
1.821243
1.645363
1.645363
1.470607
1.340666
1.284977
1.275789
1.288352
1.345353
1.452982
1.628675
1.804368
1.804368
1.963372
2.033499
2.079251
2.083376
2.054313
1.934872
1.796117
1.619674
1.449607
1.449607
1.323603
1.278227
1.269601
1.275789
1.313665
1.422793
1.602049
1.799117
1.948934
1.948934
2.041187
2.072876
2.086564
2.056188
1.945747
1.797992
1.643488
1.467607
1.342541
1.342541
1.279164
1.269039
1.276914
1.311603
1.424668
1.594924
1.787304
1.943872
1.943872
2.036312
2.077376
2.090501
2.071751
1.96131
1.81693
1.65305
1.470982
1.340853
1.340853
1.278414
1.270351
1.275039
1.31029
1.417543
1.594549
1.786555
1.938434
2.030312
2.030312
2.085064
2.092189
2.067813
1.966747
1.828368
1.662238
1.488045
1.351354
1.282164
1.282164
1.270914
1.274476
1.306165
1.401605
1.572235
1.761804
1.928496
2.021124
2.066313
2.066313
2.082438
2.06425
1.962622
1.830056
1.667676
1.48617
1.346291
1.276914
1.276914
1.268476
1.269789
1.296602
1.379105
1.539422
1.71849
1.885745
1.981935
2.038
2.038
2.0545
2.041562
1.935809
1.80643
1.642738
1.448482
1.32004
1.271664
1.263601
1.263601
1.264351
1.275976
1.327165
1.46292
1.655113
1.816555
1.916121
1.959997
1.986248
1.986248
1.964685
1.873745
1.731615
1.564548
1.388667
1.289477
1.263039
1.259288
1.259851
1.259851
1.264351
1.281789
1.379105
1.575798
1.744553
1.858369
1.912746
1.934684
1.934684
1.919871
1.838119
1.709865
1.548422
1.376292
1.285914
1.261351
1.259101
1.259663
1.259663
1.264164
1.282727
1.383792
1.577861
1.758616
1.863994
1.920621
1.963935
1.955122
1.955122
1.872807
1.751491
1.598111
1.426169
1.30579
1.269226
1.261539
1.261726
1.267914
1.267914
1.30504
1.432169
1.642363
1.818056
1.951184
2.023937
2.048312
2.05825
1.995061
1.995061
1.865119
1.720365
1.547672
1.402543
1.302602
1.277851
1.275039
1.30579
1.30579
1.387917
1.535484
1.734053
1.911808
2.049813
2.117315
2.154441
2.153316
2.089751
2.089751
1.956997
1.811493
1.635237
1.473232
1.360916
1.298665
1.29454
1.350416
1.442294
1.442294
1.575611
1.770242
1.953435
2.088251
2.155378
2.190817
2.193817
2.12069
2.007061
2.007061
1.866807
1.682676
1.516171
1.382105
1.323978
1.303352
1.350416
1.446607
1.581611
1.581611
1.762929
1.945559
2.092939
2.144691
2.183129
2.206942
2.131752
2.010811
2.010811
1.865119
1.698239
1.513921
1.39223
1.316665
1.298477
1.330353
1.416231
1.549547
1.549547
1.745491
1.922309
2.061625
2.13494
2.170754
2.168316
2.126127
2.002186
1.856119
1.856119
1.679301
1.520671
1.368417
1.310853
1.291352
1.323978
1.384917
1.518609
1.71999
1.71999
1.89062
2.110752
2.147316
2.146565
2.107939
1.989811
1.855369
1.680614
1.503608
1.503608
1.353416
1.292289
1.284039
1.30204
1.354166
1.484858
1.666363
1.870182
2.014374
2.014374
2.103439
2.129128
2.139065
2.109252
1.982498
1.836431
1.668613
1.499108
1.366729
1.366729
1.30129
1.282164
1.291352
1.354729
1.486358
1.661863
1.849556
1.997498
2.085626
2.085626
2.125565
2.149941
2.113752
1.995436
1.858932
1.686051
1.520671
1.38173
1.29979
1.29979
1.285352
1.297915
1.357166
1.48692
1.667488
1.853307
2.006124
2.092001
2.092001
2.14319
2.151253
2.128752
2.014749
1.864369
1.692239
1.512046
1.377042
1.297915
1.297915
1.281602
1.289477
1.344604
1.457857
1.6298
1.819555
1.96881
2.059188
2.123315
2.123315
2.115814
2.086376
1.992061
1.847306
1.684176
1.506608
1.369729
1.290414
1.276351
1.276351
1.292102
1.328665
1.457857
1.628862
1.819931
1.98006
2.084689
2.127252
2.141315
2.141315
2.125565
2.025249
1.890433
1.723178
1.542985
1.396543
1.300165
1.279164
1.279164
1.284789
1.328103
1.446232
1.596236
1.804743
1.972185
2.072313
2.129128
2.158191
2.158191
2.13569
2.034625
1.893808
1.733303
1.550485
1.413606
1.30804
1.281977
1.285539
1.285539
1.323228
1.432169
1.605049
1.793305
1.958685
2.069688
2.119002
2.137565
2.126878
2.126878
2.033312
1.902058
1.743616
1.560985
1.409293
1.302977
1.283664
1.281227
1.326041
1.326041
1.424481
1.575048
1.772304
1.941247
2.064813
2.11169
2.138503
2.127065
2.127065
2.034062
1.909371
1.747366
1.560235
1.40948
1.306727
1.278602
1.287414
1.313665
1.313665
1.416043
1.55686
1.757304
1.932621
2.056563
2.115252
2.133065
2.126315
2.042312
2.042312
1.921184
1.758616
1.586861
1.432356
1.310103
1.277851
1.269414
1.290414
1.376855
1.376855
1.529109
1.73649
1.918184
2.017561
2.056563
2.060313
1.991123
1.866619
1.658113
1.658113
1.457107
1.296227
1.262289
1.257601
1.257226
1.257413
1.257413
1.257413
1.262664
1.262664
1.385105
1.843931
2.201317
2.296195
2.294695
2.280257
2.235443
2.236943
2.236943
2.151066
2.122752
2.082814
1.976498
1.904308
1.854994
1.898683
1.980435
2.086376
2.086376
2.243131
2.371572
2.468138
2.494951
2.480138
2.450887
2.347759
2.181254
2.013624
2.013624
1.830056
1.624925
1.453732
1.363354
1.330541
1.326978
1.38473
1.529297
1.71699
1.71699
1.88687
2.025999
2.083376
2.106439
2.117877
2.034437
1.924184
1.772679
1.591174
1.591174
1.428981
1.308977
1.277101
1.268101
1.277289
1.334291
1.443982
1.6433
1.6433
1.818806
1.959997
2.025062
2.073063
2.060875
2.003686
1.892683
1.746053
1.56811
1.56811
1.399355
1.29979
1.270539
1.269039
1.275789
1.324165
1.431231
1.620424
1.797055
1.797055
1.947434
2.016437
2.0575
2.068938
2.027687
1.917058
1.758054
1.582736
1.414918
1.414918
1.308602
1.276539
1.268476
1.275789
1.311978
1.424293
1.602424
1.806243
1.947997
1.947997
2.021687
2.070251
2.077564
2.032937
1.927184
1.783179
1.613674
1.430481
1.430481
1.317228
1.275226
1.269976
1.276351
1.307852
1.431981
1.593236
1.782804
1.947997
1.947997
2.022062
2.057313
2.071376
2.034437
1.917621
1.791805
1.618737
1.441356
1.310853
1.310853
1.272601
1.266414
1.271851
1.308602
1.413981
1.581048
1.765179
1.930746
2.005749
2.005749
2.0635
2.057125
2.024687
1.925684
1.776242
1.598111
1.423168
1.313665
1.270726
1.270726
1.266226
1.266976
1.285164
1.371792
1.539984
1.728428
1.87037
1.960747
1.960747
2.007811
2.001624
1.998811
1.87787
1.740428
1.56811
1.382292
1.288914
1.265664
1.265664
1.260601
1.261913
1.270539
1.309727
1.446232
1.651363
1.797992
1.884807
1.936184
1.936184
1.932809
1.915746
1.813743
1.666551
1.506608
1.334853
1.274664
1.260038
1.258538
1.258538
1.259101
1.262851
1.282539
1.386042
1.587986
1.73274
1.839619
1.902621
1.915934
1.915934
1.894558
1.799305
1.665613
1.515234
1.329978
1.273914
1.260226
1.258913
1.259663
1.259663
1.264351
1.287602
1.402355
1.602424
1.773054
1.879557
1.945559
1.968623
1.968623
1.944434
1.866432
1.742116
1.582173
1.401605
1.300352
1.264914
1.261913
1.263976
1.263976
1.275789
1.332978
1.483733
1.698427
1.87262
1.989061
2.04925
2.077376
2.070438
2.070438
1.995811
1.867557
1.71099
1.530047
1.395605
1.299415
1.279352
1.279914
1.315353
1.315353
1.427294
1.576361
1.788805
1.961872
2.089189
2.143003
2.168316
2.162691
2.078501
2.078501
1.963372
1.803618
1.624362
1.464982
1.344041
1.298477
1.300727
1.352666
1.352666
1.462545
1.608237
1.81543
1.983436
2.124627
2.167191
2.190067
2.190067
2.104939
2.104939
1.986623
1.81768
1.630925
1.479233
1.345166
1.300352
1.295477
1.342353
1.435544
1.435544
1.588548
1.794805
1.964872
2.083376
2.155566
2.183317
2.159691
2.095001
1.95306
1.95306
1.785617
1.620424
1.466482
1.335228
1.292664
1.282164
1.319478
1.397855
1.554047
1.554047
1.752616
1.918934
2.052813
2.108877
2.140753
2.149566
2.068751
1.944997
1.944997
1.794242
1.612174
1.447169
1.32454
1.284414
1.279164
1.305977
1.382292
1.516734
1.516734
1.71999
1.898495
2.032562
2.103252
2.13419
2.135315
2.065938
1.943684
1.784867
1.784867
1.608799
1.456357
1.328291
1.284602
1.279352
1.29679
1.361854
1.508484
1.706302
1.706302
1.885558
2.023562
2.094439
2.125377
2.128752
2.070063
1.95606
1.800992
1.621174
1.621174
1.460482
1.323228
1.285539
1.274476
1.295102
1.363917
1.500421
1.689052
1.689052
1.87862
2.029187
2.099314
2.13344
2.136815
2.098001
1.96881
1.821056
1.641237
1.641237
1.462545
1.339916
1.290227
1.277851
1.291914
1.361667
1.490483
1.678926
1.879932
1.879932
2.028999
2.096689
2.139815
2.144691
2.103252
1.990561
1.848244
1.674426
1.495733
1.495733
1.369729
1.296414
1.281789
1.299602
1.365417
1.503608
1.668426
1.865119
2.025249
2.025249
2.093127
2.133253
2.132128
2.104002
1.993373
1.845244
1.671988
1.505671
1.380417
1.380417
1.29604
1.277664
1.285539
1.335416
1.448857
1.628862
1.825368
1.97481
1.97481
2.048312
2.101752
2.105502
2.080751
1.991123
1.843369
1.682301
1.512421
1.379292
1.379292
1.305415
1.280289
1.291727
1.350229
1.47792
1.651738
1.838681
1.994686
2.081688
2.081688
2.12819
2.140003
2.11394
2.002374
1.870932
1.70499
1.527797
1.390918
1.302602
1.302602
1.282914
1.291539
1.345916
1.464045
1.635237
1.831368
1.996748
2.086189
2.135128
2.135128
2.147316
2.13569
2.024499
1.881995
1.71474
1.537734
1.39973
1.30579
1.30579
1.281789
1.286477
1.349291
1.47192
1.631112
1.818431
1.988498
2.086376
2.13719
2.13719
2.146378
2.133065
2.025062
1.887245
1.731615
1.554235
1.408355
1.302415
1.282727
1.282727
1.286664
1.330728
1.457857
1.610674
1.800805
1.975748
2.074188
2.12894
2.147878
2.147878
2.129315
2.041375
1.895683
1.742678
1.550672
1.414356
1.308977
1.284414
1.284977
1.284977
1.325665
1.430669
1.594174
1.802868
1.974435
2.072313
2.127627
2.148441
2.041937
1.892683
1.892683
1.721115
1.537734
1.40348
1.303165
1.275039
1.281039
1.313665
1.397855
1.397855
1.504546
1.662426
1.772304
1.820306
1.81243
1.811493
1.744178
1.606174
1.452794
1.452794
1.300915
1.265476
1.259101
1.257226
1.257226
1.269414
1.443607
1.629612
1.752991
1.752991
1.936559
2.098939
2.370822
2.506389
2.599579
2.654144
2.641581
2.570891
2.450887
2.450887
2.229256
2.064438
1.903933
1.802493
1.73349
1.744366
1.823868
1.914996
2.080751
2.080751
2.222318
2.302945
2.342134
2.352447
2.306508
2.20788
2.060688
1.866994
1.866994
1.653238
1.47567
1.325103
1.286852
1.281039
1.307477
1.38773
1.528547
1.71774
1.71774
1.887433
2.028624
2.079063
2.113564
2.106627
2.035375
1.89662
1.746616
1.561735
1.561735
1.401605
1.298477
1.272226
1.268664
1.283664
1.337478
1.474545
1.669738
1.846744
1.846744
1.990373
2.049062
2.072688
2.071938
2.018124
1.881807
1.739303
1.55836
1.40423
1.40423
1.294915
1.271289
1.266976
1.278789
1.330541
1.457107
1.641988
1.829306
1.974998
1.974998
2.03575
2.076063
2.080189
2.028812
1.902621
1.753928
1.571673
1.415293
1.415293
1.303915
1.273539
1.268851
1.278789
1.329416
1.457294
1.6493
1.824806
1.97856
1.97856
2.043625
2.078688
2.077751
2.034812
1.916871
1.767804
1.597549
1.427294
1.316103
1.316103
1.273351
1.267351
1.278039
1.32004
1.437794
1.626237
1.81468
1.964122
2.034812
2.034812
2.072501
2.077001
2.032937
1.916683
1.773054
1.596049
1.416043
1.307665
1.272976
1.272976
1.266601
1.274476
1.311228
1.422043
1.603924
1.78768
1.944247
2.010624
2.010624
2.04925
2.062188
2.023749
1.900558
1.759366
1.590799
1.40423
1.299415
1.269976
1.269976
1.263414
1.268101
1.285727
1.372167
1.54261
1.726928
1.883682
1.956435
2.001436
2.001436
1.998249
1.969373
1.863619
1.71024
1.523484
1.359041
1.281977
1.261726
1.259851
1.259851
1.261163
1.270164
1.309915
1.443044
1.642175
1.790867
1.863057
1.909746
1.922309
1.922309
1.904683
1.782054
1.649863
1.480545
1.316478
1.270539
1.259851
1.258351
1.259288
1.259288
1.263039
1.284977
1.40948
1.592299
1.755241
1.856119
1.899995
1.919309
1.919309
1.898308
1.793117
1.667113
1.503983
1.348729
1.277664
1.261539
1.259288
1.260601
1.260601
1.267539
1.301852
1.426919
1.635612
1.80568
1.912933
1.963372
1.983623
1.97931
1.97931
1.88237
1.752991
1.602424
1.423356
1.317603
1.270914
1.265101
1.268289
1.289477
1.289477
1.379105
1.547485
1.748303
1.915183
2.018312
2.078126
2.103627
2.101002
2.007436
2.007436
1.884807
1.728615
1.55011
1.419606
1.319665
1.286852
1.289102
1.346291
1.346291
1.471545
1.609549
1.812243
1.981935
2.097251
2.155003
2.178629
2.165129
2.078688
2.078688
1.946309
1.788055
1.618924
1.467607
1.347041
1.307665
1.310477
1.364667
1.475295
1.475295
1.633737
1.824618
1.999186
2.112439
2.162879
2.187067
2.177879
2.099501
1.960935
1.960935
1.813368
1.6238
1.48842
1.355666
1.30654
1.304852
1.346666
1.448669
1.613674
1.613674
1.810743
1.971435
2.090689
2.155753
2.179754
2.165316
2.085439
1.959435
1.959435
1.811493
1.619862
1.473795
1.338603
1.301477
1.294727
1.339916
1.421856
1.585923
1.585923
1.786742
1.95006
2.066313
2.127252
2.153316
2.154066
2.078126
1.946309
1.802493
1.802493
1.609549
1.46592
1.339353
1.293414
1.288164
1.31704
1.419606
1.557797
1.757304
1.757304
1.924746
2.053938
2.104189
2.137003
2.131377
2.073438
1.931309
1.79293
1.611799
1.611799
1.452044
1.338041
1.289852
1.280102
1.31629
1.39673
1.530234
1.737803
1.737803
1.901308
2.044562
2.095376
2.141128
2.140753
2.077001
1.95756
1.81018
1.632612
1.632612
1.470232
1.335416
1.288352
1.283289
1.30729
1.38248
1.524421
1.721115
1.890433
1.890433
2.030874
2.101752
2.13269
2.140565
2.091439
1.965998
1.813555
1.640488
1.482045
1.482045
1.345541
1.297915
1.281789
1.305977
1.38248
1.520671
1.705739
1.878432
2.022437
2.022437
2.104564
2.131377
2.151441
2.095564
1.97931
1.841681
1.669176
1.49292
1.360541
1.360541
1.300352
1.281977
1.304852
1.386605
1.522359
1.706302
1.879745
2.032187
2.032187
2.098564
2.141503
2.150128
2.101564
1.991123
1.845244
1.660926
1.496671
1.359604
1.359604
1.29529
1.280664
1.301102
1.359416
1.482233
1.6508
1.835494
1.980998
2.064438
2.064438
2.102877
2.112252
2.074751
1.959435
1.816555
1.658863
1.483733
1.347604
1.289664
1.289664
1.277101
1.286664
1.352104
1.478483
1.658676
1.860807
2.014374
2.096689
2.133253
2.133253
2.157816
2.117315
2.009124
1.87112
1.701427
1.521796
1.371042
1.29979
1.29979
1.280289
1.293039
1.355104
1.483733
1.649675
1.843744
2.007249
2.089001
2.135878
2.135878
2.153316
2.12294
2.005374
1.865494
1.703302
1.530422
1.389792
1.302415
1.281414
1.281414
1.290227
1.348541
1.471545
1.642175
1.838494
2.006311
2.078314
2.12894
2.142066
2.142066
2.12219
2.033875
1.875432
1.71324
1.534359
1.39823
1.307477
1.283477
1.294165
1.294165
1.345916
1.456544
1.63055
1.821431
1.983436
2.072313
2.131002
2.14169
2.14169
2.127627
2.028624
1.893808
1.732928
1.544672
1.40198
1.304665
1.284039
1.288164
1.288164
1.335978
1.449044
1.619112
1.80793
1.965998
2.071376
2.124065
2.137753
2.129128
2.129128
2.049438
1.909933
1.755616
1.584236
1.426919
1.307477
1.280102
1.287039
1.339166
1.339166
1.452982
1.616299
1.829493
1.983248
2.077376
2.103814
2.077939
2.035187
1.885745
1.885745
1.703115
1.500233
1.328478
1.265851
1.258163
1.257413
1.257413
1.257976
1.257976
1.262664
1.352104
1.822181
2.169066
2.301258
2.29282
2.302383
2.266569
2.247819
2.247819
2.193817
2.175254
2.153316
2.089564
1.936184
1.847869
1.771554
1.797242
1.888558
1.888558
2.010999
2.177504
2.342509
2.427636
2.436262
2.424636
2.385635
2.271257
2.109252
2.109252
1.934497
1.71399
1.562673
1.400668
1.31554
1.289664
1.317603
1.401793
1.536609
1.536609
1.731428
1.88462
2.001249
2.066125
2.093127
2.089939
2.029937
1.88687
1.734428
1.734428
1.550672
1.399543
1.298477
1.274101
1.270351
1.287039
1.353604
1.487858
1.487858
1.685676
1.867932
1.97856
2.031625
2.066688
2.066688
1.996748
1.87712
1.722615
1.722615
1.55311
1.386417
1.292477
1.270164
1.268476
1.283289
1.343666
1.476608
1.674426
1.674426
1.846931
1.981935
2.046813
2.085626
2.078688
2.015687
1.883682
1.738928
1.567923
1.567923
1.39823
1.296414
1.270914
1.269414
1.286102
1.348541
1.472482
1.680239
1.840181
1.840181
1.978748
2.051875
2.073251
2.075313
2.016999
1.896245
1.748866
1.573548
1.573548
1.406106
1.304852
1.273914
1.267351
1.280852
1.332228
1.45842
1.652863
1.825368
1.825368
1.970498
2.040625
2.068188
2.076063
2.027874
1.903746
1.755241
1.57261
1.418106
1.418106
1.300915
1.271101
1.266414
1.277476
1.319478
1.438169
1.633737
1.80643
1.956247
1.956247
2.021312
2.056188
2.061438
2.011749
1.737615
1.569798
1.39673
1.301102
1.268664
1.268664
1.264351
1.270914
1.30204
1.398793
1.57336
1.770804
1.919871
1.998061
2.021499
2.021499
2.016624
1.98231
1.855744
1.708365
1.537734
1.360916
1.280102
1.263226
1.261539
1.261539
1.263976
1.276539
1.336728
1.494233
1.688114
1.847681
1.914808
1.950622
1.949872
1.949872
1.916308
1.80718
1.655113
1.47417
1.31929
1.271664
1.259851
1.258913
1.260226
1.260226
1.265289
1.29829
1.444544
1.641425
1.79143
1.877682
1.923621
1.930371
1.930371
1.902058
1.785242
1.641237
1.48017
1.32379
1.273726
1.260788
1.259288
1.260976
1.260976
1.269226
1.308602
1.46967
1.665426
1.819555
1.915934
1.963935
1.979685
1.959997
1.959997
1.848056
1.724115
1.56586
1.38773
1.300165
1.266414
1.262851
1.265851
1.284789
1.284789
1.374979
1.55236
1.739866
1.925121
2.016624
2.074188
2.091626
2.083189
1.985873
1.985873
1.840369
1.684926
1.514296
1.380792
1.303727
1.281039
1.289664
1.351166
1.351166
1.463857
1.63655
1.841119
2.014749
2.110564
2.172817
2.183504
2.174504
2.061625
2.061625
1.932621
1.776429
1.594736
1.459732
1.341978
1.305977
1.31629
1.384355
1.506984
1.506984
1.664676
1.872057
2.03725
2.140753
2.19738
2.202067
2.188192
2.101002
1.96806
1.96806
1.798742
1.619674
1.472107
1.353979
1.312165
1.31854
1.37948
1.495171
1.655488
1.655488
1.848244
2.009874
2.13419
2.181817
2.19363
2.181817
2.089939
1.951184
1.951184
1.787117
1.605611
1.45842
1.338416
1.299415
1.29679
1.352104
1.452044
1.608424
1.608424
1.805492
1.96431
2.088251
2.13794
2.159128
2.148066
2.068376
1.944059
1.773617
1.773617
1.586111
1.441356
1.320978
1.289102
1.282914
1.317978
1.416043
1.566423
1.751303
1.751303
1.936559
2.062376
2.114127
2.146753
2.129503
2.047
1.918746
1.757866
1.577861
1.577861
1.434794
1.318353
1.280852
1.276914
1.311228
1.39823
1.54411
1.751303
1.916308
1.916308
2.0395
2.101752
2.12669
2.119002
2.052438
1.915746
1.767054
1.588548
1.588548
1.431606
1.32004
1.281602
1.277664
1.30429
1.391667
1.531359
1.735365
1.911808
1.911808
2.052438
2.105689
2.13794
2.131565
2.06725
1.937684
1.786367
1.604674
1.458607
1.458607
1.332416
1.288164
1.284414
1.308602
1.394105
1.542985
1.735553
1.910683
2.047
2.047
2.109439
2.147503
2.150316
2.090876
1.960747
1.81093
1.63955
1.471357
1.344229
1.344229
1.296977
1.283102
1.309915
1.384917
1.520859
1.71849
1.898308
2.037625
2.037625
2.102877
2.137565
2.13644
2.084314
1.956247
1.804743
1.6268
1.441356
1.327728
1.327728
1.282164
1.274664
1.29454
1.359604
1.497608
1.685864
1.869807
2.016437
2.092939
2.092939
2.13419
2.14169
2.095001
1.97631
1.836244
1.652675
1.486733
1.353041
1.298102
1.298102
1.283852
1.30504
1.390167
1.520671
1.702364
1.887995
2.031812
2.107377
2.144691
2.144691
2.147503
2.101939
1.983623
1.847869
1.676864
1.495546
1.362042
1.29979
1.29979
1.283664
1.299227
1.378355
1.506608
1.689239
1.882745
2.028062
2.107377
2.149566
2.149566
2.151441
2.119565
2.001249
1.861744
1.686239
1.520859
1.381355
1.300727
1.284039
1.284039
1.30054
1.368229
1.503046
1.677239
1.87262
2.029749
2.103814
2.148441
2.153128
2.153128
2.124253
2.013061
1.872057
1.71024
1.528547
1.382855
1.305602
1.285914
1.29454
1.29454
1.354729
1.499858
1.661113
1.848619
2.005561
2.093876
2.14394
2.150503
2.133253
2.133253
2.019812
1.864369
1.703864
1.526859
1.394293
1.305227
1.284039
1.294352
1.294352
1.356604
1.47942
1.657363
1.862682
2.024687
2.107752
2.138503
2.148441
2.12594
2.12594
2.025437
1.903933
1.741366
1.566423
1.408168
1.308602
1.275226
1.269601
1.278602
1.278602
1.297727
1.394105
1.55461
1.691864
1.742116
1.753179
1.71099
1.706677
1.606174
1.606174
1.502671
1.443794
1.583111
1.607487
1.48317
1.38173
1.394668
1.452232
1.654926
1.654926
1.894745
2.222693
2.515952
2.609517
2.651893
2.606142
2.568078
2.494014
2.494014
2.377198
2.150878
1.948934
1.79293
1.628675
1.552735
1.534172
1.573923
1.668988
1.668988
1.782992
1.971435
2.108877
2.198317
2.220255
2.215755
2.159128
2.053375
1.906183
1.906183
1.735553
1.54336
1.399543
1.29754
1.275039
1.275789
1.300727
1.393355
1.558173
1.558173
1.759929
1.923434
2.035187
2.080376
2.102502
2.086189
2.002374
1.860057
1.696364
1.696364
1.516171
1.377417
1.283289
1.268289
1.269789
1.288352
1.368042
1.520859
1.520859
1.706115
1.876745
2.003874
2.063875
2.083001
2.082814
1.990186
1.852369
1.702364
1.702364
1.521609
1.363167
1.283289
1.268851
1.268289
1.284789
1.356041
1.499296
1.688676
1.688676
1.868119
1.998249
2.055438
2.073813
2.075126
2.001249
1.871307
1.721678
1.549922
1.549922
1.383605
1.287789
1.270726
1.269601
1.284602
1.355479
1.497233
1.689989
1.866057
1.866057
2.016437
2.063688
2.098752
2.096689
2.019437
1.887058
1.73649
1.554985
1.554985
1.396355
1.297727
1.270914
1.268289
1.287602
1.351541
1.476983
1.681364
1.855369
1.855369
1.996748
2.070063
2.093314
2.086376
2.024687
1.898495
1.741366
1.572423
1.402918
1.402918
1.294352
1.272039
1.267539
1.278414
1.334666
1.457857
1.6493
1.834556
1.969373
1.969373
2.034437
2.066875
2.072313
2.003499
1.875432
1.724678
1.542047
1.374979
1.288352
1.288352
1.265851
1.263226
1.268101
1.295477
1.387917
1.580111
1.750366
1.892308
1.960372
1.960372
1.983436
1.985873
1.933371
1.817868
1.660926
1.477545
1.321728
1.268289
1.268289
1.261726
1.260038
1.262289
1.273164
1.322853
1.490671
1.677426
1.815805
1.887058
1.887058
1.924184
1.920434
1.876182
1.769679
1.616112
1.433669
1.301852
1.266039
1.259288
1.259288
1.258538
1.260601
1.266976
1.303915
1.453919
1.646113
1.80118
1.878432
1.932809
1.932809
1.938247
1.88912
1.780929
1.648925
1.476795
1.327916
1.270539
1.261351
1.259851
1.259851
1.261351
1.270539
1.332041
1.497421
1.693927
1.857432
1.942184
1.989623
1.989623
2.014561
1.97931
1.881245
1.732553
1.57036
1.403105
1.299227
1.268476
1.265289
1.265289
1.273539
1.29904
1.403105
1.588923
1.795555
1.951935
2.043437
2.092001
2.108127
2.108127
2.084314
1.982498
1.844494
1.677051
1.507921
1.373667
1.290227
1.282539
1.290789
1.290789
1.348166
1.48392
1.653425
1.855182
2.020374
2.103627
2.161191
2.174691
2.147316
2.147316
2.034062
1.913308
1.737428
1.55536
1.417731
1.321728
1.292477
1.302415
1.302415
1.375729
1.48767
1.660363
1.855369
2.024312
2.124065
2.172066
2.174879
2.161191
2.161191
2.0635
1.914996
1.751678
1.569235
1.422418
1.315353
1.291164
1.30129
1.351166
1.351166
1.479045
1.643863
1.844119
2.011186
2.111877
2.158191
2.173941
2.158566
2.056
2.056
1.910871
1.747928
1.562673
1.421293
1.313853
1.281227
1.285727
1.331666
1.443794
1.443794
1.605049
1.792367
1.960747
2.071188
2.139253
2.14394
2.122752
2.030499
1.888745
1.888745
1.739303
1.406106
1.294352
1.276164
1.279352
1.313102
1.416793
1.576173
1.766304
1.766304
1.934684
2.039312
2.107002
2.125002
2.120315
2.028062
1.894745
1.732178
1.549172
1.549172
1.412856
1.299415
1.277851
1.275976
1.309352
1.406668
1.548047
1.748678
1.923059
1.923059
2.031437
2.103627
2.120315
2.116377
2.037437
1.904871
1.749053
1.563423
1.422231
1.422231
1.30354
1.278789
1.276164
1.30879
1.403293
1.543922
1.743991
1.917058
2.040437
2.040437
2.099876
2.13419
2.127252
2.05825
1.923996
1.771179
1.582548
1.421856
1.312728
1.312728
1.280477
1.279727
1.307852
1.389042
1.539984
1.735928
1.907496
2.048687
2.048687
2.103627
2.131377
2.127815
2.062188
1.935809
1.764429
1.587236
1.424856
1.309165
1.309165
1.280852
1.272601
1.299977
1.370292
1.515234
1.719802
1.896245
2.033875
2.098377
2.098377
2.13869
2.135503
2.075126
1.949685
1.792367
1.601486
1.446982
1.322853
1.283289
1.283289
1.277101
1.300915
1.381355
1.517109
1.715115
1.906746
2.046062
2.104939
2.12969
2.12969
2.13644
2.075876
1.932434
1.784679
1.611799
1.445669
1.324915
1.281602
1.281602
1.271664
1.284227
1.351916
1.472482
1.666363
1.855932
1.980998
2.052063
2.103439
2.103439
2.095939
2.0425
1.927746
1.78618
1.604674
1.428606
1.328853
1.279727
1.273726
1.273726
1.287039
1.350229
1.48317
1.678926
1.849556
2.009686
2.076063
2.118065
2.125752
2.125752
2.083938
1.951372
1.810743
1.628862
1.460482
1.340853
1.286664
1.274664
1.289852
1.289852
1.351166
1.47567
1.658863
1.851057
1.999186
2.084314
2.128002
2.124253
2.124253
2.084689
1.968248
1.830806
1.662613
1.488608
1.352854
1.286664
1.276914
1.288727
1.288727
1.343479
1.48392
1.663738
1.830243
1.996748
2.080189
2.123877
2.137003
2.097439
2.097439
1.985311
1.842619
1.673489
1.496108
1.360729
1.290977
1.276914
1.293227
1.342728
1.342728
1.46667
1.6523
1.837744
1.993561
2.076813
2.125002
2.130815
2.098377
1.991686
1.991686
1.847306
1.683614
1.502858
1.361667
1.290602
1.276914
1.283664
1.334291
1.334291
1.450169
1.629987
1.815055
1.998999
2.069876
2.11994
2.130065
2.119377
2.005561
2.005561
1.873932
1.697114
1.496108
1.344604
1.284227
1.272226
1.278789
1.320978
1.431606
1.431606
1.585361
1.759741
1.883307
1.913871
1.910871
1.856682
1.781679
1.636362
1.455419
1.455419
1.287789
1.260788
1.257788
1.257413
1.257226
1.257413
1.259663
1.413606
1.755429
1.755429
1.992061
2.132503
2.229818
2.310633
2.45895
2.504514
2.535827
2.503764
2.380573
2.380573
2.208442
2.053563
1.901871
1.818806
1.801555
1.837931
1.888933
2.008374
2.008374
2.180129
2.28907
2.38076
2.386198
2.374948
2.347759
2.21388
2.068563
1.864557
1.864557
1.655301
1.48317
1.324165
1.285727
1.283289
1.318353
1.420168
1.56136
1.755054
1.755054
1.921371
2.0365
2.092564
2.110752
2.096876
2.004624
1.866057
1.713802
1.521796
1.521796
1.371229
1.284227
1.268664
1.266976
1.289477
1.358104
1.501921
1.699552
1.868682
1.868682
1.97931
2.04775
2.070438
2.056375
1.978748
1.861557
1.684551
1.500233
1.500233
1.359229
1.278414
1.267726
1.269414
1.280664
1.345916
1.487295
1.682301
1.866057
1.866057
1.986998
2.047188
2.073438
2.073251
1.995248
1.860432
1.698989
1.525921
1.377042
1.377042
1.290789
1.268289
1.267164
1.285164
1.339541
1.48842
1.673676
1.864932
1.994686
1.994686
2.059375
2.092752
2.070438
2.003499
1.869619
1.725428
1.535297
1.380605
1.286852
1.286852
1.268664
1.266976
1.280664
1.341603
1.478483
1.680051
1.851431
1.993748
1.993748
2.051875
2.081313
2.072313
2.019624
1.88687
1.733865
1.537359
1.387542
1.287414
1.287414
1.268664
1.264914
1.276351
1.327916
1.457107
1.655676
1.836806
1.97181
2.032562
2.032562
2.074188
2.071376
2.002561
1.870182
1.732178
1.537172
1.385105
1.286477
1.268476
1.268476
1.263414
1.269976
1.308977
1.416793
1.603174
1.775117
1.929246
1.983623
2.022812
2.022812
2.018312
1.969748
1.843556
1.691302
1.500796
1.338416
1.277101
1.261913
1.260601
1.260601
1.263414
1.275976
1.340103
1.522171
1.687739
1.836619
1.905621
1.936747
1.936747
1.944059
1.888183
1.757116
1.605799
1.429544
1.29679
1.265289
1.259288
1.258351
1.258351
1.259663
1.265101
1.295102
1.441544
1.625112
1.788992
1.860244
1.899995
1.901308
1.901308
1.872432
1.749428
1.610674
1.448294
1.297915
1.267164
1.259663
1.258351
1.260226
1.260226
1.265664
1.302977
1.453169
1.64855
1.80643
1.898308
1.947247
1.959997
1.917246
1.917246
1.818618
1.676301
1.508859
1.346479
1.277851
1.263039
1.262101
1.263976
1.280477
1.280477
1.362979
1.549922
1.72899
1.907683
2.006124
2.066313
2.080564
2.045125
2.045125
1.944059
1.81618
1.642925
1.475295
1.351729
1.283664
1.270726
1.282539
1.331853
1.331853
1.455044
1.63355
1.820493
1.997311
2.093502
2.145628
2.160628
2.132878
2.020937
2.020937
1.883495
1.719052
1.535484
1.40123
1.305227
1.292664
1.299227
1.361292
1.490858
1.490858
1.656988
1.844869
2.016437
2.112439
2.161941
2.177691
2.156128
2.04625
1.920246
1.920246
1.742303
1.564548
1.424856
1.327916
1.292289
1.298665
1.349854
1.472482
1.472482
1.63655
1.841119
1.998436
2.109064
2.163253
2.170379
2.147691
2.051687
1.910308
1.910308
1.755804
1.566423
1.416043
1.312915
1.294915
1.292852
1.340103
1.453169
1.622862
1.622862
1.818806
1.985498
2.088439
2.137003
2.164004
2.148441
2.050562
1.920434
1.744553
1.744553
1.556298
1.420731
1.306915
1.281227
1.283852
1.326041
1.429169
1.595111
1.797992
1.797992
1.949497
2.060126
2.139815
2.14619
2.125752
2.03575
1.904121
1.743991
1.743991
1.561173
1.40648
1.304852
1.281977
1.276726
1.313665
1.420168
1.56361
1.759554
1.759554
1.936747
2.060688
2.109814
2.144503
2.128377
2.04625
1.906933
1.742678
1.566048
1.566048
1.422793
1.30354
1.275789
1.277101
1.307665
1.389042
1.550672
1.752991
1.918371
1.918371
2.054688
2.104564
2.129503
2.121815
2.04925
1.914058
1.761054
1.581986
1.422043
1.422043
1.308227
1.275789
1.275789
1.305227
1.394668
1.534547
1.734241
1.923996
1.923996
2.051875
2.104752
2.139815
2.122565
2.050375
1.926059
1.785992
1.592299
1.440231
1.440231
1.324353
1.278414
1.277851
1.298665
1.370667
1.537359
1.715865
1.89812
2.042125
2.042125
2.116377
2.135878
2.134003
2.066875
1.947434
1.788805
1.613487
1.451669
1.322478
1.322478
1.285539
1.274476
1.297352
1.382105
1.519734
1.711177
1.884807
2.03875
2.082438
2.082438
2.144691
2.151628
2.080189
1.957372
1.805118
1.629237
1.454669
1.338228
1.338228
1.283477
1.275976
1.292852
1.368042
1.511296
1.713802
1.884245
2.030874
2.102877
2.102877
2.13644
2.14094
2.089939
1.968248
1.820681
1.635425
1.470607
1.342541
1.289289
1.289289
1.277476
1.297352
1.37798
1.502108
1.700302
1.878245
2.027312
2.097814
2.133815
2.133815
2.138315
2.085626
1.963185
1.80943
1.627925
1.460857
1.32229
1.270726
1.281414
1.281414
1.338416
1.461232
1.644988
1.831556
1.981748
2.080751
2.10869
2.116752
2.071751
2.071751
1.955497
1.812993
1.643675
1.469857
1.342728
1.287039
1.272601
1.286477
1.342541
1.342541
1.46892
1.662051
1.854619
2.003124
2.085814
2.127815
2.137565
2.095564
1.984748
1.984748
1.851431
1.6538
1.483545
1.359416
1.287227
1.277664
1.284227
1.338978
1.338978
1.465545
1.654551
1.831368
1.995623
2.075876
2.116752
2.132128
2.104752
2.000124
2.000124
1.846181
1.676301
1.501921
1.359041
1.290602
1.277664
1.285727
1.334291
1.449607
1.449607
1.6283
1.826118
1.984748
2.064813
2.131377
2.134565
2.113002
2.009499
1.873932
1.873932
1.697677
1.521046
1.370667
1.291539
1.274664
1.289852
1.329228
1.442482
1.602611
1.602611
1.80343
1.970498
2.077376
2.13044
2.13119
2.118065
2.003686
1.863994
1.863994
1.696364
1.527797
1.371792
1.293789
1.273726
1.279539
1.323978
1.438544
1.601111
1.601111
1.80718
1.977623
2.085064
2.124065
2.14094
2.092001
1.987748
1.841306
1.700864
1.700864
1.517109
1.389605
1.286289
1.272414
1.269226
1.276539
1.291539
1.361479
1.48092
1.48092
1.614049
1.675739
1.673676
1.656051
1.616487
1.527234
1.386605
1.280852
1.263601
1.263601
1.264351
1.31329
1.39598
1.414543
1.443044
1.568298
1.802118
2.118815
2.118815
2.387698
2.586079
2.653956
2.653769
2.653956
2.623393
2.542578
2.366322
2.148441
2.148441
1.933559
1.733115
1.643863
1.609549
1.627737
1.71549
1.833618
2.001998
2.14544
2.14544
2.252506
2.275194
2.263194
2.242943
2.122002
1.949122
1.771554
1.580111
1.422231
1.422231
1.31104
1.277289
1.273914
1.292289
1.37948
1.527047
1.703677
1.88912
2.013999
2.013999
2.074376
2.105314
2.086939
2.003124
1.874682
1.70949
1.525547
1.376667
1.281977
1.281977
1.267351
1.266789
1.278789
1.333728
1.474358
1.670301
1.833243
1.98006
1.98006
2.039875
2.070438
2.063125
1.995998
1.862494
1.715677
1.529484
1.37873
1.286289
1.286289
1.269039
1.264726
1.279914
1.329603
1.462732
1.658676
1.842806
1.97631
2.046438
2.046438
2.074751
2.070251
2.015124
1.876182
1.71999
1.538484
1.380417
1.284789
1.267164
1.267164
1.264351
1.273914
1.32154
1.450919
1.64705
1.818431
1.970123
2.032562
2.073251
2.073251
2.065376
2.006311
1.890245
1.73274
1.55686
1.388105
1.288914
1.266414
1.266414
1.264539
1.275039
1.314603
1.430856
1.632237
1.823118
1.966935
2.029749
2.070626
2.070626
2.065188
2.012686
1.89887
1.728428
1.556485
1.394105
1.289664
1.268476
1.264539
1.264539
1.271101
1.305227
1.412293
1.607112
1.788055
1.932621
2.004999
2.042875
2.049062
2.049062
1.994311
1.876557
1.71924
1.547485
1.386792
1.287977
1.265664
1.261913
1.266414
1.266414
1.284789
1.368042
1.543172
1.728053
1.886308
1.951935
1.994686
1.989998
1.989998
1.947997
1.824806
1.679489
1.506796
1.337103
1.273164
1.260413
1.259288
1.260976
1.260976
1.268664
1.30579
1.457107
1.633362
1.792367
1.879557
1.911246
1.918559
1.88987
1.88987
1.759179
1.621924
1.440419
1.302227
1.268289
1.259101
1.257976
1.259476
1.263226
1.263226
1.286102
1.432919
1.616862
1.764804
1.854432
1.908433
1.915934
1.884995
1.780179
1.780179
1.643488
1.473232
1.321165
1.271664
1.260038
1.259476
1.259851
1.265664
1.265664
1.309165
1.446607
1.648738
1.819555
1.914246
1.965247
1.986811
1.97856
1.861932
1.861932
1.734428
1.569985
1.40123
1.301477
1.269226
1.263226
1.266789
1.287039
1.374042
1.374042
1.554422
1.760491
1.925309
2.021687
2.095376
2.101939
2.095189
2.002561
1.857432
1.857432
1.699739
1.518046
1.38623
1.292852
1.282164
1.284227
1.337478
1.463107
1.614799
1.614799
1.822931
1.989623
2.100252
2.149191
2.174129
2.158941
2.062376
1.920809
1.920809
1.753553
1.572798
1.432356
1.317978
1.286664
1.29454
1.358292
1.464795
1.642175
1.642175
1.837368
2.012499
2.11694
2.165691
2.186692
2.165691
2.065938
1.927559
1.782992
1.782992
1.581986
1.433106
1.311603
1.289102
1.290977
1.341041
1.437606
1.603924
1.802305
1.802305
1.97706
2.101377
2.146565
2.167566
2.153878
2.073438
1.939372
1.767429
1.588736
1.588736
1.430481
1.309727
1.288352
1.284039
1.320603
1.430481
1.589674
1.782429
1.964122
1.964122
2.080564
2.133253
2.159691
2.148628
2.065751
1.927559
1.764054
1.584048
1.584048
1.423543
1.310853
1.278789
1.278977
1.31029
1.411168
1.558548
1.759554
1.928684
1.928684
2.056938
2.117315
2.152378
2.13344
2.062751
1.924184
1.763116
1.583861
1.430481
1.430481
1.30879
1.275414
1.275039
1.304477
1.39073
1.536984
1.73649
1.910871
2.044375
2.044375
2.115814
2.138878
2.133628
2.057125
1.929246
1.778679
1.596986
1.433294
1.310853
1.310853
1.281414
1.274664
1.297352
1.371979
1.529859
1.724678
1.904308
2.044
2.110564
2.110564
2.141315
2.147128
2.068188
1.952872
1.784117
1.611049
1.437794
1.321915
1.321915
1.282164
1.272789
1.295852
1.372167
1.509046
1.708552
1.891183
2.032937
2.110377
2.110377
2.147878
2.142815
2.092376
1.970498
1.81093
1.627175
1.457482
1.328103
1.286289
1.286289
1.278789
1.297165
1.368979
1.511859
1.70349
1.883682
2.034625
2.113564
2.148066
2.148066
2.149378
2.095752
1.96206
1.827431
1.64255
1.471545
1.347041
1.287414
1.275976
1.275976
1.294727
1.368604
1.497608
1.683426
1.876182
2.025249
2.100439
2.144878
2.137003
2.137003
2.111315
1.982686
1.832493
1.655301
1.481108
1.344791
1.290227
1.277851
1.277851
1.291727
1.361104
1.486358
1.668988
1.866807
2.018499
2.089751
2.140003
2.156316
2.156316
2.107189
1.987561
1.847494
1.672364
1.511484
1.360729
1.289102
1.277101
1.292477
1.292477
1.346666
1.47867
1.662426
1.858744
2.021124
2.101564
2.154628
2.154628
2.12369
2.12369
2.007436
1.859307
1.694489
1.512609
1.362792
1.289477
1.277101
1.284602
1.341041
1.341041
1.46217
1.640863
1.823118
1.989061
2.056938
2.110002
2.128002
2.084689
2.084689
1.972748
1.836619
1.657551
1.47792
1.349479
1.281789
1.270351
1.277101
1.314228
1.314228
1.424293
1.596236
1.792742
1.973123
2.074751
2.122752
2.128565
2.104564
2.001998
2.001998
1.855369
1.699552
1.513921
1.379292
1.294915
1.275414
1.284039
1.323603
1.441919
1.441919
1.607299
1.810555
1.977998
2.080376
2.12819
2.156316
2.12444
2.022062
1.88687
1.88687
1.71924
1.534922
1.381542
1.288727
1.274664
1.282352
1.328665
1.437419
1.437419
1.593799
1.806243
1.968435
2.075313
2.126878
2.151066
2.13194
2.033875
1.897558
1.897558
1.722615
1.54261
1.393917
1.293414
1.281602
1.281414
1.319478
1.425231
1.580111
1.580111
1.787117
1.96356
2.065751
2.13494
2.144878
2.12369
2.039312
1.903371
1.73724
1.73724
1.551985
1.408918
1.294352
1.276914
1.283852
1.317415
1.418293
1.577673
1.785054
1.785054
1.954747
2.074938
2.123877
2.142066
2.137378
2.045875
1.901683
1.749428
1.749428
1.570923
1.419043
1.31704
1.281414
1.279914
1.396168
1.54711
1.757116
1.938247
2.062751
2.062751
2.127815
2.154628
2.11994
2.022437
1.854807
1.656238
1.413418
1.279727
1.259663
1.259663
1.257788
1.257413
1.258351
1.259663
1.272789
1.355291
1.575798
1.751491
2.091626
2.091626
2.341759
2.39126
2.256256
2.089001
1.926809
1.79293
1.700302
1.677426
1.776242
1.776242
1.856307
1.945559
2.001436
2.088814
2.233756
2.390511
2.494201
2.519514
2.548015
2.548015
2.518014
2.408324
2.228506
2.043062
1.822931
1.6373
1.468732
1.374604
1.374604
1.347604
1.362792
1.457294
1.561173
1.727303
1.89212
2.015124
2.079813
2.100814
2.100814
2.091814
2.030874
1.903183
1.738366
1.566048
1.410981
1.299227
1.273914
1.267726
1.267726
1.280102
1.341228
1.452419
1.650238
1.818618
1.969935
2.041375
2.076251
2.070438
2.070438
2.013061
1.890995
1.739491
1.55236
1.39073
1.295477
1.268476
1.267164
1.275226
1.275226
1.31254
1.433106
1.623425
1.812055
1.970123
2.03725
2.073626
2.072876
2.072876
2.031437
1.89437
1.748491
1.568673
1.398605
1.295852
1.272226
1.264726
1.273351
1.273351
1.312915
1.427856
1.620612
1.819368
1.958122
2.042312
2.083751
2.085251
2.040812
2.040812
1.926809
1.771742
1.588548
1.423356
1.31029
1.269414
1.266039
1.272601
1.31029
1.31029
1.426919
1.605236
1.791992
1.954185
2.031062
2.076063
2.081876
2.04625
1.919309
1.919309
1.778304
1.599799
1.430669
1.31179
1.272601
1.264914
1.269601
1.303165
1.303165
1.405918
1.572423
1.775679
1.932059
2.017374
2.071751
2.073438
2.035
1.921934
1.921934
1.767241
1.600361
1.420168
1.305602
1.268289
1.264539
1.267726
1.289664
1.375542
1.375542
1.547485
1.738741
1.895308
1.996373
2.037437
2.043625
2.019999
1.900933
1.743241
1.743241
1.573735
1.40498
1.30054
1.266976
1.261351
1.263601
1.275039
1.340478
1.491421
1.491421
1.676676
1.827431
1.921371
1.974623
1.977998
1.949309
1.846181
1.695614
1.695614
1.524609
1.348729
1.275789
1.260976
1.259101
1.259851
1.263601
1.290039
1.404043
1.404043
1.593236
1.749991
1.872432
1.909558
1.945184
1.908433
1.806805
1.670488
1.509046
1.509046
1.336353
1.274289
1.260226
1.258351
1.259101
1.264726
1.284977
1.39448
1.586861
1.586861
1.772492
1.882745
1.950997
1.959435
1.949309
1.862682
1.723178
1.56361
1.385105
1.385105
1.295477
1.263226
1.261539
1.261726
1.269976
1.313665
1.461982
1.659426
1.839244
1.839244
1.957372
2.017374
2.049813
2.053563
1.956435
1.837181
1.683614
1.505296
1.505296
1.360541
1.289102
1.269976
1.274101
1.300727
1.397293
1.56736
1.769116
1.939934
1.939934
2.0665
2.127815
2.145815
2.148066
2.078876
1.928496
1.779617
1.605611
1.449419
1.449419
1.334853
1.301102
1.298665
1.332978
1.449419
1.609549
1.804368
1.985686
2.111877
2.111877
2.171316
2.20113
2.191567
2.115252
1.983998
1.835494
1.634487
1.48467
1.361854
1.361854
1.30729
1.303165
1.356604
1.458232
1.611424
1.794055
1.984373
2.11619
2.186317
2.186317
2.19963
2.200192
2.12294
1.990748
1.835494
1.652863
1.485233
1.349854
1.349854
1.303352
1.290602
1.326041
1.423356
1.577298
1.771554
1.943872
2.079438
2.142815
2.142815
2.176754
2.177691
2.104189
1.968998
1.820118
1.631675
1.46817
1.340478
1.286289
1.286289
1.278977
1.307852
1.390543
1.534359
1.733115
1.902621
2.0425
2.114689
2.144128
2.144128
2.144691
2.080564
1.955872
1.800055
1.617424
1.449232
1.31854
1.278789
1.278602
1.278602
1.295102
1.363354
1.507733
1.696739
1.87787
2.030124
2.095376
2.132128
2.132128
2.138128
2.071751
1.945934
1.79743
1.611237
1.447357
1.325478
1.280664
1.273914
1.273914
1.29454
1.352479
1.489733
1.680426
1.859119
2.013061
2.094439
2.129315
2.130627
2.130627
2.088626
1.96206
1.812618
1.6328
1.47042
1.343104
1.286664
1.276539
1.288727
1.288727
1.348354
1.490108
1.674239
1.854619
2.013624
2.086564
2.130252
2.145253
2.097064
2.097064
1.97781
1.833618
1.653238
1.485983
1.359416
1.287039
1.275226
1.291352
1.291352
1.349291
1.471732
1.671239
1.851431
2.008936
2.095001
2.13269
2.139253
2.113002
2.113002
1.997873
1.846931
1.672551
1.506234
1.353791
1.288352
1.280289
1.285539
1.346854
1.346854
1.485608
1.662988
1.849181
2.014374
2.090689
2.144691
2.153316
2.12294
2.014936
2.014936
1.870745
1.693927
1.515796
1.386605
1.299227
1.280664
1.294165
1.349479
1.472857
1.472857
1.638238
1.833431
1.987748
2.078126
2.13644
2.137565
2.11169
2.007436
2.007436
1.859494
1.696739
1.507171
1.363542
1.286289
1.272414
1.275976
1.307852
1.426919
1.426919
1.583298
1.793867
1.970685
2.045687
2.099876
2.124627
2.095752
1.997873
1.866619
1.866619
1.704802
1.524609
1.387542
1.292102
1.274289
1.283289
1.326978
1.444919
1.611612
1.611612
1.803805
1.971248
2.082814
2.125565
2.141128
2.128377
2.031812
1.900933
1.724115
1.724115
1.55011
1.405355
1.300352
1.285914
1.284039
1.326416
1.433294
1.596424
1.790305
1.790305
1.963747
2.065938
2.12594
2.147691
2.132878
2.039687
1.909746
1.733303
1.733303
1.55836
1.410981
1.306915
1.278414
1.281789
1.316853
1.416231
1.576361
1.776804
1.776804
1.95756
2.068376
2.129877
2.138503
2.13644
2.059938
1.916496
1.757491
1.570735
1.570735
1.422981
1.31104
1.281977
1.282352
1.317603
1.418856
1.567548
1.767617
1.941997
1.941997
2.05975
2.114877
2.146753
2.130627
2.053188
1.923246
1.762179
1.589861
1.434794
1.434794
1.31479
1.280664
1.281602
1.310103
1.416606
1.563235
1.762929
1.942747
1.942747
2.074001
2.136065
2.158003
2.13869
2.059
1.923996
1.768929
1.592861
1.440419
1.440419
1.325665
1.297165
1.277289
1.295665
1.361479
1.447919
1.591549
1.705177
1.781867
1.781867
1.819555
1.816555
1.754116
1.658301
1.498358
1.359229
1.273539
1.261351
1.261726
1.261726
1.323603
1.427106
1.46142
1.517859
1.659801
1.870182
2.13194
2.344009
2.550078
2.550078
2.641018
2.645518
2.576516
2.479763
2.277632
2.092939
1.900183
1.744178
1.744178
1.6403
1.603549
1.618174
1.684551
1.787304
1.967873
2.124253
2.225693
2.270694
2.270694
2.295633
2.269007
2.170941
2.027874
1.843556
1.646488
1.460482
1.331478
1.279727
1.279727
1.273914
1.290039
1.346854
1.47267
1.669926
1.848994
1.994123
2.061438
2.093689
2.093689
2.096501
2.048125
1.921746
1.774554
1.592861
1.417356
1.30204
1.275039
1.266226
1.266226
1.275414
1.316103
1.432731
1.629237
1.806618
1.949872
2.023562
2.067626
2.067626
2.060875
2.023187
1.914621
1.768366
1.591736
1.419418
1.30429
1.272789
1.266414
1.266414
1.275414
1.305415
1.421481
1.603174
1.791242
1.950622
2.030874
2.062376
2.070063
2.070063
2.035937
1.921934
1.780179
1.612174
1.446982
1.321165
1.276914
1.267726
1.275039
1.275039
1.313665
1.419418
1.592486
1.785429
1.942747
2.022624
2.074751
2.080189
2.04325
2.04325
1.938622
1.789742
1.628487
1.450357
1.325478
1.271476
1.268476
1.273351
1.273351
1.305977
1.584986
1.776992
1.924559
2.027124
2.066875
2.075876
2.056
1.945372
1.80418
1.80418
1.632987
1.46442
1.334103
1.277851
1.266976
1.272226
1.300915
1.381542
1.554047
1.554047
1.764241
1.916683
2.005749
2.067813
2.062751
2.0455
1.943497
1.802868
1.634675
1.634675
1.454482
1.326978
1.272039
1.264914
1.270351
1.285352
1.362417
1.527797
1.710615
1.710615
1.866432
1.973873
2.011749
2.024687
2.010249
1.910308
1.768179
1.601486
1.415668
1.415668
1.306352
1.266789
1.261726
1.262664
1.272226
1.31179
1.448482
1.631862
1.631862
1.799867
1.894933
1.949685
1.969373
1.940497
1.851244
1.715302
1.547485
1.366167
1.366167
1.280289
1.261913
1.259663
1.259851
1.264351
1.285352
1.384917
1.585548
1.759554
1.759554
1.863619
1.920809
1.929434
1.932809
1.849181
1.714927
1.55611
1.368792
1.287039
1.287039
1.263789
1.260038
1.260226
1.266976
1.294727
1.408731
1.612924
1.793305
1.904496
1.904496
1.969373
1.997311
1.991873
1.909371
1.791242
1.633362
1.463107
1.330166
1.330166
1.275226
1.264726
1.266789
1.279164
1.336166
1.492733
1.687364
1.864932
2.006686
2.006686
2.070438
2.105502
2.098377
2.022812
1.893058
1.745678
1.57036
1.418106
1.316665
1.316665
1.282539
1.280477
1.316853
1.414543
1.557423
1.773992
1.947434
2.065751
2.132878
2.132878
2.168129
2.162503
2.097626
1.970685
1.828931
1.6478
1.489358
1.361479
1.309165
1.309165
1.29979
1.334103
1.435356
1.578798
1.782804
1.955872
2.084126
2.146753
2.146753
2.177691
2.184442
2.115064
1.98456
1.834556
1.655863
1.494983
1.366354
1.311415
1.311415
1.291914
1.331478
1.426169
1.555923
1.752428
1.931497
2.065376
2.124065
2.159128
2.159128
2.162316
2.101002
1.97781
1.828368
1.658301
1.488233
1.343853
1.291727
1.290789
1.290789
1.31179
1.379105
1.519921
1.710615
1.899245
2.049625
2.093314
2.137003
2.142628
2.142628
2.083938
1.955497
1.813368
1.636362
1.465732
1.333353
1.285352
1.275976
1.293039
1.293039
1.363354
1.491233
1.677426
1.853682
2.007811
2.076438
2.129315
2.121627
2.121627
2.073251
1.95231
1.817493
1.637487
1.47342
1.346104
1.285164
1.274476
1.286289
1.286289
1.346104
1.468732
1.6538
1.834931
1.993561
2.059938
2.099127
2.112064
2.074001
2.074001
1.96281
1.815993
1.6373
1.472482
1.347604
1.284789
1.275789
1.289664
1.344229
1.344229
1.456732
1.63205
1.824243
1.98006
2.061625
2.102314
2.108315
2.080189
1.968623
1.968623
1.828556
1.662426
1.490671
1.351916
1.288727
1.278039
1.284039
1.335416
1.335416
1.453732
1.6268
1.817493
1.981748
2.068751
2.115064
2.12744
2.091439
1.994498
1.994498
1.853307
1.690364
1.503983
1.37798
1.291352
1.276726
1.284414
1.333166
1.453544
1.453544
1.624362
1.811868
1.966373
2.066313
2.118627
2.127252
2.109064
1.995998
1.861182
1.861182
1.706115
1.512046
1.382105
1.296602
1.282164
1.285727
1.328853
1.444357
1.614049
1.614049
1.805492
1.97106
2.06425
2.116377
2.129877
2.108502
2.008561
1.87937
1.710052
1.710052
1.525921
1.388105
1.298102
1.276914
1.284977
1.327916
1.441919
1.610862
1.610862
1.792742
1.95831
2.057688
2.111877
2.131377
2.120502
2.026937
1.889683
1.73124
1.73124
1.549547
1.39898
1.306352
1.284039
1.286852
1.327728
1.437606
1.592111
1.782054
1.782054
1.945184
2.045125
2.098001
2.125565
2.11094
2.008749
1.869807
1.710052
1.530047
1.530047
1.39073
1.290977
1.272039
1.271851
1.310103
1.382855
1.544485
1.73124
1.903933
1.903933
2.023187
2.082626
2.105689
2.099501
2.019062
1.885182
1.738928
1.558923
1.558923
1.40273
1.294915
1.277664
1.275789
1.304102
1.412481
1.560235
1.755616
1.922871
1.922871
2.036312
2.094439
2.124253
2.121815
2.039312
1.906371
1.749803
1.569985
1.421668
1.421668
1.31629
1.280289
1.277851
1.30729
1.395605
1.54186
1.738928
1.906371
2.035937
2.035937
2.097439
2.120877
2.118065
2.045687
1.932059
1.776242
1.586673
1.429169
1.304665
1.304665
1.284414
1.280664
1.30354
1.386792
1.520484
1.735178
1.900558
2.034625
2.034625
2.089376
2.13494
2.11619
2.0575
1.930934
1.772867
1.586861
1.435356
1.316478
1.316478
1.280477
1.277289
1.29754
1.373479
1.515046
1.712865
1.89287
2.015687
2.093876
2.093876
2.12669
2.124815
2.063125
1.931121
1.782429
1.622862
1.457669
1.321915
1.284039
1.284039
1.274664
1.301102
1.382855
1.508296
1.701989
1.872807
2.027874
2.068376
2.084314
2.084314
2.088251
2.041187
1.920996
1.771554
1.597361
1.435919
1.30429
1.267539
1.267539
1.261351
1.261351
1.263039
1.272226
1.344416
1.464045
1.554798
1.602424
1.610112
1.610112
1.618362
1.57111
1.45842
1.383792
1.404043
1.534359
1.518984
1.457857
1.39073
1.39073
1.428606
1.62155
1.839806
2.10869
2.413574
2.574266
2.653206
2.654144
2.654331
2.654331
2.617205
2.558516
2.389573
2.159316
1.913683
1.746616
1.611424
1.54786
1.55761
1.55761
1.593236
1.701239
1.870182
2.022249
2.146003
2.200755
2.219505
2.191379
2.191379
2.131002
1.995061
1.838119
1.671239
1.493671
1.352666
1.287227
1.272039
1.280477
1.280477
1.321915
1.445107
1.618924
1.80418
1.958497
2.03875
2.072688
2.088439
2.05
2.05
1.931121
1.793492
1.624925
1.438356
1.313478
1.273539
1.266789
1.271664
1.295477
1.295477
1.385855
1.561923
1.758616
1.921371
2.001436
2.046813
2.065001
2.036687
1.934122
1.934122
1.79518
1.627925
1.450169
1.321165
1.273164
1.267539
1.270351
1.302977
1.38098
1.38098
1.543922
1.747366
1.921371
2.008561
2.060313
2.065938
2.0455
1.943122
1.943122
1.804368
1.63955
1.466857
1.334103
1.276726
1.267726
1.272976
1.29529
1.384355
1.384355
1.55836
1.750366
1.907496
2.015874
2.061625
2.075688
2.056938
1.951184
1.815805
1.815805
1.674239
1.476045
1.342166
1.278789
1.267726
1.271476
1.294727
1.377229
1.527797
1.527797
1.738366
1.898495
2.004061
2.054313
2.079626
2.0635
1.96356
1.824618
1.671614
1.671614
1.499483
1.350229
1.275789
1.268664
1.269601
1.288164
1.355666
1.512234
1.512234
1.71024
1.874495
1.979873
2.04025
2.052438
2.045125
1.952872
1.822931
1.663738
1.663738
1.470607
1.332791
1.271664
1.265476
1.263601
1.277851
1.314603
1.459732
1.655113
1.655113
1.832118
1.931497
1.989998
2.011749
1.999186
1.905808
1.772679
1.613674
1.420168
1.420168
1.30204
1.265476
1.260226
1.260976
1.265289
1.282727
1.376104
1.558923
1.722053
1.722053
1.850494
1.905433
1.922121
1.913121
1.829868
1.696739
1.561173
1.362229
1.362229
1.282727
1.261726
1.258538
1.258351
1.260788
1.271664
1.326603
1.514296
1.678176
1.678176
1.818618
1.883495
1.914246
1.906933
1.838869
1.722803
1.56661
1.39523
1.287977
1.287977
1.262289
1.259476
1.259851
1.263226
1.275976
1.358104
1.54936
1.726178
1.867182
1.867182
1.937122
1.979685
1.986436
1.928309
1.797992
1.667301
1.485795
1.349854
1.275976
1.275976
1.267726
1.263976
1.272789
1.315165
1.451669
1.647238
1.978748
2.051687
2.095752
2.095752
2.095376
2.04475
1.928871
1.787304
1.620799
1.450169
1.328103
1.287789
1.283102
1.283102
1.302415
1.378167
1.516359
1.702739
1.905621
2.052063
2.113564
2.145815
2.165504
2.165504
2.11769
1.992248
1.846181
1.672551
1.512984
1.369354
1.304852
1.288914
1.288914
1.309915
1.401605
1.530047
1.717927
1.905996
2.068001
2.126315
2.182567
2.173191
2.173191
2.128377
2.006874
1.857432
1.683051
1.516359
1.372354
1.30804
1.290227
1.30804
1.30804
1.379105
1.512046
1.699552
1.884433
2.042875
2.105877
2.149003
2.155003
2.114877
2.114877
2.004624
1.863619
1.695239
1.514296
1.360729
1.302602
1.282914
1.300352
1.358854
1.358854
1.484108
1.668613
1.862682
2.013061
2.088814
2.13344
2.138503
2.10869
2.10869
1.990748
1.850869
1.693364
1.500233
1.369542
1.291914
1.280289
1.291539
1.333166
1.333166
1.469857
1.644613
1.822556
1.992623
2.074001
2.113752
2.132315
2.106064
1.995248
1.995248
1.856494
1.687551
1.518984
1.377417
1.293789
1.275414
1.281977
1.335978
1.451669
1.451669
1.619487
1.80343
1.962247
2.059188
2.123315
2.117502
2.100252
2.003874
1.858182
1.858182
1.691489
1.514296
1.382667
1.293789
1.280664
1.281602
1.328478
1.430106
1.607112
1.607112
1.794055
1.95831
2.044562
2.103627
2.118065
2.102127
1.995811
1.863619
1.863619
1.705177
1.527422
1.382667
1.299227
1.275976
1.285352
1.32379
1.428981
1.587236
1.587236
1.79293
1.946497
2.04925
2.114315
2.124253
2.107189
2.024499
1.88462
1.726553
1.726553
1.544297
1.396543
1.29754
1.282914
1.281227
1.312728
1.415293
1.578611
1.779804
1.779804
1.948559
2.056938
2.102314
2.131565
2.120315
2.032749
1.887058
1.741366
1.550485
1.550485
1.399918
1.305415
1.275976
1.280477
1.315165
1.414356
1.575236
1.764241
1.764241
1.937309
2.055625
2.115439
2.130815
2.117877
2.036687
1.901495
1.743803
1.561548
1.561548
1.419418
1.30354
1.279727
1.277101
1.302602
1.40198
1.554047
1.745491
1.925309
1.925309
2.037062
2.098377
2.133065
2.134003
2.05375
1.925309
1.772492
1.591924
1.438356
1.438356
1.320603
1.283664
1.282539
1.312353
1.39148
1.534922
1.736115
1.904121
2.029187
2.029187
2.089564
2.114877
2.106627
2.037812
1.908246
1.752428
1.56586
1.404418
1.298102
1.298102
1.276539
1.272226
1.288914
1.360541
1.498546
1.688676
1.861557
2.006311
2.006311
2.062938
2.106439
2.103627
2.044375
1.921371
1.778492
1.584798
1.428044
1.312915
1.312915
1.277476
1.274664
1.30129
1.369542
1.505671
1.697864
1.872995
2.016062
2.089189
2.089189
2.117502
2.116752
2.063313
1.928496
1.794805
1.596611
1.435544
1.323603
1.281977
1.281977
1.275226
1.292664
1.366167
1.503046
1.690364
1.880682
2.009124
2.085626
2.119752
2.119752
2.13344
2.073063
1.949309
1.800242
1.625487
1.446044
1.331478
1.278227
1.278227
1.274101
1.287789
1.348729
1.484108
1.679114
1.863057
2.006124
2.083564
2.117315
2.117315
2.120315
2.079063
1.956622
1.80268
1.635987
1.46217
1.330541
1.284227
1.276164
1.276164
1.286102
1.351354
1.47717
1.670301
1.849369
2.002749
2.071376
2.120127
2.120502
2.120502
2.075313
1.957935
1.826681
1.639363
1.473607
1.343291
1.281602
1.272601
1.290227
1.290227
1.345916
1.470982
1.654926
1.827243
1.989061
2.062376
2.092939
2.086001
2.086001
2.052625
1.95756
1.80268
1.635987
1.457482
1.323978
1.269976
1.261539
1.260601
1.260601
1.261913
1.267914
1.317415
1.445482
1.542797
1.607299
1.624549
1.655863
1.616299
1.616299
1.504921
1.427669
1.464232
1.583861
1.55236
1.45617
1.377792
1.392043
1.586673
1.586673
1.807368
2.084876
2.413574
2.580829
2.641206
2.653956
2.654144
2.631643
2.558141
2.558141
2.426136
2.19363
1.947059
1.776617
1.609924
1.542235
1.520671
1.56211
1.654363
1.654363
1.805868
1.987186
2.117502
2.183504
2.212193
2.194004
2.143003
2.018124
2.018124
1.873932
1.700864
1.505858
1.366917
1.281789
1.270164
1.277101
1.299602
1.398793
1.398793
1.563985
1.760679
1.934497
2.026937
2.072313
2.080564
2.064438
1.959435
1.819368
1.819368
1.655488
1.466295
1.320978
1.272226
1.264726
1.266039
1.282914
1.357354
1.506046
1.506046
1.709865
1.882183
1.982123
2.045312
2.069313
2.046813
1.95831
1.815993
1.651175
1.651175
1.464232
1.337291
1.275226
1.264914
1.267539
1.281789
1.347604
1.505483
1.505483
1.702739
1.872245
1.999374
2.049625
2.064626
2.052625
1.976873
1.840931
1.680239
1.680239
1.48017
1.348354
1.278227
1.269789
1.266226
1.282727
1.341041
1.48767
1.695052
1.695052
1.874495
1.995436
2.04625
2.079813
2.069688
1.980248
1.858182
1.697489
1.511296
1.511296
1.357541
1.279164
1.266039
1.269226
1.280664
1.331478
1.479608
1.683051
1.856307
1.856307
1.999186
2.050188
2.072688
2.071188
1.982123
1.852744
1.693177
1.519171
1.519171
1.366729
1.281414
1.268289
1.264914
1.277476
1.330353
1.450732
1.654738
1.818618
1.818618
1.952122
2.018687
2.056938
2.038562
1.963935
1.830056
1.687364
1.494983
1.344041
1.344041
1.273726
1.263414
1.263226
1.268476
1.296227
1.40648
1.588923
1.773804
1.902058
1.902058
1.968623
1.986998
1.981561
1.923246
1.790117
1.638425
1.443794
1.306352
1.264914
1.264914
1.261913
1.258538
1.261726
1.273351
1.32304
1.497233
1.671051
1.825368
1.825368
1.886495
1.919121
1.917621
1.852931
1.741553
1.577298
1.397855
1.294915
1.263414
1.263414
1.258538
1.258913
1.260226
1.266976
1.303727
1.464982
1.655676
1.805868
1.881807
1.881807
1.925121
1.947622
1.879182
1.760866
1.618737
1.445857
1.306352
1.266789
1.260413
1.260413
1.258726
1.261539
1.276351
1.336916
1.523109
1.70799
1.862307
1.936184
1.994873
1.994873
1.997123
1.961685
1.851807
1.70724
1.54636
1.387167
1.289289
1.267164
1.267164
1.266226
1.269976
1.296977
1.423356
1.611237
1.802305
1.970685
2.057313
2.104752
2.104752
2.115627
2.098939
1.985686
1.842431
1.657551
1.47717
1.362604
1.296977
1.278602
1.278602
1.290039
1.358667
1.492171
1.675739
1.87562
2.032937
2.112814
2.169066
2.181254
2.181254
2.141315
2.047937
1.88837
1.716802
1.54561
1.392417
1.31254
1.295102
1.306727
1.306727
1.371979
1.510921
1.678551
1.868682
2.028999
2.13569
2.173004
2.188192
2.188192
2.151441
2.03875
1.903371
1.738553
1.545985
1.413418
1.310853
1.286852
1.291914
1.291914
1.362792
1.476608
1.647613
1.851431
2.019812
2.113189
2.170191
2.175066
2.145066
2.145066
2.041187
1.899995
1.73799
1.546547
1.400105
1.301852
1.284977
1.293602
1.336353
1.336353
1.46442
1.641988
1.828181
1.989061
2.084689
2.149003
2.153128
2.138878
2.037437
2.037437
1.890808
1.728803
1.54186
1.398605
1.303727
1.277289
1.285352
1.329041
1.329041
1.439106
1.604486
1.803992
1.97556
2.071001
2.132503
2.137565
2.124253
2.034625
2.034625
1.89662
1.733865
1.544297
1.395793
1.293227
1.278602
1.283102
1.319103
1.417918
1.417918
1.578423
1.779429
1.953622
2.064626
2.13419
2.120502
2.039312
1.891933
1.73199
1.547485
1.547485
1.40048
1.30129
1.274664
1.276914
1.31479
1.410043
1.560985
1.759741
1.930371
1.930371
2.043625
2.121627
2.13269
2.127252
2.0545
1.908808
1.751866
1.575048
1.416981
1.416981
1.296602
1.276914
1.277289
1.301852
1.406668
1.562298
1.751116
1.921371
1.921371
2.052813
2.118252
2.13794
2.144128
2.054688
1.922121
1.759929
1.570548
1.424106
1.424106
1.314978
1.280102
1.277289
1.308977
1.398418
1.542985
1.752616
1.925309
2.05
2.05
2.125565
2.144503
2.144878
2.065938
1.944622
1.779617
1.591174
1.445482
1.313478
1.313478
1.284227
1.282914
1.306727
1.387167
1.539047
1.73799
1.897933
2.04025
2.098377
2.098377
2.13569
2.130815
2.064438
1.929996
1.788055
1.595299
1.430481
1.309165
1.273726
1.273726
1.269789
1.288914
1.351166
1.484858
1.698052
1.862869
1.996748
2.081126
2.081126
2.11169
2.112627
2.06125
1.931871
1.794055
1.614799
1.448482
1.319103
1.280289
1.280289
1.274476
1.29529
1.373104
1.521046
1.692989
1.879932
2.033687
2.099876
2.137753
2.137753
2.150503
2.070438
1.96356
1.813743
1.635425
1.461232
1.338791
1.287977
1.276164
1.276164
1.29604
1.362229
1.493671
1.693177
1.869619
2.022812
2.097626
2.130252
2.135128
2.135128
2.093314
1.98456
1.824806
1.64405
1.476608
1.341603
1.285539
1.283852
1.289852
1.289852
1.358104
1.48917
1.672176
1.858557
2.017936
2.080939
2.14394
2.151816
2.151816
2.093689
1.98456
1.840556
1.651363
1.482608
1.345353
1.284414
1.273164
1.290977
1.290977
1.344041
1.473982
1.658301
1.843556
2.004624
2.090689
2.135128
2.12969
2.106064
2.106064
1.987186
1.835306
1.671051
1.502671
1.356416
1.288352
1.277476
1.285352
1.340478
1.340478
1.470045
1.642925
1.837931
2.009686
2.093127
2.133628
2.160254
2.113189
1.993561
1.993561
1.852182
1.694864
1.505296
1.38773
1.31104
1.281039
1.286477
1.320603
1.320603
1.401605
1.54486
1.710802
1.808868
1.858182
1.890995
1.866807
1.80193
1.671239
1.671239
1.502296
1.343853
1.275414
1.263976
1.287039
1.424481
1.496296
1.530984
1.615362
1.615362
1.767617
2.013061
2.232818
2.412449
2.584579
2.640455
2.641018
2.568078
2.412261
2.412261
2.176004
1.95231
1.797805
1.64855
1.589111
1.605799
1.6343
1.715677
1.852369
1.852369
2.017936
2.152191
2.240318
2.268444
2.262069
2.227755
2.102689
1.919309
1.919309
1.71999
1.512609
1.351541
1.280102
1.268101
1.268101
1.292289
1.393543
1.537922
1.537922
1.748491
1.918559
2.025624
2.076626
2.110564
2.087314
1.988686
1.845431
1.675176
1.675176
1.498358
1.342353
1.275976
1.265289
1.267914
1.283289
1.351166
1.512796
1.713802
1.713802
1.880307
2.004624
2.05975
2.081876
2.076251
1.991311
1.846931
1.684364
1.497608
1.497608
1.354541
1.278977
1.268851
1.267539
1.283289
1.345541
1.496483
1.696739
1.696739
1.863432
1.989811
2.0485
2.079626
2.065376
1.986061
1.852931
1.709677
1.525921
1.525921
1.363542
1.284789
1.268664
1.267726
1.284414
1.345541
1.48167
1.687551
1.860244
1.860244
1.992623
2.046625
2.072126
2.059
1.995061
1.866807
1.714927
1.521984
1.374792
1.374792
1.285539
1.268476
1.266601
1.279164
1.339728
1.473982
1.676301
1.845056
1.976873
1.976873
2.035937
2.074938
2.069876
1.993186
1.876182
1.71024
1.524796
1.368417
1.284977
1.284977
1.268101
1.265664
1.276164
1.318728
1.447544
1.645738
1.830431
1.96356
1.96356
2.029749
2.058438
2.051125
1.994498
1.867557
1.71774
1.521046
1.359979
1.277101
1.277101
1.265851
1.263414
1.270164
1.29904
1.406106
1.600361
1.777179
1.929434
1.990936
1.990936
2.018312
2.013999
1.956247
1.827993
1.672739
1.476045
1.31404
1.270164
1.260788
1.260788
1.259851
1.263414
1.273539
1.330353
1.510921
1.695614
1.836994
1.906933
1.944059
1.944059
1.938059
1.87862
1.762554
1.602986
1.427856
1.296227
1.265476
1.259288
1.259288
1.258351
1.260226
1.267539
1.303727
1.455607
1.656988
1.816555
1.87862
1.925496
1.925496
1.932059
1.88537
1.778679
1.628487
1.447169
1.306915
1.269601
1.260226
1.259288
1.259288
1.260976
1.268289
1.31329
1.490858
1.689614
1.853682
1.942372
1.984748
1.994311
1.994311
1.967123
1.860432
1.734803
1.562298
1.387542
1.289102
1.268664
1.264914
1.270351
1.270351
1.30129
1.40648
1.589111
1.790117
1.969373
2.052813
2.098377
2.107189
2.107189
2.086001
1.986436
1.853119
1.677801
1.503983
1.373667
1.29529
1.281227
1.298102
1.298102
1.358479
1.48767
1.660926
1.866057
2.041562
2.135315
2.176379
2.182942
2.162691
2.162691
2.05075
1.921746
1.747741
1.576736
1.434419
1.333916
1.30354
1.31704
1.39523
1.39523
1.512796
1.688864
1.883495
2.047563
2.146565
2.192129
2.204692
2.180879
2.091064
2.091064
1.931309
1.762179
1.582173
1.437419
1.334291
1.299415
1.312915
1.381542
1.381542
1.494983
1.667488
1.859869
2.018312
2.11994
2.167754
2.175816
2.164191
2.0635
2.0635
1.921934
1.755241
1.56511
1.417168
1.315353
1.293789
1.29529
1.346104
1.454107
1.454107
1.615924
1.818056
1.985686
2.077564
2.138503
2.146378
2.12819
2.039875
1.910683
1.910683
1.743803
1.561735
1.403293
1.296977
1.278602
1.284602
1.316853
1.405918
1.587611
1.587611
1.781492
1.952497
2.066313
2.118252
2.135503
2.124815
2.034437
1.893433
1.893433
1.742678
1.548235
1.393917
1.29904
1.275414
1.278227
1.310477
1.402918
1.550297
1.550297
1.754679
1.927559
2.05075
2.104752
2.129315
2.113752
2.030124
1.895308
1.740053
1.740053
1.55686
1.401418
1.301665
1.275414
1.276914
1.30054
1.39373
1.534547
1.73799
1.73799
1.911808
2.043812
2.097626
2.130815
2.120502
2.049625
1.912558
1.763491
1.578986
1.578986
1.419981
1.308415
1.281227
1.276726
1.30354
1.387917
1.531547
1.734991
1.912746
1.912746
2.048875
2.112252
2.136065
2.130065
2.059188
1.933184
1.782992
1.599799
1.599799
1.440794
1.31854
1.288164
1.281789
1.307665
1.38698
1.541484
1.72674
1.914621
1.914621
2.053938
2.12069
2.144128
2.145628
2.088439
1.959435
1.809055
1.628862
1.457857
1.457857
1.334291
1.287789
1.277289
1.301102
1.374604
1.510359
1.707802
1.891933
2.027312
2.027312
2.089751
2.119752
2.125002
2.068751
1.937872
1.788055
1.602986
1.439669
1.32079
1.32079
1.280289
1.273351
1.289102
1.346104
1.47942
1.678364
1.863994
2.013249
2.013249
2.080564
2.120127
2.12144
2.078501
1.957935
1.81018
1.631487
1.46517
1.344416
1.344416
1.292852
1.278602
1.294727
1.364479
1.494233
1.670114
1.865682
2.021687
2.095752
2.095752
2.124815
2.129503
2.088626
1.983061
1.837744
1.670114
1.484108
1.350041
1.287414
1.287414
1.279352
1.299602
1.355104
1.478295
1.669926
1.854432
2.009311
2.102127
2.12894
2.12894
2.136815
2.104752
1.984186
1.848431
1.671801
1.500983
1.363354
1.295102
1.295102
1.279914
1.287227
1.348541
1.478858
1.660176
1.846369
2.003499
2.084501
2.122565
2.122565
2.104189
1.993186
1.854807
1.668426
1.505858
1.366917
1.291164
1.281414
1.290414
1.340103
1.340103
1.463295
1.637487
1.829493
1.985498
2.076063
2.122565
2.134378
2.111127
2.002749
2.002749
1.861557
1.697864
1.508859
1.373667
1.299227
1.281227
1.290602
1.340291
1.340291
1.457294
1.623987
1.822181
1.974623
2.051125
2.105502
2.123315
2.103064
2.015499
2.015499
1.883495
1.700302
1.503796
1.337291
1.269414
1.260413
1.259476
1.260413
1.266789
1.266789
1.29904
1.394105
1.537922
1.605049
1.659426
1.653238
1.679489
1.687551
1.876745
1.876745
1.900371
1.733115
1.54336
1.410793
1.357354
1.478108
1.618362
1.851431
2.162691
2.162691
2.408324
2.533765
2.573704
2.575016
2.574641
2.568266
2.490638
2.329009
2.133065
2.133065
1.916308
1.737053
1.591174
1.506984
1.463295
1.504921
1.629425
1.750928
1.750928
1.915934
2.057125
2.12969
2.149941
2.151066
2.134565
2.023937
1.893433
1.741741
1.741741
1.546172
1.391667
1.296414
1.276914
1.276164
1.300727
1.382855
1.535484
1.737428
1.737428
1.903746
2.019624
2.066688
2.071376
2.079438
1.994498
1.86737
1.702927
1.511109
1.511109
1.365417
1.282539
1.268664
1.270914
1.284789
1.356041
1.506796
1.689239
1.864744
1.864744
1.995811
2.052063
2.074376
2.06725
1.996186
1.863994
1.716052
1.529672
1.529672
1.376855
1.286477
1.269039
1.268101
1.286477
1.357916
1.48767
1.690177
1.865682
1.865682
1.997686
2.055063
2.093314
2.080564
2.010999
1.87937
1.73199
1.545235
1.39373
1.39373
1.291539
1.273351
1.266976
1.280477
1.345353
1.481108
1.679489
1.857432
1.996748
1.996748
2.059563
2.078314
2.101564
2.026937
1.899433
1.743803
1.55461
1.403105
1.298477
1.298477
1.273726
1.268289
1.280852
1.342916
1.469107
1.677614
1.852931
1.995436
1.995436
2.062001
2.085439
2.086001
2.029749
1.904871
1.754866
1.56511
1.40648
1.293414
1.293414
1.271101
1.270351
1.279352
1.325103
1.457482
1.649863
1.836619
1.979123
2.04175
2.04175
2.077751
2.077939
2.017374
1.89437
1.764616
1.563048
1.38023
1.290789
1.268289
1.268289
1.264164
1.270726
1.30129
1.403668
1.591361
1.777742
1.934309
1.993936
2.043625
2.043625
2.019062
1.990373
1.857807
1.698052
1.521796
1.349291
1.276539
1.263226
1.260038
1.260038
1.263601
1.277476
1.338978
1.509421
1.695427
1.847494
1.917058
1.95756
1.95756
1.958122
1.920059
1.797805
1.65155
1.473982
1.32229
1.271851
1.261539
1.259288
1.259288
1.261726
1.269039
1.313665
1.488233
1.679676
1.833243
1.917434
1.955872
1.964497
1.964497
1.935247
1.830993
1.677989
1.511296
1.335228
1.276726
1.262289
1.260413
1.262851
1.262851
1.274289
1.335228
1.514671
1.703864
1.87487
1.963935
2.017187
2.029937
2.004624
2.004624
1.906558
1.775679
1.614049
1.436856
1.312915
1.271664
1.266976
1.272789
1.272789
1.309165
1.410418
1.603736
1.791805
1.963185
2.061063
2.11994
2.124815
2.109439
2.109439
2.011374
1.864369
1.701989
1.530047
1.389605
1.306727
1.283477
1.290789
1.354541
1.354541
1.47417
1.648925
1.851244
2.006874
2.11169
2.166066
2.177879
2.170754
2.051125
2.051125
1.910121
1.766866
1.576548
1.433669
1.330728
1.29604
1.303352
1.362229
1.362229
1.482608
1.6343
1.841869
2.008374
2.114315
2.163628
2.177129
2.161003
2.073626
2.073626
1.932246
1.756554
1.575798
1.432544
1.321165
1.291914
1.29829
1.343104
1.455794
1.455794
1.613862
1.823681
1.986248
2.092939
2.144691
2.161566
2.141503
2.056188
1.916121
1.916121
1.765179
1.574486
1.418856
1.304665
1.283289
1.282164
1.322478
1.424668
1.581236
1.581236
1.779617
1.95606
2.070626
2.123127
2.133628
2.127627
2.043062
1.912746
1.750554
1.750554
1.565485
1.415106
1.30729
1.276164
1.277664
1.306915
1.392043
1.554798
1.554798
1.761429
1.920621
2.045312
2.091064
2.119565
2.122565
2.036875
1.908058
1.751116
1.751116
1.565298
1.418856
1.30879
1.275789
1.277101
1.29754
1.38998
1.528547
1.734053
1.734053
1.908058
2.04325
2.095752
2.121252
2.120315
2.051312
1.912183
1.766679
1.587611
1.587611
1.418293
1.308415
1.278039
1.276914
1.300915
1.379667
1.521234
1.724115
1.899245
1.899245
2.033312
2.096689
2.11769
2.12819
2.068563
1.937684
1.790305
1.598674
1.598674
1.443794
1.322665
1.282164
1.277101
1.301665
1.383042
1.511484
1.709865
1.899245
1.899245
2.036875
2.113377
2.130065
2.133065
2.074188
1.95006
1.796492
1.616112
1.457294
1.457294
1.325853
1.285164
1.274664
1.301102
1.376667
1.524234
1.713427
1.89137
2.0365
2.0365
2.099314
2.146378
2.144691
2.092189
1.97106
1.821806
1.634112
1.474545
1.348916
1.348916
1.291352
1.284602
1.30129
1.371979
1.506234
1.690552
1.876557
2.023749
2.023749
2.082626
2.120502
2.129315
2.078876
1.965622
1.815993
1.624737
1.453919
1.334103
1.334103
1.280664
1.276726
1.283477
1.337291
1.46217
1.645925
1.834556
1.989811
2.055063
2.055063
2.104377
2.107564
2.080189
1.966935
1.823306
1.653425
1.484108
1.344229
1.288352
1.288352
1.276914
1.298477
1.354166
1.485795
1.663551
1.851807
2.003499
2.080376
2.11844
2.11844
2.12819
2.088814
1.978748
1.838869
1.673864
1.502483
1.369167
1.295477
1.295477
1.276914
1.290977
1.338791
1.465732
1.640488
1.829306
1.994123
2.066688
2.118815
2.118815
2.136815
2.105689
2.000686
1.860057
1.684551
1.506796
1.370667
1.293227
1.281039
1.281039
1.289289
1.337103
1.454294
1.630925
1.818806
1.993936
2.075501
2.11769
2.130065
2.130065
2.109064
2.008749
1.871307
1.698802
1.513734
1.375355
1.296227
1.284789
1.287227
1.287227
1.334478
1.446794
1.610112
1.810368
1.978935
2.068938
2.120127
2.122377
2.122377
2.109627
2.011561
1.877307
1.721865
1.534922
1.390355
1.296977
1.277476
1.285727
1.285727
1.326603
1.439669
1.590424
1.790492
1.963185
2.068376
2.109814
2.117127
2.080376
2.080376
1.988873
1.847119
1.700677
1.520671
1.384167
1.288539
1.270914
1.268851
1.274101
1.274101
1.292477
1.358667
1.47042
1.614424
1.683614
1.671988
1.662801
1.623425
1.539422
1.539422
1.395793
1.288352
1.267539
1.269226
1.322665
1.419043
1.447732
1.47117
1.47117
1.592111
1.814493
2.125377
2.353572
2.563391
2.650206
2.654144
2.654144
2.611767
2.611767
2.551953
2.37251
2.159691
1.944997
1.752803
1.675551
1.618174
1.6463
1.71774
1.71774
1.820493
1.995248
2.161191
2.247444
2.263194
2.254756
2.22738
2.125002
1.96581
1.96581
1.784679
1.585923
1.434794
1.314978
1.280664
1.281039
1.302227
1.376104
1.518234
1.518234
1.722615
1.892308
2.013061
2.076813
2.092564
2.090876
2.009124
1.884058
1.726928
1.726928
1.548985
1.38398
1.291914
1.269601
1.267914
1.282727
1.336353
1.47192
1.47192
1.661113
1.837181
1.961872
2.033687
2.075126
2.055625
1.998623
1.870557
1.727865
1.727865
1.538859
1.388667
1.290977
1.270726
1.267164
1.281039
1.332978
1.456544
1.668238
1.668238
1.834743
1.97181
2.031812
2.063313
2.069876
2.020937
1.88762
1.560423
1.405355
1.295665
1.295665
1.276164
1.268664
1.281414
1.331103
1.454669
1.658488
1.844119
1.971435
2.042687
2.042687
2.068563
2.078314
2.024687
1.911246
1.756741
1.577111
1.415293
1.295852
1.273914
1.273914
1.269601
1.280102
1.32304
1.437606
1.632612
1.820493
1.96131
2.038937
2.038937
2.073626
2.075126
2.026749
1.908246
1.766491
1.586111
1.413793
1.301102
1.271476
1.271476
1.266414
1.272976
1.315165
1.420168
1.614237
1.80118
1.931684
2.007999
2.06125
2.06125
2.05075
2.016812
1.897183
1.757679
1.574111
1.40123
1.299415
1.269601
1.264539
1.264539
1.267726
1.288352
1.377229
1.566985
1.741366
1.89587
1.96881
1.990936
2.003311
2.003311
1.969373
1.850307
1.70799
1.530047
1.350604
1.278227
1.263601
1.260038
1.262664
1.262664
1.269414
1.309915
1.455419
1.654738
1.794242
1.879182
1.916121
1.921371
1.921371
1.891558
1.797617
1.642925
1.461232
1.313102
1.268664
1.259663
1.258726
1.260413
1.260413
1.266226
1.285164
1.40423
1.598299
1.762179
1.866432
1.902996
1.922684
1.89662
1.89662
1.790305
1.660176
1.505108
1.336541
1.276726
1.260413
1.259101
1.260413
1.270351
1.270351
1.295665
1.441919
1.6373
1.818806
1.918746
1.96956
1.985123
1.97406
1.884058
1.884058
1.752991
1.590424
1.427481
1.312165
1.271289
1.265851
1.268476
1.290414
1.290414
1.382292
1.546547
1.754491
1.924559
2.02825
2.090876
2.097626
2.099876
2.006686
2.006686
1.87712
1.722428
1.543922
1.406293
1.314415
1.284789
1.292477
1.337103
1.452419
1.452419
1.612737
1.830993
1.988498
2.098001
2.151441
2.176754
2.162128
2.072313
1.944997
1.944997
1.791242
1.603362
1.455607
1.335978
1.301665
1.312915
1.359792
1.466107
1.626425
1.626425
1.829493
1.989061
2.112439
2.165504
2.191192
2.170566
2.093127
1.957935
1.957935
1.805118
1.614799
1.46442
1.332603
1.30054
1.29979
1.348354
1.459169
1.601111
1.601111
1.79443
1.974435
2.084314
2.149941
2.165316
2.155003
2.072688
1.958685
1.808118
1.808118
1.613299
1.474732
1.338228
1.29754
1.286852
1.324915
1.425043
1.577298
1.770054
1.770054
1.95231
2.070438
2.127252
2.150316
2.152378
2.077564
1.953435
1.793492
1.608424
1.608424
1.449044
1.332416
1.287789
1.284039
1.312165
1.394105
1.54261
1.742678
1.742678
1.920621
2.059188
2.112439
2.140753
2.13494
2.062751
1.930371
1.769679
1.588173
1.588173
1.427294
1.311603
1.277289
1.272976
1.29529
1.375542
1.522922
1.730115
1.906183
1.906183
2.052813
2.113564
2.144128
2.137753
2.078688
1.935434
1.777929
1.598674
1.436106
1.436106
1.307852
1.275976
1.272039
1.292477
1.367854
1.512984
1.72224
1.900183
2.052063
2.052063
2.12069
2.14694
2.14694
2.084876
1.961497
1.805492
1.623425
1.450732
1.450732
1.32004
1.280664
1.272039
1.293039
1.358292
1.497046
