260788.0
1.259288
1.265476
1.290789
1.290789
1.432169
1.672739
1.919121
2.123502
2.257381
2.313821
2.295258
2.212005
2.056188
2.056188
1.863432
1.63355
1.403668
1.275789
1.260976
1.259101
1.264164
1.292664
1.437231
1.437231
1.662801
1.887245
2.115627
2.247631
2.316821
2.228318
2.056938
1.862682
1.646113
1.646113
1.416043
1.282539
1.261163
1.259476
1.262476
1.286102
1.401605
1.648175
1.884807
1.884807
2.110752
2.255881
2.318696
2.309508
2.240131
2.092752
1.902808
1.677426
1.417543
1.417543
1.284789
1.261351
1.259663
1.263601
1.284602
1.394293
1.611612
1.875995
2.101189
2.101189
2.242568
2.293945
2.305758
2.255319
2.103064
1.906933
1.695614
1.45617
1.296977
1.296977
1.262664
1.259101
1.262101
1.275976
1.366354
1.605049
1.863057
2.092939
2.229068
2.229068
2.291882
2.279882
2.160254
1.965247
1.717927
1.439856
1.276351
1.259101
1.259101
1.257788
1.257788
1.257976
1.257788
1.257976
1.267351
1.417356
1.829681
2.272194
2.272194
2.461763
2.469075
2.393136
2.247631
2.160441
2.034062
1.887245
1.828743
1.738366
1.738366
1.695989
1.731803
1.823868
1.978935
2.151441
2.366322
2.533202
2.586079
2.645706
2.645706
2.617017
2.569578
2.431012
2.203005
1.965247
1.702927
1.457294
1.290977
1.267164
1.267164
1.266789
1.285352
1.370292
1.562673
1.799492
2.042687
2.20038
2.298258
2.298258
2.28982
2.268257
2.105689
1.930184
1.72524
1.48017
1.295477
1.260976
1.258351
1.258351
1.259101
1.266226
1.31254
1.479233
1.729178
1.964685
2.149003
2.233756
2.261319
2.261319
2.217255
2.089376
1.908996
1.703115
1.455044
1.290414
1.260601
1.258351
1.259101
1.259101
1.264164
1.301477
1.445294
1.706115
1.945372
2.11919
2.225505
2.260007
2.20788
2.20788
2.080939
1.915934
1.711177
1.470607
1.295665
1.261351
1.258351
1.258538
1.258538
1.261913
1.303352
1.435544
1.695427
1.938247
2.129503
2.226068
2.261694
2.22363
2.22363
2.103439
1.933934
1.73349
1.491983
1.300915
1.261539
1.258538
1.258538
1.262289
1.262289
1.283664
1.417918
1.676676
1.911433
2.114877
2.217255
2.265444
2.227568
2.132315
2.132315
1.949497
1.749991
1.498358
1.303165
1.261351
1.258913
1.258351
1.261539
1.279539
1.279539
1.408731
1.654551
1.895308
2.103439
2.20338
2.228693
2.203942
2.104377
2.104377
1.926059
1.749053
1.512609
1.302415
1.260976
1.258538
1.257976
1.260226
1.273539
1.273539
1.362792
1.601486
1.844869
2.029187
2.175254
2.202255
2.180129
2.070438
1.899433
1.899433
1.697677
1.45617
1.290039
1.260788
1.257788
1.257788
1.258726
1.264726
1.31104
1.31104
1.520296
1.761241
1.977623
2.086376
2.139065
2.113752
2.017561
1.845056
1.643675
1.643675
1.40948
1.276914
1.259288
1.257788
1.257788
1.258163
1.260788
1.284414
1.284414
1.451294
1.705927
1.922121
2.04775
2.113189
2.089939
2.019249
1.848431
1.665426
1.665426
1.421856
1.285539
1.259851
1.257976
1.257788
1.258351
1.262101
1.293039
1.468357
1.468357
1.722803
1.947809
2.085064
2.158191
2.160066
2.093127
1.918559
1.740616
1.513921
1.513921
1.313853
1.264351
1.258538
1.257788
1.259476
1.267539
1.337291
1.564735
1.826868
1.826868
2.067063
2.196817
2.272007
2.280257
2.21388
2.060313
1.870932
1.655676
1.422606
1.422606
1.284977
1.261539
1.259663
1.263226
1.287602
1.415106
1.64855
1.893058
1.893058
2.128565
2.272757
2.352072
2.340446
2.299757
2.147878
1.948934
1.742303
1.506421
1.506421
1.311228
1.264914
1.261351
1.266226
1.303727
1.439669
1.6493
1.910121
2.137565
2.137565
2.287757
2.368947
2.369135
2.308383
2.149566
1.966935
1.748116
1.501733
1.317415
1.317415
1.264914
1.260976
1.264914
1.289289
1.411543
1.633362
1.887808
2.120502
2.265257
2.265257
2.349447
2.358822
2.297883
2.164566
1.962247
1.752616
1.498171
1.31104
1.31104
1.262851
1.260038
1.263039
1.281414
1.380417
1.592299
1.843744
2.079438
2.238818
2.238818
2.331259
2.345884
2.291132
2.148816
1.95681
1.739678
1.498733
1.309727
1.263601
1.263601
1.259663
1.261163
1.273539
1.355666
1.563423
1.813368
2.040062
2.215755
2.310071
2.310071
2.330884
2.284757
2.167566
1.972748
1.759366
1.519734
1.322665
1.263414
1.259851
1.259851
1.260788
1.274851
1.349854
1.544672
1.803805
2.0425
2.220255
2.311945
2.311945
2.351509
2.292633
2.171129
1.988123
1.778679
1.531734
1.324353
1.263976
1.259851
1.259851
1.260601
1.269601
1.332978
1.529484
1.776242
2.006499
2.187254
2.282882
2.30407
2.30407
2.269944
2.143753
1.964685
1.765929
1.504171
1.317978
1.262664
1.259101
1.259851
1.259851
1.268289
1.317228
1.500421
1.761429
1.989998
2.187817
2.290757
2.333884
2.29732
2.29732
2.179941
2.013624
1.800805
1.54936
1.345166
1.266414
1.260038
1.259851
1.259851
1.268476
1.320415
1.496858
1.761054
1.994873
2.190442
2.299195
2.333321
2.302383
2.302383
2.187817
2.010436
1.803992
1.572048
1.353416
1.267726
1.260226
1.259476
1.267351
1.267351
1.321165
1.490296
1.727678
1.989998
2.184817
2.288882
2.336509
2.299383
2.194379
2.194379
2.022249
1.835681
1.590611
1.361667
1.269601
1.260038
1.259476
1.265664
1.305977
1.305977
1.458045
1.708927
1.957747
2.161566
2.28082
2.325821
2.30707
2.209567
2.209567
2.031437
1.839619
1.604111
1.376667
1.272601
1.260788
1.259663
1.265664
1.297915
1.297915
1.455982
1.700864
1.933559
2.14619
2.274069
2.329384
2.30407
2.205817
2.049438
2.049438
1.848994
1.624549
1.40423
1.275976
1.260976
1.259288
1.263414
1.295852
1.435544
1.435544
1.679301
1.922121
2.167191
2.29432
2.332946
2.29207
2.19363
1.977998
1.708177
1.708177
1.422418
1.272789
1.258913
1.257788
1.257601
1.257788
1.257976
1.260226
1.260226
1.304852
1.519359
1.949497
2.394073
2.551015
2.491388
2.388635
2.210692
2.073251
2.073251
1.949309
1.806618
1.753179
1.731615
1.698802
1.708365
1.809805
1.961122
2.156878
2.156878
2.379822
2.552328
2.598267
2.638018
2.580266
2.535265
2.345509
2.127627
1.868119
1.868119
1.613112
1.384542
1.275601
1.263789
1.267914
1.293602
1.412668
1.621174
1.857619
1.857619
2.063875
2.210317
2.281382
2.280257
2.223818
2.052813
1.864369
1.64855
1.64855
1.406668
1.278602
1.259663
1.258538
1.259851
1.270726
1.345916
1.549735
1.79743
1.79743
2.019062
2.167754
2.256631
2.247819
2.183317
2.040062
1.850307
1.637675
1.399168
1.399168
1.277101
1.259101
1.258163
1.259476
1.268476
1.324728
1.509421
1.782992
1.998811
1.998811
2.161191
2.235443
2.244069
2.186504
2.059188
1.870932
1.651175
1.412668
1.278227
1.278227
1.259851
1.258163
1.260038
1.266601
1.315353
1.517484
1.766866
1.991686
1.991686
2.159503
2.239381
2.248756
2.201505
2.062563
1.87562
1.673864
1.440981
1.283852
1.283852
1.260038
1.258163
1.258913
1.265289
1.31479
1.496108
1.746053
1.982873
2.155003
2.155003
2.226255
2.256631
2.203567
2.064626
1.882183
1.672551
1.431606
1.283477
1.259663
1.259663
1.258351
1.258726
1.263039
1.294165
1.466482
1.711177
1.935809
2.118815
2.205442
2.205442
2.224943
2.186129
2.055813
1.880682
1.668801
1.406293
1.278414
1.259101
1.259101
1.257976
1.258351
1.261726
1.281602
1.411731
1.658301
1.893995
2.071751
2.169629
2.169629
2.181442
2.13719
2.011186
1.624737
1.39898
1.271664
1.258726
1.257601
1.257788
1.259476
1.259476
1.268476
1.349854
1.56736
1.799305
1.993936
2.091251
2.13044
2.083001
1.959622
1.959622
1.784305
1.584611
1.354166
1.267351
1.258163
1.257601
1.257788
1.258913
1.263789
1.263789
1.316853
1.536422
1.774742
1.968998
2.074938
2.113002
2.081688
1.970685
1.799305
1.799305
1.585548
1.378355
1.270164
1.258538
1.257601
1.257601
1.259101
1.264539
1.323978
1.323978
1.552172
1.793867
1.999374
2.112627
2.161003
2.138878
2.036125
1.87787
1.87787
1.682864
1.454107
1.293977
1.260601
1.258163
1.257976
1.260413
1.275601
1.390543
1.390543
1.629237
1.87862
2.095001
2.216318
2.269007
2.255694
2.169629
2.000499
1.815055
1.815055
1.573548
1.361292
1.270164
1.260976
1.259288
1.268664
1.313478
1.482983
1.733865
1.733865
1.97031
2.178629
2.30782
2.35976
2.330884
2.242381
2.079438
1.89887
1.660926
1.660926
1.434981
1.287227
1.263789
1.262101
1.271289
1.332603
1.503233
1.729178
1.729178
1.969185
2.192504
2.30932
2.363322
2.356947
2.250818
2.096689
1.89512
1.678176
1.678176
1.432356
1.290977
1.263226
1.261351
1.268664
1.314228
1.470982
1.709302
1.944434
1.944434
2.169816
2.282695
2.342509
2.345134
2.253069
2.089376
1.89437
1.661488
1.422793
1.422793
1.287789
1.261351
1.259851
1.264914
1.295852
1.417168
1.658113
1.899621
2.116565
2.116565
2.244444
2.321883
2.29882
2.223443
2.074938
1.882745
1.6508
1.415293
1.415293
1.283664
1.261539
1.259663
1.263226
1.287227
1.408355
1.6343
1.885932
2.106252
2.106252
2.241443
2.310821
2.325258
2.241256
2.089376
1.908996
1.682864
1.447544
1.288539
1.288539
1.261539
1.259663
1.261726
1.279727
1.38848
1.590986
1.827806
2.067813
2.211255
2.211255
2.29732
2.28982
2.236381
2.081313
1.883495
1.670676
1.423731
1.284602
1.260226
1.260226
1.259101
1.260413
1.274289
1.359792
1.57111
1.819368
2.071938
2.200192
2.301633
2.301633
2.30482
2.241818
2.107002
1.931684
1.715865
1.471545
1.297915
1.261726
1.261726
1.259476
1.261913
1.278227
1.373479
1.597361
1.845244
2.077751
2.224005
2.316258
2.316258
2.333696
2.273319
2.130815
1.950247
1.747178
1.506234
1.320415
1.264164
1.260038
1.260038
1.261163
1.273726
1.365417
1.568298
1.80943
2.045312
2.230568
2.31232
2.328071
2.328071
2.287195
2.150316
1.95906
1.753179
1.519921
1.328478
1.264726
1.259851
1.261913
1.261913
1.276914
1.364479
1.57036
1.80793
2.032187
2.211442
2.308008
2.329946
2.329946
2.269944
2.142628
1.975935
1.771367
1.522171
1.331478
1.264539
1.260226
1.260788
1.260788
1.273914
1.344604
1.53961
1.780929
2.003686
2.190254
2.296195
2.326196
2.286632
2.286632
2.157816
1.990748
1.791617
1.530797
1.339728
1.265664
1.260226
1.260788
1.272039
1.272039
1.332978
1.531734
1.786555
2.0365
2.225693
2.329946
2.361072
2.313258
2.187067
2.187067
2.011374
1.811493
1.577861
1.373292
1.275226
1.261351
1.261163
1.270914
1.270914
1.310665
1.439856
1.654926
1.838869
1.984373
2.075313
2.075688
2.013061
1.857619
1.857619
1.648363
1.444357
1.303352
1.265101
1.266414
1.278602
1.286664
1.319853
1.421106
1.421106
1.580111
1.87112
2.154441
2.474888
2.636331
2.653581
2.653769
2.614017
2.481451
2.481451
2.239193
1.970498
1.72599
1.514296
1.410231
1.370667
1.432544
1.543547
1.712865
1.712865
1.914996
2.135503
2.310258
2.392573
2.439262
2.392761
2.273694
2.056938
2.056938
1.836431
1.592111
1.360916
1.267726
1.259663
1.258538
1.263414
1.287227
1.416793
1.416793
1.648738
1.87637
2.098939
2.21313
2.265819
2.253256
2.155941
2.002186
1.798555
1.798555
1.563048
1.350979
1.266976
1.259101
1.258538
1.262851
1.280852
1.382292
1.620612
1.620612
1.851057
2.083938
2.199255
2.265069
2.244069
2.161378
1.987748
1.802868
1.580486
1.580486
1.359041
1.267726
1.259101
1.258538
1.261351
1.278414
1.378542
1.602424
1.602424
1.844306
2.059188
2.191754
2.261882
2.243131
2.156878
2.004436
1.820493
1.586111
1.586111
1.363167
1.269976
1.259476
1.258351
1.260788
1.272414
1.359416
1.587799
1.828931
1.828931
2.044937
2.178254
2.265444
2.248569
2.156878
2.007061
1.829306
1.600924
1.371979
1.371979
1.272226
1.259288
1.258351
1.260038
1.270726
1.355479
1.56811
1.801555
2.031437
2.031437
2.164379
2.242381
2.235631
2.160254
2.015499
1.818431
1.609549
1.377417
1.377417
1.273539
1.259101
1.258163
1.259663
1.269976
1.331853
1.530797
1.79068
2.007249
2.007249
2.148628
2.221005
2.220068
2.158941
2.003124
1.80718
1.600549
1.366542
1.269976
1.269976
1.258726
1.257788
1.259288
1.264539
1.301102
1.47417
1.72374
1.949309
2.091626
2.091626
2.172629
2.176566
2.112627
1.975185
1.781304
1.552922
1.335041
1.267351
1.258351
1.258351
1.257413
1.257976
1.260788
1.277851
1.40798
1.641988
1.882745
2.041937
2.041937
2.132503
2.139065
2.083376
1.941809
1.758054
1.550672
1.329603
1.265289
1.257976
1.257976
1.257601
1.257976
1.259851
1.274664
1.406106
1.652113
1.868495
2.042875
2.147128
2.147128
2.163441
2.121252
1.98456
1.81093
1.602237
1.368979
1.272226
1.258538
1.257788
1.257788
1.257976
1.262476
1.288164
1.446982
1.697864
1.939934
2.105689
2.22513
2.246319
2.246319
2.20413
2.088814
1.918559
1.70874
1.480358
1.30729
1.262476
1.259101
1.259101
1.259663
1.267914
1.332978
1.519734
1.785054
2.020187
2.21313
2.305758
2.341197
2.341197
2.321133
2.197942
2.017561
1.815243
1.575798
1.374604
1.272414
1.262289
1.264164
1.264164
1.288539
1.383417
1.582173
1.837556
2.072501
2.268069
2.354134
2.384698
2.346634
2.346634
2.230381
2.047375
1.866994
1.629425
1.400293
1.278227
1.263039
1.263414
1.284227
1.284227
1.389605
1.572423
1.81918
2.048312
2.248381
2.345884
2.383573
2.349634
2.349634
2.237318
2.063688
1.864932
1.618362
1.408355
1.278977
1.263226
1.262101
1.278039
1.278039
1.351541
1.530234
1.773804
2.013061
2.200567
2.317196
2.355634
2.317571
2.216318
2.216318
2.045312
1.837744
1.607299
1.382105
1.272601
1.261351
1.260226
1.268289
1.313665
1.313665
1.48392
1.735178
1.961685
2.167941
2.281945
2.327696
2.304445
2.21088
2.039125
2.039125
1.839056
1.601861
1.373479
1.272976
1.260788
1.259663
1.266039
1.308415
1.459357
1.459357
1.701052
1.953622
2.152566
2.264132
2.305945
2.28232
2.199442
2.037437
2.037437
1.821806
1.592299
1.369354
1.270539
1.259851
1.259101
1.263039
1.286289
1.408355
1.408355
1.6508
1.884995
2.098564
2.221755
2.28382
2.28007
2.199442
2.031062
1.839619
1.839619
1.610112
1.390543
1.276164
1.261726
1.259663
1.265851
1.298665
1.442107
1.671426
1.671426
1.921371
2.146753
2.275944
2.337634
2.323571
2.236193
2.071938
1.893808
1.665988
1.665988
1.434231
1.287414
1.262101
1.260038
1.265476
1.292102
1.447732
1.666926
1.666926
1.919871
2.125002
2.273882
2.338571
2.329946
2.242006
2.094626
1.909558
1.673676
1.291352
1.291352
1.263039
1.260226
1.263601
1.293227
1.429731
1.659051
1.893245
2.126127
2.260944
2.260944
2.333321
2.330133
2.253631
2.103814
1.920621
1.710427
1.472107
1.298852
1.263039
1.263039
1.260413
1.262851
1.288164
1.410606
1.609737
1.870557
2.098752
2.240881
2.240881
2.323383
2.328259
2.265069
2.105502
1.919871
1.698614
1.458982
1.295852
1.264164
1.264164
1.259476
1.263039
1.279164
1.378355
1.613487
1.851431
2.082626
2.235443
2.317383
2.317383
2.333884
2.283632
2.13719
1.950622
1.749428
1.488795
1.300915
1.262101
1.260038
1.260038
1.263976
1.282164
1.403293
1.617799
1.849556
2.059938
2.179941
2.208442
2.167754
2.167754
2.051875
1.871307
1.647988
1.39223
1.268101
1.258351
1.257788
1.257976
1.257976
1.257788
1.257976
1.313102
1.64555
1.926434
2.123502
2.265632
2.343822
2.441512
2.441512
2.468513
2.427636
2.402886
2.257569
2.013999
1.774929
1.576361
1.502296
1.500046
1.500046
1.600549
1.753366
1.929996
2.159878
2.36801
2.527952
2.590954
2.577079
2.524577
2.524577
2.37551
2.162879
1.920996
1.659238
1.417731
1.278227
1.262101
1.263039
1.278414
1.278414
1.361104
1.540547
1.800617
2.027874
2.214068
2.311571
2.339884
2.301258
2.186692
2.186692
1.990373
1.78918
1.554798
1.338041
1.266414
1.261351
1.260788
1.272414
1.272414
1.342541
1.515234
1.782804
2.004999
2.19963
2.302758
2.339134
2.291507
2.172629
2.172629
2.008374
1.79893
1.560985
1.351729
1.269039
1.260413
1.260601
1.271101
1.341791
1.341791
1.519359
1.768179
2.012686
2.196817
2.317196
2.350384
2.307633
2.20188
2.033312
2.033312
1.823118
1.586486
1.371979
1.271851
1.261726
1.260601
1.271289
1.337478
1.511109
1.511109
1.761054
1.991873
2.195317
2.306695
2.350759
2.317196
2.202255
2.039687
2.039687
1.833806
1.602049
1.366542
1.271289
1.261351
1.260601
1.267914
1.31104
1.477545
1.477545
1.723553
1.96431
2.172254
2.286632
2.333509
2.298258
2.196067
2.031625
1.834556
1.834556
1.607299
1.379105
1.272789
1.261163
1.260226
1.266226
1.301852
1.456919
1.712677
1.712677
1.938247
2.146753
2.258319
2.316258
2.28607
2.191567
2.022437
1.823306
1.593424
1.593424
1.367667
1.272039
1.260226
1.259101
1.264351
1.290227
1.419981
1.649113
1.649113
1.889683
2.105689
2.22588
2.289632
2.259444
2.166066
1.991311
1.792742
1.55986
1.55986
1.340666
1.268101
1.259101
1.258163
1.260226
1.271851
1.357729
1.580298
1.822931
1.822931
2.038562
2.158191
2.218943
2.212568
2.11844
1.96131
1.763304
1.530984
1.320978
1.320978
1.265101
1.258538
1.257976
1.259101
1.265289
1.323228
1.54186
1.788992
2.010062
2.010062
2.13944
2.207505
2.20113
2.118627
1.963372
1.770242
1.551047
1.331103
1.331103
1.266039
1.258913
1.258351
1.259101
1.267914
1.331853
1.536047
1.790867
2.021687
2.021687
2.160066
2.242006
2.236381
2.172629
2.016062
1.840744
1.621737
1.39598
1.278789
1.278789
1.259851
1.258913
1.262289
1.283477
1.393917
1.614424
1.862494
2.097064
2.243881
2.243881
2.329571
2.329196
2.272757
2.125002
1.938997
1.71474
1.48392
1.31629
1.266226
1.266226
1.260788
1.265664
1.300727
1.449232
1.661301
1.917058
2.158753
2.293008
2.293008
2.381885
2.39126
2.326571
2.175629
1.998249
1.780179
1.536422
1.337853
1.269601
1.269601
1.262476
1.267726
1.306915
1.449607
1.670114
1.906371
2.140565
2.298633
2.37176
2.37176
2.375885
2.323758
2.187817
1.988686
1.785429
1.533797
1.335041
1.266414
1.262664
1.262664
1.265101
1.291914
1.411543
1.620987
1.865307
2.095939
2.263944
2.357135
2.362385
2.362385
2.304633
2.175629
1.986998
1.776429
1.524421
1.329041
1.265476
1.260226
1.262476
1.262476
1.278602
1.379855
1.576173
1.821243
2.052438
2.223068
2.321133
2.337446
2.337446
2.288507
2.158003
1.97481
1.763116
1.533984
1.332603
1.266039
1.259851
1.260788
1.260788
1.275039
1.356604
1.540172
1.783554
2.016999
2.194754
2.28232
2.323383
2.28007
2.28007
2.147503
1.96881
1.756179
1.516921
1.329041
1.264726
1.259663
1.260226
1.267164
1.267164
1.323415
1.507359
1.755991
1.990936
2.172066
2.281195
2.305945
2.264507
2.149566
2.149566
1.963747
1.768366
1.517296
1.334853
1.266039
1.260788
1.260038
1.270539
1.270539
1.32979
1.511671
1.768742
2.008749
2.20263
2.307633
2.332196
2.312696
2.196817
2.196817
2.022624
1.811118
1.574298
1.356416
1.268101
1.260601
1.260601
1.271289
1.336541
1.336541
1.509984
1.757304
2.008186
2.20788
2.315696
2.343071
2.311571
2.20188
2.031437
2.031437
1.829493
1.602424
1.373104
1.272414
1.261726
1.259851
1.268664
1.336916
1.504358
1.504358
1.741178
1.988498
2.187067
2.305195
2.358822
2.322446
2.21613
2.052438
2.052438
1.842431
1.608799
1.38773
1.274851
1.260976
1.261163
1.267914
1.31179
1.47792
1.47792
1.720365
1.96131
2.178629
2.299383
2.349634
2.325634
2.230006
2.060313
1.860432
1.860432
1.622675
1.411543
1.277476
1.263039
1.260788
1.267914
1.31329
1.472295
1.71774
1.71774
1.964872
2.179754
2.300133
2.353572
2.347009
2.255694
2.090689
1.888933
1.639175
1.639175
1.408355
1.280289
1.262101
1.260788
1.269789
1.32304
1.469482
1.667113
1.667113
1.87637
2.032375
2.113002
2.092001
2.060126
1.911246
1.690739
1.453732
1.286477
1.286477
1.259288
1.257976
1.257976
1.257788
1.258538
1.324915
1.539422
1.746803
1.966373
1.966373
2.173566
2.38976
2.547828
2.572204
2.584579
2.568641
2.429699
2.194754
1.945934
1.945934
1.72749
1.571673
1.512984
1.528172
1.643675
1.787117
1.995998
2.22363
2.421262
2.421262
2.502076
2.55289
2.53789
2.437574
2.250631
2.032562
1.776992
1.494608
1.303165
1.303165
1.263601
1.260038
1.263789
1.285727
1.39673
1.612924
1.864182
2.102877
2.102877
2.236193
2.305383
2.306133
2.225318
2.080939
1.88162
1.657176
1.426356
1.281789
1.281789
1.260413
1.258538
1.260413
1.271101
1.344229
1.578423
1.821431
2.052813
2.197192
2.197192
2.271257
2.27782
2.212005
2.055625
1.871495
1.660363
1.419606
1.278977
1.259851
1.259851
1.258726
1.260038
1.268851
1.341791
1.563235
1.794992
2.031062
2.186692
2.270507
2.270507
2.282695
2.212755
2.078314
1.89287
1.678551
1.428606
1.287039
1.260413
1.260413
1.258913
1.260226
1.269601
1.337666
1.544485
1.797617
2.032937
2.202255
2.290382
2.290382
2.297132
2.241068
2.099314
1.909933
1.700302
1.453919
1.293414
1.260976
1.258538
1.258538
1.259663
1.269039
1.323228
1.524047
1.770429
2.004624
2.181442
2.272382
2.292633
2.292633
2.245569
2.114502
1.916683
1.707052
1.466482
1.292664
1.261163
1.258538
1.259288
1.259288
1.265851
1.304852
1.486358
1.73574
1.976498
2.157816
2.251756
2.278382
2.278382
2.227568
2.099314
1.921371
1.714927
1.471545
1.302602
1.261163
1.258351
1.258726
1.258726
1.264351
1.295477
1.443232
1.689989
1.928684
2.115439
2.201317
2.227943
2.179566
2.179566
2.057688
1.88087
1.676489
1.438169
1.284789
1.259288
1.257788
1.260038
1.272601
1.371042
1.371042
1.601299
1.848619
2.029937
2.12969
2.160441
2.123315
2.006311
1.829868
1.62605
1.62605
1.388667
1.272039
1.259101
1.257788
1.257601
1.258913
1.267164
1.331103
1.566423
1.566423
1.823118
2.027499
2.125002
2.179004
2.147691
2.038187
1.866057
1.656613
1.656613
1.426731
1.284414
1.259663
1.257976
1.257976
1.259476
1.271101
1.363167
1.606174
1.606174
1.850869
2.05525
2.174129
2.22438
2.202067
2.107377
1.937684
1.744178
1.524234
1.524234
1.324915
1.264726
1.258913
1.258726
1.263789
1.291164
1.439856
1.691114
1.924746
1.924746
2.142628
2.264507
2.323758
2.303133
2.206942
2.038187
1.839994
1.611237
1.392417
1.392417
1.275976
1.262664
1.260788
1.268851
1.32454
1.494608
1.73274
1.975185
1.975185
2.200942
2.320383
2.377198
2.351134
2.267694
2.092376
1.896808
1.665426
1.432544
1.432544
1.286852
1.263601
1.261163
1.269226
1.322665
1.48542
1.727303
1.963372
2.182567
2.182567
2.31232
2.366322
2.352822
2.266757
2.117502
1.907308
1.679864
1.446044
1.288539
1.288539
1.263601
1.260788
1.266601
1.311415
1.458795
1.683239
1.940122
2.159503
2.289445
2.289445
2.352634
2.328821
2.256444
2.103252
1.899995
1.670864
1.443607
1.285727
1.285727
1.261351
1.260038
1.264914
1.292852
1.433106
1.659988
1.917996
2.129877
2.268444
2.268444
2.342509
2.326571
2.257944
2.104189
1.89437
1.683614
1.443982
1.291539
1.261913
1.261913
1.259476
1.263039
1.285914
1.402168
1.623237
1.878057
2.079438
2.231693
2.30782
2.30782
2.30332
2.228693
2.089939
1.905246
1.674051
1.446419
1.288539
1.261163
1.258726
1.258726
1.260976
1.277289
1.363167
1.579923
1.832681
2.053188
2.22213
2.279882
2.279882
2.288882
2.22363
2.086376
1.906933
1.681739
1.456732
1.291727
1.261163
1.259476
1.259476
1.261351
1.276914
1.381355
1.598111
1.834369
2.075313
2.241818
2.321696
2.321883
2.321883
2.267882
2.123502
1.928496
1.737803
1.488045
1.312165
1.262289
1.259476
1.261351
1.261351
1.277664
1.371979
1.584236
1.844306
2.075688
2.233943
2.325634
2.332571
2.27932
2.27932
2.13869
1.959247
1.749241
1.500983
1.326041
1.264539
1.260413
1.261913
1.279352
1.279352
1.376855
1.579736
1.826868
2.055438
2.230756
2.319633
2.330133
2.28082
2.28082
2.159128
1.95981
1.756741
1.515984
1.323978
1.265476
1.259476
1.261726
1.277289
1.277289
1.363729
1.557985
1.815055
2.030499
2.21238
2.309508
2.342134
2.288507
2.158941
2.158941
1.977435
1.757116
1.533047
1.32529
1.265476
1.259851
1.260788
1.272226
1.338416
1.338416
1.538484
1.78618
2.020187
2.221193
2.327134
2.361259
2.311758
2.183879
2.000124
2.000124
1.764241
1.532859
1.334853
1.266039
1.260788
1.261913
1.277289
1.359229
1.359229
1.502858
1.720365
1.89812
2.009499
2.064063
2.065001
1.992248
1.806243
1.584236
1.584236
1.354541
1.266601
1.258538
1.257601
1.257788
1.259101
1.30429
1.438919
1.567548
1.567548
1.802118
2.012874
2.311758
2.467388
2.590204
2.649268
2.600142
2.493451
2.267132
2.267132
1.995998
1.767429
1.554422
1.428231
1.401043
1.475108
1.596799
1.760116
1.97781
1.97781
2.175066
2.341947
2.428012
2.459888
2.412074
2.270507
2.063875
1.820681
1.820681
1.548047
1.333353
1.266226
1.259476
1.258351
1.262664
1.281789
1.425231
1.655676
1.655676
1.893245
2.098564
2.216318
2.252131
2.223068
2.117127
1.944247
1.753928
1.512796
1.512796
1.316478
1.263226
1.258351
1.258163
1.260788
1.274476
1.373667
1.606737
1.851994
1.851994
2.064063
2.186692
2.229256
2.208255
2.112064
1.933559
1.742303
1.518046
1.314603
1.314603
1.263976
1.258351
1.257788
1.259851
1.273351
1.361667
1.602424
1.844119
1.844119
2.060313
2.171504
2.236381
2.22438
2.130627
1.955122
1.756741
1.545235
1.325103
1.325103
1.266226
1.258913
1.258163
1.259663
1.270914
1.351541
1.583298
1.821056
2.03725
2.03725
2.171316
2.240506
2.212943
2.149191
1.970498
1.773804
1.558548
1.342916
1.265851
1.265851
1.259101
1.257976
1.259288
1.270351
1.335978
1.555923
1.805305
2.032562
2.158003
2.158003
2.230756
2.217255
2.145628
1.989811
1.795555
1.564173
1.341978
1.268101
1.268101
1.258913
1.258163
1.259663
1.268101
1.331291
1.538484
1.78918
2.001249
2.152003
2.152003
2.221193
2.21988
2.144691
1.983811
1.785804
1.557423
1.340853
1.268101
1.258538
1.258538
1.257788
1.258726
1.264914
1.304665
1.500233
1.741178
1.96356
2.107564
2.184817
2.184817
2.184254
2.107939
1.957747
1.762366
1.537359
1.32379
1.265289
1.257788
1.257601
1.257601
1.257976
1.260601
1.279352
1.435169
1.673676
1.899058
2.058813
2.131002
2.131002
2.124627
2.078501
1.917434
1.721678
1.510734
1.313478
1.263414
1.258163
1.257601
1.257601
1.257976
1.261163
1.277476
1.417356
1.664676
1.899808
2.061625
2.151253
2.170379
2.170379
2.112439
1.967873
1.79368
1.579736
1.349291
1.269601
1.258163
1.257788
1.258351
1.258351
1.261726
1.291164
1.453357
1.695802
1.950997
2.128565
2.214818
2.244819
2.207505
2.207505
2.079438
1.89662
1.698239
1.455044
1.294727
1.262851
1.259101
1.260226
1.272976
1.272976
1.347604
1.54936
1.809243
2.041562
2.224755
2.330508
2.347947
2.310071
2.310071
2.176191
1.989998
1.791242
1.55386
1.356416
1.270351
1.262101
1.263789
1.287227
1.287227
1.390355
1.600174
1.848619
2.084314
2.277632
2.368197
2.392385
2.361072
2.222318
2.222318
2.034812
1.836431
1.604861
1.388667
1.276726
1.262664
1.263039
1.287039
1.37948
1.37948
1.581611
1.838494
2.064626
2.261132
2.354134
2.382073
2.339321
2.223255
2.04025
2.04025
1.824056
1.582548
1.371042
1.271851
1.261163
1.262289
1.274101
1.355666
1.355666
1.545422
1.784305
2.017749
2.231318
2.325446
2.356009
2.313633
2.194004
2.003686
2.003686
1.817118
1.563798
1.347979
1.269601
1.260601
1.259663
1.270539
1.318353
1.493671
1.493671
1.754866
1.997311
2.179941
2.286257
2.315883
2.280445
2.185192
2.012124
1.809805
1.809805
1.581798
1.363917
1.266976
1.260601
1.259663
1.264539
1.297352
1.440606
1.695614
1.695614
1.938622
2.130252
2.244444
2.29507
2.273882
2.161191
1.977623
1.767241
1.541297
1.541297
1.331103
1.267164
1.259288
1.258351
1.263039
1.286477
1.413418
1.665801
1.665801
1.908808
2.111315
2.228693
2.284382
2.266757
2.176754
2.019437
1.814118
1.592111
1.592111
1.364479
1.268851
1.259663
1.259663
1.265289
1.299977
1.437419
1.677614
1.916683
1.916683
2.129503
2.256444
2.314383
2.29507
2.209192
2.032
1.838306
1.6313
1.39223
1.39223
1.277289
1.260601
1.259288
1.264539
1.29904
1.428606
1.662238
1.922871
2.134753
2.134753
2.259819
2.337071
2.308946
2.232443
2.068376
1.866619
1.653988
1.413418
1.413418
1.282352
1.260788
1.260038
1.263976
1.292289
1.429731
1.661113
1.901495
2.112439
2.112439
2.250631
2.323946
2.325258
2.238256
2.071751
1.876745
1.643675
1.425606
1.287227
1.287227
1.262101
1.259663
1.288164
1.422043
1.652488
1.89362
2.105877
2.245381
2.324321
2.324321
2.327134
2.261882
2.099314
1.909371
1.684551
1.438919
1.290602
1.261163
1.260601
1.260601
1.262664
1.285727
1.40123
1.6268
1.878807
2.114689
2.263757
2.342322
2.344384
2.344384
2.269757
2.110752
1.927746
1.713802
1.473607
1.304477
1.263414
1.259663
1.261539
1.261539
1.272789
1.309727
1.451294
1.632987
1.845431
1.969185
2.002561
1.944434
1.857807
1.857807
1.671426
1.479045
1.296227
1.262664
1.260788
1.263601
1.266789
1.266789
1.288539
1.288539
1.386792
1.659426
1.992248
2.294508
2.565266
2.653956
2.653956
2.621518
2.621518
2.54914
2.362572
2.150316
1.883495
1.648175
1.453169
1.359041
1.38173
1.47792
1.47792
1.624925
1.797617
2.031062
2.251569
2.393511
2.44695
2.439637
2.366885
2.202067
2.202067
1.984186
1.753179
1.501921
1.31179
1.262476
1.260226
1.260601
1.271101
1.340291
1.340291
1.532484
1.772304
2.016999
2.183504
2.276507
2.309133
2.251194
2.11169
1.907871
1.907871
1.713052
1.430481
1.293977
1.261351
1.258351
1.258726
1.265664
1.311603
1.311603
1.501171
1.743428
1.97856
2.154441
2.258881
2.274632
2.229068
2.100627
1.922496
1.922496
1.71399
1.486358
1.29904
1.260976
1.258913
1.258538
1.263789
1.306915
1.46892
1.46892
1.723365
1.948372
2.14019
2.242943
2.274632
2.229631
2.095752
1.929809
1.722615
1.722615
1.494233
1.31179
1.263601
1.258726
1.259101
1.263789
1.294165
1.446419
1.690739
1.690739
1.929059
2.140565
2.235256
2.275569
2.238256
2.12369
1.946497
1.744928
1.744928
1.512609
1.312728
1.263039
1.259663
1.258913
1.263789
1.294727
1.446607
1.691114
1.691114
1.928684
2.13569
2.234318
2.28682
2.245006
2.141878
1.957935
1.761241
1.517484
1.517484
1.322103
1.263226
1.258726
1.258538
1.262851
1.285352
1.410981
1.670488
1.896433
1.896433
2.108502
2.235256
2.266007
2.234881
2.139815
1.962622
1.759929
1.525172
1.323415
1.323415
1.263601
1.259101
1.258163
1.260788
1.282727
1.380792
1.615924
1.859494
1.859494
2.067626
2.179941
2.226255
2.21088
2.103627
1.927184
1.719427
1.497233
1.30804
1.30804
1.262664
1.258163
1.257788
1.259288
1.265101
1.325103
1.556485
1.786742
1.998249
1.998249
2.125377
2.180879
2.155378
2.068751
1.89887
1.706677
1.47267
1.292664
1.261351
1.261351
1.258163
1.257788
1.258726
1.265851
1.317415
1.522359
1.778492
1.991686
2.117315
2.117315
2.185567
2.168316
2.081876
1.923059
1.740428
1.502858
1.309727
1.263414
1.263414
1.258163
1.257976
1.259476
1.267164
1.326228
1.543922
1.791617
2.033499
2.174504
2.174504
2.237506
2.245381
2.171504
2.009686
1.809055
1.609174
1.374042
1.274851
1.260788
1.260788
1.258538
1.261726
1.283289
1.386605
1.620987
1.87862
2.11619
2.242568
2.320383
2.320383
2.330508
2.257381
2.094251
1.914058
1.688489
1.46667
1.29679
1.262289
1.260788
1.260788
1.265101
1.290977
1.425231
1.653988
1.905621
2.131002
2.281195
2.347572
2.350572
2.350572
2.298633
2.132503
1.936934
1.719052
1.48017
1.30354
1.264914
1.260413
1.260413
1.263789
1.289852
1.421856
1.640488
1.895683
2.119752
2.268632
2.356947
2.361634
2.361634
2.29432
2.141128
1.95381
1.73349
1.497046
1.308227
1.263976
1.260226
1.264351
1.264351
1.280102
1.386605
1.605611
1.846181
2.081501
2.254569
2.325446
2.337259
2.274632
2.274632
2.12894
1.945372
1.734991
1.49292
1.305227
1.263039
1.259476
1.261351
1.276539
1.276539
1.365042
1.582173
1.81768
2.047937
2.231131
2.299945
2.320196
2.277257
2.277257
2.124627
1.939934
1.722615
1.495358
1.309352
1.263039
1.260038
1.261351
1.273539
1.273539
1.353041
1.545235
1.809243
2.035375
2.211442
2.30482
2.30707
2.261507
2.11769
2.11769
1.927746
1.711552
1.47867
1.304477
1.262476
1.259288
1.259851
1.268289
1.314415
1.314415
1.481858
1.745491
1.983436
2.164941
2.267694
2.288507
2.248756
2.131002
1.951747
1.951747
1.749241
1.506421
1.310853
1.262664
1.258913
1.260601
1.268289
1.32229
1.32229
1.511296
1.761241
2.001436
2.195879
2.293945
2.329196
2.29732
2.169254
1.989811
1.989811
1.793305
1.551235
1.339166
1.267726
1.259851
1.259851
1.270351
1.334478
1.517109
1.517109
1.766679
2.003686
2.196255
2.302195
2.352447
2.295258
2.182754
2.012124
1.796117
1.796117
1.57261
1.359792
1.268476
1.260601
1.260038
1.267914
1.324915
1.503608
1.503608
1.749053
1.993748
2.188754
2.293195
2.335759
2.310071
2.182004
2.015874
1.825743
1.825743
1.589111
1.357354
1.270726
1.260788
1.259851
1.268289
1.321353
1.489545
1.734803
1.734803
1.987748
2.186879
2.292445
2.334446
2.307258
2.195129
2.012124
1.815993
1.584798
1.584798
1.363542
1.272039
1.260413
1.259476
1.267164
1.311603
1.476045
1.712115
1.957747
1.957747
2.165504
2.28532
2.337634
2.315883
2.222505
2.058063
1.855182
1.626987
1.390355
1.390355
1.276726
1.260413
1.259476
1.266976
1.311978
1.474545
1.72074
1.95681
1.95681
2.156316
2.244256
2.242381
2.167191
2.019812
1.791617
1.554798
1.323978
1.260976
1.260976
1.257788
1.257601
1.257788
1.257788
1.257601
1.263226
1.527984
1.943122
2.202442
2.202442
2.284195
2.336321
2.351134
2.375323
2.265257
2.160628
2.044937
1.871495
1.693364
1.693364
1.549735
1.506796
1.571486
1.702739
1.849931
2.042687
2.269569
2.476763
2.578391
2.578391
2.583641
2.579141
2.478263
2.28232
2.077001
1.823681
1.558173
1.334666
1.334666
1.267914
1.260601
1.264351
1.29529
1.434044
1.654551
1.88387
2.113189
2.237881
2.237881
2.313071
2.302383
2.228881
2.073438
1.883682
1.654551
1.419043
1.281227
1.260413
1.260413
1.258913
1.261539
1.275789
1.363917
1.584236
1.825556
2.054688
2.194754
2.277257
2.277257
2.269569
2.20638
2.051312
1.861932
1.635987
1.397105
1.277664
1.259476
1.258913
1.258913
1.259851
1.270539
1.349479
1.553297
1.822181
2.039687
2.191567
2.272944
2.272944
2.271819
2.206942
2.06125
1.87712
1.644613
1.410418
1.284977
1.259851
1.258538
1.258538
1.259663
1.270164
1.344791
1.54786
1.794617
2.025437
2.183317
2.269382
2.276507
2.276507
2.217068
2.081688
1.878995
1.678551
1.446794
1.290977
1.260413
1.258726
1.260038
1.260038
1.267914
1.326228
1.522547
1.774742
2.012311
2.184067
2.260194
2.283257
2.219318
2.219318
2.086564
1.89587
1.692614
1.451294
1.291539
1.260976
1.258538
1.259476
1.259476
1.266039
1.319665
1.502296
1.754491
1.993186
2.165129
2.252881
2.271069
2.226068
2.226068
2.090126
1.918559
1.710427
1.46517
1.292852
1.260788
1.258351
1.258726
1.264726
1.264726
1.299415
1.466295
1.71024
1.936184
2.122565
2.218568
2.248006
2.200567
2.078876
2.078876
1.894558
1.693177
1.445669
1.287602
1.259851
1.257976
1.258163
1.261163
1.278414
1.278414
1.389605
1.638613
1.872432
2.057125
2.149191
2.183692
2.145628
2.024687
1.850681
1.850681
1.641613
1.408918
1.279352
1.259101
1.257976
1.257601
1.259663
1.269414
1.269414
1.593424
1.820681
2.021687
2.134378
2.178442
2.149191
2.037812
1.870557
1.667676
1.432919
1.432919
1.284414
1.259476
1.258163
1.257788
1.260226
1.272601
1.362229
1.596611
1.837556
1.837556
2.053375
2.160441
2.210317
2.190067
2.094439
1.919496
1.736115
1.490858
1.304102
1.304102
1.263226
1.258726
1.258538
1.261726
1.284227
1.407418
1.663926
1.913308
2.129128
2.129128
2.245944
2.303133
2.278382
2.178816
2.017749
1.817305
1.601299
1.387542
1.272976
1.272976
1.260788
1.259851
1.266601
1.309727
1.47717
1.71399
1.955872
2.175629
2.175629
2.28982
2.351697
2.328071
2.229818
2.072688
1.888745
1.653988
1.421293
1.285727
1.285727
1.262476
1.260413
1.269039
1.311228
1.477733
1.704239
1.960747
2.174504
2.297132
2.297132
2.354884
2.337634
2.259256
2.090126
1.894933
1.668238
1.424668
1.285539
1.262476
1.262476
1.260413
1.265851
1.30579
1.447544
1.679489
1.928871
2.147503
2.281195
2.332759
2.332759
2.324134
2.257194
2.094251
1.89437
1.669363
1.453732
1.289664
1.261163
1.261163
1.259851
1.264164
1.290414
1.416606
1.64705
1.907871
2.127627
2.251756
2.327883
2.327883
2.318508
2.242193
2.083564
1.886683
1.672551
1.435356
1.287414
1.261726
1.259476
1.259476
1.263039
1.283852
1.396168
1.630362
1.86737
2.096127
2.229443
2.318321
2.315696
2.315696
2.246694
2.102127
1.913308
1.694677
1.441919
1.297352
1.261726
1.259476
1.262101
1.262101
1.281414
1.383417
1.611049
1.847119
2.086001
2.236193
2.302758
2.308196
2.308196
2.241256
2.089001
1.896433
1.687551
1.437981
1.290789
1.260788
1.258913
1.260976
1.260976
1.275226
1.352479
1.55911
1.805868
2.041
2.191192
2.28607
2.291132
2.233943
2.233943
2.097064
1.909371
1.693739
1.450357
1.296977
1.261351
1.258913
1.260601
1.274851
1.274851
1.353416
1.56286
1.830431
2.0545
2.214255
2.307258
2.319821
2.275007
2.141128
2.141128
1.948747
1.743053
1.495921
1.306915
1.263414
1.259476
1.261351
1.274289
1.274289
1.354166
1.562298
1.811305
2.048125
2.220443
2.30482
2.327508
2.278757
2.148441
2.148441
1.952872
1.752053
1.514109
1.316478
1.264164
1.259476
1.260601
1.272039
1.351541
1.351541
1.54411
1.811118
2.039125
2.209755
2.309695
2.322633
2.268632
2.14244
1.96431
1.96431
1.756554
1.519734
1.323228
1.264914
1.259663
1.260226
1.274664
1.348354
1.521984
1.521984
1.777367
2.013624
2.199442
2.296945
2.326009
2.286445
2.168504
1.990186
1.990186
1.787867
1.537734
1.335041
1.266039
1.259663
1.260976
1.272414
1.340853
1.515609
1.515609
1.768929
2.006124
2.196067
2.29882
2.331259
2.296195
2.182942
2.017374
1.816555
1.816555
1.576923
1.356791
1.268476
1.259851
1.260226
1.271289
1.329603
1.518609
1.769866
1.769866
2.015874
2.194192
2.257756
2.258506
2.168129
1.999749
1.755054
1.499671
1.297352
1.297352
1.259851
1.257601
1.257976
1.257976
1.257601
1.257788
1.261351
1.444544
1.444544
1.893245
2.206567
2.299945
2.330321
2.317196
2.29432
2.183879
2.053188
1.914433
1.914433
1.778867
1.629425
1.55986
1.514296
1.605049
1.746991
1.908058
2.105877
2.329946
2.329946
2.525515
2.580079
2.586641
2.569203
2.446575
2.248944
2.033499
1.764429
1.514859
1.514859
1.313853
1.267164
1.261351
1.267726
1.31329
1.476233
1.711177
1.941434
2.148628
2.148628
2.269194
2.320008
2.29882
2.200942
2.035375
1.843744
1.604861
1.367479
1.367479
1.270539
1.260038
1.259288
1.263414
1.285539
1.409668
1.636362
1.902058
2.103064
2.103064
2.21313
2.281382
2.265819
2.183879
2.011561
1.803992
1.580486
1.351916
1.269226
1.269226
1.260038
1.258351
1.261351
1.278789
1.38098
1.611237
1.867745
2.086376
2.21013
2.21013
2.27857
2.253631
2.203005
2.032187
1.819368
1.599424
1.368229
1.271289
1.258913
1.258913
1.258913
1.261913
1.276914
1.371792
1.602049
1.850307
2.0665
2.217443
2.277257
2.277257
2.269569
2.192504
2.022249
1.842431
1.610674
1.383605
1.274101
1.259476
1.259476
1.258726
1.260976
1.274664
1.363729
1.580861
1.832868
2.055813
2.19963
2.279507
2.279507
2.266194
2.189879
2.038187
1.843181
1.626425
1.384167
1.277101
1.259663
1.258538
1.258538
1.260038
1.271476
1.348916
1.570735
1.814868
2.0395
2.184254
2.269569
2.262257
2.262257
2.209942
2.045687
1.860994
1.6373
1.401418
1.279164
1.259851
1.258726
1.259663
1.259663
1.267351
1.320228
1.521609
1.767054
1.995623
2.147128
2.229443
2.223443
2.223443
2.189692
2.032749
1.836994
1.625487
1.382667
1.278414
1.259101
1.257976
1.258163
1.258163
1.262476
1.287789
1.461795
1.693177
1.927559
2.086751
2.164379
2.179191
2.131002
2.131002
1.986061
1.793492
1.596424
1.356229
1.270914
1.258538
1.257601
1.257976
1.260413
1.260413
1.276539
1.418668
1.658301
1.894183
2.062001
2.158941
2.180129
2.135128
2.000686
2.000686
1.811868
1.610674
1.381355
1.271476
1.258351
1.257976
1.258163
1.261163
1.261163
1.279727
1.419231
1.662426
1.893995
2.082438
2.192317
2.214818
2.170004
2.052813
2.052813
1.875432
1.678551
1.442857
1.286664
1.260601
1.258538
1.259101
1.264914
1.301477
1.301477
1.473045
1.732365
1.960935
2.165129
2.264882
2.30032
2.254569
2.160816
1.980623
1.980623
1.763866
1.54186
1.338416
1.266789
1.260226
1.261163
1.273164
1.338791
1.522359
1.522359
1.773804
2.008186
2.206005
2.327508
2.361072
2.319633
2.195504
2.046062
1.830243
1.830243
1.612737
1.383417
1.271476
1.261726
1.261163
1.275601
1.353604
1.518046
1.518046
1.771554
2.011374
2.215193
2.315133
2.366885
2.330133
2.22288
2.042875
1.852182
1.852182
1.601861
1.382855
1.272976
1.260601
1.261163
1.272601
1.337103
1.507921
1.761804
1.761804
1.991686
2.20938
2.322258
2.344009
2.339134
2.230381
2.05075
1.853119
1.62905
1.62905
1.40123
1.273539
1.261539
1.260038
1.267914
1.316853
1.48392
1.734991
1.967123
1.967123
2.180879
2.292633
2.340446
2.312883
2.218755
2.046438
1.847869
1.614049
1.614049
1.391855
1.272789
1.260788
1.260038
1.265476
1.303727
1.448669
1.687927
1.932997
1.932997
2.147503
2.268069
2.312696
2.296945
2.197567
2.056188
1.868495
1.626425
1.38773
1.38773
1.274476
1.261163
1.259288
1.263601
1.292289
1.438544
1.655488
1.901683
2.130065
2.130065
2.247819
2.320946
2.318321
2.222318
2.053188
1.865119
1.641237
1.408168
1.280289
1.280289
1.261726
1.259851
1.264914
1.293039
1.436106
1.665801
1.895308
2.126503
2.126503
2.250631
2.318883
2.313071
2.229818
2.077001
1.881807
1.647425
1.412856
1.280289
1.280289
1.260788
1.259101
1.262476
1.283289
1.391855
1.6343
1.87112
2.085814
2.216505
2.216505
2.291507
2.28982
2.20413
2.083189
1.869432
1.657551
1.411356
1.282352
1.261351
1.261351
1.258913
1.261163
1.280477
1.39223
1.616674
1.863244
2.100064
2.239756
2.325821
2.325821
2.322821
2.255319
2.099314
1.917434
1.692989
1.458982
1.289289
1.262101
1.262101
1.260038
1.262101
1.287789
1.400668
1.616112
1.869995
2.250631
2.321321
2.323383
2.278944
2.278944
2.117877
1.929434
1.709302
1.470232
1.300165
1.262476
1.259476
1.262851
1.279727
1.279727
1.386605
1.611987
1.839056
2.080564
2.234131
2.315883
2.328071
2.275194
2.130252
2.130252
1.946872
1.739491
1.481295
1.299227
1.265851
1.259663
1.261726
1.279352
1.279352
1.377417
1.583673
1.825181
2.055438
2.227193
2.314008
2.323946
2.273507
2.130065
2.130065
1.951935
1.749616
1.498921
1.313102
1.263414
1.259851
1.261351
1.273914
1.358479
1.358479
1.56886
1.815993
2.05075
2.214818
2.308383
2.326946
2.28307
2.149378
1.965247
1.965247
1.779429
1.539984
1.332978
1.263789
1.259663
1.261163
1.273351
1.337666
1.548047
1.548047
1.812618
2.031625
2.187442
2.254756
2.241818
2.146753
1.95306
1.721115
1.721115
1.46967
1.285164
1.259288
1.257601
1.257976
1.257788
1.257788
1.257976
1.272601
1.272601
1.55086
2.051687
2.288132
2.358634
2.387698
2.382635
2.36651
2.241256
2.098377
2.098377
1.971435
1.832306
1.690177
1.599424
1.597736
1.685301
1.831368
1.970685
2.179566
2.179566
2.412261
2.567328
2.581391
2.588517
2.569953
2.438512
2.242381
1.998436
1.739303
1.739303
1.487483
1.29604
1.265851
1.262476
1.273726
1.352479
1.519171
1.768929
1.768929
1.993561
2.177129
2.289632
2.325821
2.280632
2.179379
1.995811
1.799492
1.565485
1.565485
1.349104
1.266414
1.259288
1.258913
1.264914
1.29979
1.427856
1.671801
1.917246
1.917246
2.12294
2.222693
2.280257
2.248756
2.140565
1.969748
1.779242
1.529672
1.328853
1.328853
1.265101
1.259101
1.258913
1.262664
1.285352
1.405918
1.676489
1.909933
2.125752
2.125752
2.237881
2.28682
2.257944
2.158191
1.999749
1.806618
1.572048
1.351354
1.351354
1.266976
1.259101
1.258726
1.262289
1.284227
1.406106
1.6448
1.897183
2.106252
2.106252
2.22213
2.28382
2.272757
2.169066
2.004999
1.803055
1.584986
1.364854
1.270914
1.270914
1.259663
1.258726
1.262101
1.285164
1.403105
1.63805
1.887058
2.096501
2.226818
2.226818
2.275757
2.266569
2.178816
2.014749
1.835306
1.576361
1.359416
1.268664
1.259476
1.259476
1.258538
1.261163
1.275226
1.369354
1.612924
1.854432
2.065376
2.19663
2.19663
2.263757
2.253819
2.159503
2.015311
1.81168
1.602986
1.365417
1.269789
1.259476
1.259476
1.258351
1.260038
1.269789
1.357354
1.56436
1.806055
2.033687
2.174504
2.235631
2.235631
2.21763
2.148066
1.983623
1.794055
1.561735
1.339541
1.266789
1.258351
1.257788
1.257788
1.258726
1.264914
1.305977
1.512421
1.758054
1.971998
2.103439
2.180504
2.164379
2.164379
2.093689
1.934122
1.751678
1.532109
1.30429
1.264539
1.258163
1.257788
1.258163
1.258163
1.261539
1.287414
1.455607
1.709115
1.931497
2.069501
2.151066
2.151441
2.151441
2.092752
1.951184
1.765366
1.544485
1.319478
1.266414
1.258163
1.257788
1.258351
1.258351
1.261913
1.289852
1.464795
1.714177
1.940497
2.102877
2.189879
2.202067
2.152941
2.152941
2.001061
1.818243
1.610674
1.381917
1.272226
1.259476
1.257788
1.259101
1.265851
1.265851
1.318165
1.523484
1.777554
2.03125
2.195692
2.268069
2.290007
2.256069
2.093689
2.093689
1.920059
1.71999
1.481295
1.304665
1.261913
1.259288
1.261726
1.280102
1.280102
1.376104
1.580298
1.843744
2.084501
2.253256
2.335571
2.343634
2.297508
2.165129
2.165129
1.97181
1.770054
1.529672
1.338416
1.266226
1.260976
1.262476
1.281039
1.39073
1.39073
1.593424
1.846181
2.089189
2.257006
2.352072
2.371385
2.315133
2.177316
2.000311
2.000311
1.791242
1.536984
1.335978
1.266414
1.260788
1.261539
1.278414
1.372167
1.565485
1.565485
1.79818
2.058063
2.245756
2.323571
2.350572
2.309508
2.185754
1.993936
1.993936
1.78768
1.545985
1.338416
1.266226
1.260226
1.260788
1.270914
1.347229
1.53811
1.53811
1.783367
2.025249
2.21538
2.309883
2.338946
2.30782
2.167004
1.986248
1.786555
1.786555
1.54786
1.336916
1.264539
1.260226
1.260226
1.270539
1.338416
1.524047
1.775867
1.775867
2.003499
2.20188
2.308946
2.341947
2.297695
2.168316
1.993186
1.785992
1.561548
1.561548
1.336728
1.266039
1.259663
1.259288
1.268476
1.32079
1.492733
1.750366
1.750366
1.986436
2.193442
2.29207
2.329009
2.289632
2.174504
1.986436
1.799305
1.549547
1.549547
1.346854
1.265664
1.260226
1.259476
1.267351
1.315353
1.48167
1.736866
1.980623
1.980623
2.182379
2.285882
2.326571
2.299945
2.195129
2.019999
1.831556
1.581423
1.362792
1.362792
1.270351
1.260413
1.259476
1.266039
1.314603
1.470232
1.715302
1.961122
2.150316
2.150316
2.268632
2.323571
2.291882
2.183129
2.010999
1.822181
1.573173
1.358667
1.358667
1.270539
1.259476
1.259288
1.262851
1.286477
1.417731
1.659801
1.909183
2.125752
2.125752
2.244444
2.296195
2.276695
2.19363
2.007249
1.830618
1.598674
1.371417
1.274101
1.274101
1.261726
1.259288
1.265664
1.30204
1.450732
1.686051
1.944622
2.159878
2.28382
2.28382
2.336321
2.30932
2.22288
2.0605
1.854807
1.624362
1.399168
1.277101
1.260601
1.260601
1.260038
1.264351
1.286852
1.425043
1.670301
1.912746
2.13269
2.264319
2.264319
2.326009
2.314571
2.223818
2.068751
1.866432
1.643113
1.411543
1.281039
1.261351
1.261351
1.259288
1.262476
1.295102
1.430481
1.64255
1.906183
2.129503
2.257006
2.337821
2.337821
2.310258
2.235068
2.084876
1.88387
1.659051
1.432169
1.285727
1.260601
1.259851
1.259851
1.262664
1.284789
1.401793
1.63055
1.895495
2.107752
2.254381
2.315696
2.31532
2.31532
2.262069
2.095939
1.894558
1.673114
1.431419
1.290039
1.263039
1.259101
1.262664
1.262664
1.281602
1.395605
1.618737
1.876182
2.097251
2.264694
2.351509
2.341572
2.341572
2.265819
2.103814
1.90112
1.680051
1.443794
1.293039
1.261913
1.260976
1.261913
1.261913
1.275601
1.355104
1.511671
1.700677
1.872432
1.992998
2.029187
1.984748
1.881245
1.881245
1.695989
1.454857
1.320603
1.260038
1.257788
1.257976
1.260976
1.278414
1.337291
1.337291
1.46067
1.665426
1.969748
2.311758
2.556266
2.653394
2.653581
2.653769
2.61383
2.61383
2.498701
2.269382
2.019249
1.768179
1.578236
1.492546
1.463107
1.56361
1.56361
1.683801
1.880495
2.099876
2.293383
2.4582
2.515952
2.492139
2.407386
2.240131
2.240131
2.011561
1.768366
1.512796
1.316665
1.264726
1.258726
1.260038
1.269601
1.332041
1.332041
1.518609
1.766304
1.989436
2.196442
2.273507
2.29207
2.243506
2.114689
1.910496
1.910496
1.703302
1.442857
1.286289
1.260788
1.258726
1.258726
1.264539
1.290227
1.466107
1.466107
1.72449
1.95756
2.152378
2.239568
2.274632
2.232818
2.092001
1.902433
1.902433
1.718865
1.469107
1.298102
1.261351
1.258538
1.258726
1.264726
1.297352
1.452232
1.452232
1.708552
1.949309
2.139815
2.247256
2.273132
2.221005
2.117315
1.930934
1.706865
1.706865
1.477733
1.30429
1.261539
1.258913
1.258538
1.262851
1.292852
1.450544
1.704427
1.704427
1.924746
2.13194
2.231131
2.250818
2.126878
1.950997
1.748303
1.506796
1.30429
1.264351
1.264351
1.258351
1.258163
1.262289
1.291727
1.430106
1.682676
1.903746
2.114127
2.222318
2.222318
2.264507
2.231506
2.13644
1.951184
1.73799
1.510546
1.31104
1.262476
1.262476
1.258538
1.258351
1.261351
1.280664
1.403293
1.640112
1.88837
2.091251
2.190254
2.190254
2.247819
2.22588
2.107939
1.925871
1.725428
1.505858
1.29604
1.262664
1.257788
1.257788
1.257976
1.260601
1.269226
1.336541
1.584611
1.822556
2.029937
2.153691
2.203192
2.203192
2.162879
2.064626
1.891933
1.686427
1.447357
1.290789
1.260413
1.257976
1.257788
1.257788
1.258351
1.262476
1.30054
1.498546
1.739866
1.960935
2.069688
2.132128
2.12444
2.12444
2.015499
1.864557
1.65005
1.419981
1.278227
1.260413
1.257601
1.257413
1.257413
1.258351
1.261913
1.290414
1.488233
1.740428
1.955872
2.091439
2.149566
2.148816
2.148816
2.049625
1.899808
1.713052
1.48017
1.290039
1.261163
1.257976
1.257788
1.258351
1.258351
1.264351
1.31704
1.512234
1.770054
2.005374
2.13419
2.225505
2.214818
2.135878
2.135878
1.981748
1.797805
1.568298
1.353604
1.269039
1.259101
1.258351
1.260976
1.260976
1.278227
1.380042
1.601299
1.860057
2.090501
2.249506
2.317571
2.320946
2.254756
2.254756
2.099127
1.915746
1.697677
1.457669
1.29829
1.263039
1.261351
1.265289
1.30204
1.30204
1.456357
1.676676
1.913683
2.152941
2.307633
2.384323
2.389573
2.320383
2.152003
2.152003
1.97556
1.757304
1.499296
1.328665
1.265664
1.260788
1.265101
1.294915
1.423731
1.423731
1.641988
1.897933
2.119002
2.288882
2.349447
2.38001
2.312508
2.161753
1.960935
1.960935
1.753179
1.495546
1.31704
1.263789
1.260976
1.262476
1.284227
1.37873
1.37873
1.607862
1.848994
2.084689
2.266944
2.327134
2.348322
2.279507
2.127065
1.939559
1.939559
1.735365
1.491608
1.310853
1.261913
1.259851
1.262289
1.274476
1.363917
1.569048
1.569048
1.821056
2.065001
2.243318
2.323571
2.326571
2.28307
2.144315
1.953435
1.733303
1.733303
1.500046
1.326603
1.262851
1.259663
1.260226
1.270351
1.352666
1.549922
1.805492
1.805492
2.039687
2.206567
2.314383
2.344759
2.287007
2.13044
1.97931
1.755616
1.755616
1.504921
1.325103
1.264351
1.259288
1.261351
1.269601
1.332041
1.53811
1.785429
1.785429
2.019062
2.222318
2.313071
2.339884
2.291507
2.166254
1.97631
1.771179
1.539797
1.539797
1.330541
1.264164
1.260788
1.260038
1.272414
1.340103
1.520109
1.780367
2.013999
2.013999
2.19663
2.305383
2.355447
2.306695
2.185754
2.010624
1.799492
1.55386
1.341416
1.341416
1.267164
1.260601
1.261351
1.268851
1.336166
1.516546
1.773992
2.008561
2.008561
2.201692
2.321508
2.353947
2.312883
2.203192
2.008561
1.804555
1.56961
1.356791
1.356791
1.266414
1.260788
1.259288
1.264539
1.313665
1.470232
1.722615
1.952872
2.165691
2.165691
2.270694
2.330321
2.297695
2.203192
2.029749
1.827431
1.586861
1.367667
1.271101
1.271101
1.260038
1.260226
1.266414
1.325478
1.502671
1.729928
1.96581
2.178442
2.294508
2.294508
2.345696
2.321508
2.223443
2.042687
1.822368
1.627175
1.365229
1.277476
1.277476
1.262664
1.259476
1.267726
1.316103
1.476233
1.717365
1.96881
2.170191
2.286632
2.286632
2.358259
2.326571
2.231881
2.060313
1.855932
1.622112
1.400105
1.279914
1.260601
1.260601
1.260226
1.266414
1.299227
1.47567
1.701614
1.938997
2.169254
2.296008
2.346822
2.346822
2.323383
2.241068
2.073626
1.878807
1.6523
1.40123
1.278414
1.261726
1.259476
1.259476
1.263601
1.310477
1.446794
1.676114
1.925121
2.151628
2.284382
2.371572
2.330884
2.330884
2.258694
2.085251
1.881807
1.656613
1.425793
1.284227
1.261351
1.259851
1.259851
1.264914
1.299602
1.445107
1.678176
1.928684
2.138315
2.262444
2.315133
2.310446
2.310446
2.235631
2.072688
1.894745
1.668051
1.427106
1.280852
1.260226
1.257788
1.258351
1.258351
1.260038
1.268664
1.345541
1.544485
1.718115
1.811493
1.863057
1.863807
1.763866
1.763866
1.645738
1.570735
1.632425
1.579173
1.420918
1.275414
1.267726
1.299415
1.299415
1.508859
1.763304
2.118252
2.476763
2.634268
2.653769
2.653581
2.653394
2.653206
2.653206
2.587016
2.442262
2.186317
1.904121
1.674051
1.478858
1.383605
1.378167
1.482045
1.482045
1.6388
1.821431
2.029374
2.240131
2.372885
2.426512
2.374573
2.317946
2.157629
2.157629
1.952872
1.73049
1.467232
1.300915
1.261913
1.259288
1.260413
1.273351
1.346666
1.346666
1.571298
1.820118
2.036687
2.193442
2.281945
2.29432
2.22363
2.069313
1.895308
1.895308
1.674426
1.426356
1.285164
1.260788
1.258163
1.259101
1.266789
1.324165
1.324165
1.514859
1.760304
1.998061
2.171691
2.258319
2.272194
2.22438
2.075876
1.900371
1.900371
1.690552
1.443419
1.288164
1.260226
1.258351
1.259663
1.264914
1.30879
1.484483
1.484483
1.73799
1.97931
2.166629
2.254006
2.277632
2.235443
2.096127
1.913683
1.721303
1.721303
1.469482
1.29679
1.261726
1.258726
1.258913
1.267351
1.311978
1.472107
1.749428
1.749428
1.976498
2.169441
2.270132
2.292258
2.244069
2.12144
1.921371
1.71924
1.71924
1.472295
1.313665
1.260976
1.258913
1.258726
1.263789
1.297352
1.47117
1.717177
1.717177
1.95981
2.14169
2.248006
2.27857
2.248756
2.114502
1.932246
1.729365
1.491983
1.491983
1.301665
1.262476
1.258538
1.258163
1.263039
1.287977
1.422231
1.687739
1.925309
1.925309
2.111315
2.215943
2.244819
2.21688
2.101564
1.917058
1.699177
1.47492
1.289852
1.289852
1.261351
1.257976
1.258163
1.259851
1.275226
1.370104
1.609362
1.842994
1.842994
2.057875
2.14619
2.197942
2.158941
2.047937
1.871495
1.653425
1.423731
1.278039
1.278039
1.259663
1.257601
1.257601
1.258913
1.264726
1.31029
1.528547
1.768742
1.97706
1.97706
2.095189
2.152191
2.116377
2.010249
1.838306
1.6298
1.393543
1.275976
1.259288
1.259288
1.257788
1.257788
1.258163
1.263414
1.311415
1.522359
1.761054
2.001811
2.121627
2.121627
2.159128
2.152191
2.054313
1.885745
1.688114
1.460482
1.292102
1.260601
1.260601
1.258351
1.257788
1.259476
1.266976
1.338416
1.568673
1.816743
2.048125
2.176941
2.176941
2.239568
2.230381
2.149566
1.997498
1.799305
1.56286
1.356041
1.270164
1.259851
1.259851
1.259476
1.262851
1.289102
1.418293
1.656426
1.907121
2.13494
2.270319
2.349634
2.349634
2.340634
2.246881
2.088439
1.888933
1.690927
1.446044
1.291914
1.263226
1.260601
1.260601
1.267539
1.31254
1.462545
1.698239
1.945934
2.162879
2.307445
2.398948
2.37926
2.37926
2.293945
2.133628
1.935809
1.724678
1.476608
1.303165
1.263976
1.261539
1.261539
1.266789
1.302415
1.448857
1.677989
1.920809
2.157629
2.293195
2.363509
2.37626
2.37626
2.291507
2.117877
1.921371
1.70799
1.459169
1.299227
1.264351
1.260226
1.264539
1.264539
1.291352
1.418668
1.643113
1.895308
2.115814
2.278382
2.344384
2.346071
2.282882
2.128002
1.926246
1.71849
1.472295
1.300727
1.262101
1.260226
1.262476
1.282164
1.38923
1.38923
1.599799
1.863619
2.095939
2.245756
2.327696
2.338946
2.264132
2.116377
1.925871
1.925871
1.712677
1.466295
1.300727
1.262664
1.259288
1.261163
1.280852
1.364479
1.580861
1.580861
1.842994
2.068938
2.22663
2.333321
2.342322
2.281382
2.132128
1.947997
1.719052
1.719052
1.488983
1.30879
1.262664
1.260038
1.260976
1.273914
1.361104
1.566798
1.566798
1.81393
2.05225
2.233756
2.318508
2.343071
2.28832
2.143003
1.967498
1.754116
1.754116
1.512046
1.326041
1.265851
1.260038
1.261351
1.271664
1.344229
1.559298
1.813743
1.813743
2.054125
2.233943
2.312133
2.340822
2.301633
2.167941
1.966935
1.751491
1.519359
1.519359
1.325478
1.263976
1.260601
1.260226
1.267726
1.326416
1.506608
1.755429
2.000499
2.000499
2.184067
2.29057
2.317383
2.271444
2.148628
1.967873
1.762741
1.516734
1.516734
1.321915
1.265664
1.259663
1.259851
1.272039
1.334291
1.516734
1.779992
2.022062
2.022062
2.210505
2.329759
2.355072
2.30407
2.179941
1.995623
1.79743
1.545985
1.342166
1.342166
1.266414
1.260601
1.259851
1.268851
1.333166
1.520671
1.763304
2.003499
2.204317
2.204317
2.299008
2.336696
2.29507
2.189317
2.009311
1.794992
1.568298
1.348166
1.267539
1.267539
1.260413
1.259851
1.267914
1.315728
1.483545
1.737053
1.983623
2.186129
2.186129
2.301633
2.338196
2.308383
2.198505
2.019624
1.810368
1.586111
1.354166
1.267351
1.267351
1.259851
1.259476
1.266601
1.303915
1.466857
1.738553
1.977998
2.179379
2.29957
2.29957
2.334634
2.306133
2.202817
2.027499
1.829681
1.599611
1.369917
1.271851
1.260226
1.260226
1.259476
1.265289
1.309915
1.47342
1.723178
1.96131
2.179004
2.307445
2.356197
2.356197
2.332571
2.229443
2.0545
1.837556
1.605986
1.37648
1.272414
1.260788
1.260788
1.259663
1.265289
1.303165
1.430106
1.668801
1.862307
2.026749
2.095001
2.120877
2.120877
2.076626
1.949309
1.744928
1.497983
1.297727
1.261351
1.257976
1.257601
1.257788
1.257788
1.297165
1.498546
1.6418
1.830056
2.063313
2.314571
2.526077
2.62958
2.653769
2.653769
2.653769
2.62808
2.511077
2.230381
1.947622
1.723178
1.551797
1.482795
1.548047
1.548047
1.658676
1.795367
1.990748
2.195504
2.38076
2.478076
2.520827
2.480701
2.480701
2.397261
2.204692
1.958872
1.709302
1.433669
1.286102
1.260226
1.258726
1.260976
1.260976
1.276164
1.364104
1.596424
1.839056
2.071188
2.21163
2.283445
2.271069
2.199067
2.199067
2.040062
1.834743
1.618362
1.371792
1.271476
1.259288
1.258351
1.259476
1.269414
1.269414
1.343853
1.545235
1.79818
2.035
2.176379
2.254569
2.252319
2.181442
2.028624
2.028624
1.838494
1.616487
1.383792
1.275601
1.259101
1.257976
1.259476
1.269226
1.336728
1.336728
1.533797
1.785617
2.016812
2.170379
2.250444
2.260756
2.198317
2.047
2.047
1.852744
1.631862
1.394668
1.277664
1.259288
1.257976
1.259101
1.266976
1.32154
1.32154
1.524984
1.779804
2.008561
2.171504
2.261132
2.264132
2.202817
2.0665
1.878432
1.878432
1.663551
1.416793
1.284414
1.259851
1.258163
1.258913
1.264726
1.315353
1.508671
1.508671
1.756179
1.992998
2.159878
2.251006
2.251756
2.194567
2.062001
1.873932
1.656801
1.656801
1.423543
1.279539
1.260038
1.257976
1.258538
1.262851
1.300727
1.471732
1.471732
1.72224
1.95606
2.150128
2.223255
2.241818
2.190254
2.047937
1.861557
1.654176
1.654176
1.404605
1.281039
1.259476
1.257788
1.258351
1.260601
1.278602
1.405168
1.649675
1.649675
1.889308
2.072126
2.166441
2.185379
2.119565
1.992248
1.812618
1.593424
1.366354
1.366354
1.271476
1.258163
1.257413
1.257601
1.258726
1.265664
1.348166
1.588173
1.798367
1.798367
1.975935
2.081501
2.114127
2.071188
1.948372
1.767054
1.55536
1.338416
1.338416
1.266601
1.258163
1.257413
1.257601
1.258351
1.263976
1.315728
1.532672
1.775492
1.775492
1.997686
2.103814
2.136065
2.101752
1.985498
1.814305
1.613487
1.385667
1.270539
1.270539
1.259288
1.257788
1.257413
1.259288
1.268101
1.358104
1.606362
1.845056
2.034437
2.034437
2.154816
2.205817
2.191942
2.085814
1.924371
1.730115
1.503046
1.29904
1.263039
1.263039
1.258351
1.258351
1.263226
1.282352
1.421481
1.669738
1.920621
2.136065
2.136065
2.260007
2.322821
2.311571
2.231506
2.056563
1.875432
1.646675
1.418668
1.284977
1.284977
1.264351
1.261351
1.273351
1.342353
1.516171
1.746053
2.000124
2.22288
2.332946
2.332946
2.391823
2.378697
2.287007
2.119565
1.930371
1.71474
1.458232
1.30129
1.265851
1.265851
1.263039
1.271289
1.328665
1.496108
1.72749
1.969373
2.197192
2.318883
2.376822
2.376822
2.36651
2.278195
2.12369
1.924934
1.701052
1.448294
1.291164
1.263976
1.263976
1.260601
1.264914
1.301102
1.448669
1.673114
1.924746
2.134565
2.275007
2.345321
2.345321
2.332571
2.264319
2.107377
1.912558
1.692239
1.444544
1.290602
1.261913
1.259851
1.259851
1.263976
1.285352
1.413231
1.63955
1.885932
2.114315
2.247069
2.322633
2.323008
2.323008
2.254006
2.085626
1.898495
1.690927
1.448669
1.284227
1.261163
1.259101
1.262476
1.262476
1.280477
1.382292
1.613487
1.852369
2.088251
2.22513
2.306133
2.323008
2.323008
2.258881
2.110189
1.921371
1.700489
1.455607
1.297165
1.261913
1.259288
1.262101
1.262101
1.279727
1.366354
1.584798
1.842619
2.0605
2.223255
2.30032
2.301258
2.245381
2.245381
2.11394
1.934309
1.709302
1.471545
1.299227
1.261726
1.258913
1.260788
1.273351
1.273351
1.353791
1.547672
1.821993
2.046062
2.20488
2.284007
2.307258
2.255131
2.109814
2.109814
1.940684
1.733865
1.493858
1.315728
1.264164
1.260038
1.262101
1.277664
1.381355
1.381355
1.568485
1.828931
2.06125
2.239756
2.342134
2.341009
2.296757
2.166441
2.166441
1.972935
1.773617
1.528922
1.322478
1.264164
1.260226
1.260976
1.275601
1.365229
1.365229
1.56136
1.824056
2.059188
2.227755
2.324134
2.333134
2.299757
2.180879
1.990561
1.990561
1.786742
1.547485
1.338228
1.266039
1.260413
1.260976
1.277664
1.368417
1.557797
1.557797
1.796492
2.040437
2.230193
2.332571
2.361822
2.320383
2.195879
2.011936
1.813368
1.813368
1.565298
1.348916
1.265851
1.260226
1.260976
1.273539
1.346479
1.537547
1.537547
1.79443
2.017187
2.200942
2.300695
2.330321
2.311383
2.186692
2.012124
1.804555
1.804555
1.572048
1.356604
1.267351
1.260226
1.260226
1.273539
1.329228
1.512984
1.784867
1.784867
2.004061
2.201505
2.314571
2.356385
2.333321
2.217443
2.03425
1.815055
1.56511
1.56511
1.358854
1.269039
1.260788
1.260788
1.271664
1.333728
1.487295
1.702364
1.886495
1.886495
2.038562
2.108502
2.106814
2.023562
1.88987
1.657926
1.417731
1.271476
1.271476
1.259101
1.257788
1.257788
1.257788
1.278039
1.452419
1.634675
1.837368
2.085064
2.085064
2.287945
2.508264
2.581016
2.647393
2.644206
2.576141
2.399511
1.89587
1.666926
1.535859
1.535859
1.486733
1.563985
1.669551
1.827056
2.044937
2.262257
2.434012
2.514264
2.559266
2.559266
2.532452
2.37776
2.180692
1.960185
1.695614
1.429731
1.281227
1.262289
1.259663
1.259663
1.263601
1.29754
1.436481
1.680426
1.908246
2.128752
2.249319
2.299757
2.287195
2.287195
2.203005
2.032187
1.832118
1.593611
1.372917
1.270164
1.259476
1.258538
1.258538
1.260601
1.277101
1.384542
1.623425
1.863807
2.088814
2.215943
2.281382
2.265444
2.265444
2.180504
2.028999
1.830431
1.601861
1.365792
1.270914
1.259663
1.258351
1.260788
1.260788
1.278602
1.364667
1.594174
1.849369
2.060126
2.215193
2.271069
2.277257
2.193067
2.193067
2.043625
1.843931
1.628112
1.38623
1.272039
1.259101
1.257976
1.260226
1.269789
1.269789
1.362792
1.577111
1.832681
2.065001
2.20188
2.271444
2.278007
2.218943
2.218943
2.050562
1.867557
1.644238
1.39748
1.278227
1.260038
1.258351
1.260788
1.273164
1.273164
1.349479
1.575048
1.821806
2.046438
2.194379
2.272757
2.273507
2.196442
2.070251
2.070251
1.862494
1.648175
1.40648
1.280852
1.259851
1.258351
1.260601
1.270539
1.340291
1.340291
1.544297
1.806243
2.015874
2.176004
2.254756
2.258694
2.19363
2.046438
1.860994
1.860994
1.646675
1.402355
1.278977
1.259288
1.257976
1.258913
1.265851
1.309727
1.309727
1.463107
1.749053
1.971998
2.125752
2.212193
2.22663
2.155753
2.008374
1.822368
1.822368
1.614799
1.373292
1.270914
1.258351
1.257601
1.258351
1.260976
1.281227
1.425231
1.425231
1.673301
1.896058
2.055438
2.151253
2.163628
2.104564
1.957372
1.783367
1.575798
1.575798
1.349104
1.267351
1.258163
1.257601
1.257976
1.260413
1.275226
1.398043
1.656988
1.656988
1.885558
2.065376
2.158191
2.168504
2.130252
1.998623
1.823306
1.608612
1.608612
1.383605
1.271664
1.258351
1.257788
1.258163
1.260976
1.279914
1.418481
1.662988
1.662988
1.905808
2.090126
2.184817
2.243506
2.195317
2.068001
1.893808
1.689052
1.443607
1.443607
1.29754
1.261539
1.258538
1.258913
1.265289
1.318728
1.494233
1.742116
1.978748
1.978748
2.192317
2.291132
2.337259
2.287195
2.174504
1.997686
1.801742
1.566985
1.359229
1.359229
1.268289
1.260601
1.260976
1.276164
1.365042
1.550297
1.81768
2.0515
2.245569
2.245569
2.352634
2.394823
2.351134
2.224943
2.050188
1.845056
1.597924
1.386042
1.386042
1.275414
1.260788
1.261163
1.276539
1.349479
1.536234
1.777367
2.023562
2.224943
2.224943
2.335196
2.372698
2.345509
2.220068
2.042125
1.853494
1.605799
1.38773
1.272789
1.272789
1.260976
1.260226
1.269976
1.330166
1.504358
1.747928
1.990186
2.187629
2.294508
2.294508
2.340822
2.318508
2.202255
2.028624
1.831931
1.584423
1.365979
1.269414
1.260226
1.260226
1.259476
1.265476
1.306165
1.475108
1.70499
1.946122
2.158191
2.27857
2.27857
2.327508
2.304445
2.198317
2.039125
1.825368
1.588736
1.367667
1.272601
1.260788
1.260788
1.259288
1.263601
1.302977
1.457294
1.689052
1.932621
2.157629
2.274819
2.328634
2.328634
2.30032
2.211067
2.03725
1.829118
1.614049
1.38398
1.273164
1.260413
1.259288
1.259288
1.263789
1.293602
1.436669
1.680426
1.917808
2.129877
2.267132
2.328071
2.315696
2.315696
2.219693
2.051125
1.847869
1.607112
1.369917
1.272976
1.259663
1.258913
1.258913
1.261913
1.283852
1.408168
1.64405
1.902621
2.128565
2.248756
2.325258
2.306883
2.306883
2.22738
2.065938
1.86737
1.654176
1.413793
1.283477
1.260976
1.259663
1.262664
1.262664
1.290039
1.421106
1.6523
1.908996
2.127627
2.267319
2.339884
2.333321
2.258881
2.258881
2.103064
1.900745
1.684926
1.443419
1.292477
1.261726
1.259476
1.262851
1.284977
1.284977
1.410606
1.645925
1.895308
2.107752
2.263007
2.345696
2.331071
2.257944
2.257944
2.098189
1.917434
1.703115
1.448857
1.29604
1.262101
1.259476
1.261351
1.281602
1.281602
1.397293
1.623612
1.876557
2.115064
2.263194
2.344572
2.337821
2.276695
2.135878
2.135878
1.932434
1.712677
1.478295
1.306915
1.262289
1.260038
1.262476
1.280664
1.398605
1.398605
1.619299
1.859307
2.107377
2.250256
2.342696
2.350572
2.28832
2.138503
1.947997
1.947997
1.731053
1.492358
1.31254
1.262851
1.259851
1.261913
1.280852
1.382292
1.382292
1.591549
1.860619
2.087876
2.251006
2.335009
2.326009
2.268069
2.132503
1.955497
1.955497
1.750366
1.504546
1.322665
1.262851
1.258538
1.258538
1.260413
1.267351
1.317228
1.317228
1.490108
1.677801
1.81918
1.866057
1.863057
1.80943
1.63355
1.507733
1.388855
1.388855
1.403293
1.374792
1.294915
1.263414
1.267914
1.335603
1.587611
1.878995
2.22213
2.22213
2.524952
2.647018
2.653206
2.653581
2.653769
2.61083
2.510327
2.258319
2.258319
1.965998
1.728803
1.511296
1.401793
1.374042
1.449982
1.594736
1.788992
1.995998
1.995998
2.207505
2.36651
2.409636
2.422011
2.338196
2.208255
2.018124
1.809243
1.555923
1.555923
1.343666
1.266789
1.260226
1.259476
1.269414
1.322665
1.501358
1.761616
1.985873
1.985873
2.187067
2.282507
2.306133
2.265632
2.145066
1.979123
1.749428
1.515046
1.319478
1.319478
1.263789
1.259101
1.259851
1.263976
1.296602
1.449982
1.707427
1.938809
2.142628
2.142628
2.253256
2.285132
2.252881
2.135503
1.953622
1.750741
1.519921
1.31854
1.31854
1.263976
1.258726
1.258351
1.264726
1.293414
1.435731
1.671239
1.915183
2.129315
2.129315
2.244069
2.293008
2.250256
2.151066
1.975748
1.766679
1.530797
1.330353
1.264726
1.264726
1.259288
1.258913
1.262101
1.287039
1.420731
1.658863
1.905808
2.101564
2.248381
2.248381
2.288882
2.269944
2.170754
1.989623
1.793492
1.553297
1.336916
1.266976
1.259663
1.259663
1.258163
1.261726
1.282352
1.409293
1.645738
1.87937
2.105689
2.22438
2.22438
2.274819
2.250631
2.158941
1.987561
1.784679
1.55911
1.339353
1.265289
1.258538
1.258538
1.258726
1.260788
1.276914
1.370479
1.614237
1.845994
2.069501
2.189879
2.257381
2.257381
2.239568
2.143753
1.980248
1.773054
1.553485
1.333541
1.266601
1.258726
1.257788
1.257788
1.259288
1.268289
1.328665
1.532109
1.802493
2.017187
2.149566
2.220068
2.177129
2.177129
2.098001
1.934872
1.734991
1.507733
1.306727
1.262101
1.257788
1.257601
1.257601
1.258351
1.261539
1.290602
1.46217
1.705927
1.933184
2.074376
2.147878
2.145628
2.145628
2.068376
1.908058
1.712302
1.479233
1.29454
1.262664
1.257788
1.257413
1.258163
1.258163
1.261163
1.284602
1.439669
1.71249
1.927746
2.090126
2.157629
2.162316
2.097626
2.097626
1.954185
1.761616
1.543735
1.321915
1.265476
1.257976
1.257788
1.258351
1.263039
1.263039
1.299977
1.499671
1.755429
1.996373
2.158941
2.241631
2.246131
2.189504
2.189504
2.059563
1.861557
1.650425
1.419606
1.280477
1.260413
1.258538
1.260226
1.277289
1.277289
1.371979
1.594549
1.842619
2.082063
2.228318
2.346071
2.343259
2.293383
2.145066
2.145066
1.947434
1.759554
1.505858
1.264351
1.261163
1.263414
1.288352
1.403668
1.628112
1.868495
1.868495
2.11919
2.276882
2.361072
2.379635
2.325634
2.166441
1.98081
1.776429
1.776429
1.531359
1.337666
1.267914
1.260601
1.263414
1.281039
1.384542
1.604111
1.862494
1.862494
2.082063
2.262444
2.332946
2.376072
2.318508
2.174691
1.982123
1.771929
1.525921
1.525921
1.330166
1.264726
1.260601
1.261726
1.277664
1.366917
1.568485
1.830243
2.050188
2.050188
2.225505
2.322258
2.376072
2.30407
2.164379
1.981373
1.772304
1.528734
1.330541
1.330541
1.265289
1.260038
1.260038
1.272226
1.335041
1.531172
1.783179
2.022812
2.022812
2.211442
2.324508
2.332759
2.290945
2.170941
1.990936
1.785242
1.549172
1.338416
1.338416
1.265851
1.260788
1.259663
1.270914
1.334478
1.515421
1.771742
2.003499
2.202067
2.202067
2.298258
2.329946
2.290757
2.173191
1.994873
1.773429
1.55686
1.339166
1.267726
1.267726
1.259663
1.259101
1.265476
1.307477
1.461982
1.71099
1.959997
2.158566
2.279882
2.279882
2.313633
2.282882
2.167754
1.996748
1.790867
1.55986
1.344979
1.267726
1.267726
1.259663
1.260226
1.267539
1.316478
1.482608
1.730303
1.972373
2.182004
2.299195
2.299195
2.348134
2.317008
2.215193
2.03125
1.841306
1.591549
1.370854
1.269226
1.260226
1.260226
1.259663
1.269039
1.313102
1.479795
1.73799
1.968248
2.184067
2.304258
2.356009
2.356009
2.323571
2.231693
2.056563
1.848806
1.62155
1.388855
1.274289
1.261726
1.259663
1.259663
1.265289
1.310477
1.467982
1.711365
1.965998
2.183879
2.29957
2.354322
2.354322
2.336884
2.241443
2.069688
1.869807
1.638988
1.410981
1.281977
1.261163
1.259851
1.259851
1.265101
1.300352
1.458232
1.693364
1.932997
2.151066
2.28082
2.360322
2.335759
2.335759
2.253819
2.081313
1.88762
1.649488
1.428794
1.287414
1.262476
1.260038
1.263601
1.263601
1.294165
1.443232
1.677989
1.917058
2.149566
2.283632
2.362197
2.348509
2.272757
2.272757
2.11094
1.919496
1.685864
1.422231
1.283664
1.260601
1.259476
1.264351
1.264351
1.29454
1.431419
1.651738
1.865869
2.06425
2.166066
2.176379
2.092939
2.001061
2.001061
1.79593
1.554235
1.326416
1.262289
1.258163
1.257601
1.257976
1.257788
1.260976
1.260976
1.468732
1.81318
2.078501
2.273694
2.417136
2.552515
2.584954
2.590579
2.577641
2.577641
2.550828
2.365572
2.107939
1.882557
1.699927
1.602237
1.615549
1.696552
1.825181
1.825181
2.009499
2.232443
2.421262
2.54839
2.577079
2.570703
2.498326
2.309508
2.309508
2.074376
1.829118
1.55161
1.322103
1.264164
1.259851
1.261539
1.278789
1.375917
1.375917
1.587236
1.827431
2.070813
2.214255
2.29582
2.305945
2.243131
2.095376
1.906371
1.906371
1.675926
1.437981
1.285914
1.260226
1.258351
1.259851
1.266226
1.316103
1.511296
1.511296
1.769866
1.995436
2.178254
2.267319
2.27932
2.222505
2.084314
1.894933
1.681926
1.681926
1.437231
1.286289
1.260413
1.258538
1.258913
1.266039
1.31554
1.500608
1.756741
1.756741
1.992061
2.170379
2.258131
2.278757
2.224193
2.095752
1.906933
1.697114
1.697114
1.454294
1.294352
1.260976
1.258538
1.259476
1.266414
1.314415
1.488795
1.744366
1.744366
1.989811
2.169254
2.256631
2.28907
2.246881
2.11994
1.921184
1.716802
1.475295
1.475295
1.298102
1.261913
1.259101
1.258726
1.264164
1.308227
1.472107
1.722615
1.965998
1.965998
2.159128
2.250069
2.278195
2.238631
2.115814
1.929434
1.723365
1.475295
1.301477
1.301477
1.261163
1.258351
1.258913
1.262476
1.292102
1.442857
1.685301
1.912371
1.912371
2.121815
2.225318
2.251756
2.208817
2.085814
1.899058
1.693552
1.469107
1.292289
1.292289
1.260601
1.258163
1.257788
1.260413
1.277101
1.380417
1.624175
1.861557
2.05825
2.05825
2.164566
2.21238
2.165879
2.04025
1.861744
1.649863
1.407605
1.277664
1.259101
1.259101
1.257601
1.257601
1.258351
1.264351
1.321915
1.536234
1.766117
1.980435
2.084876
2.084876
2.130815
2.103064
1.995248
1.820681
1.608799
1.374042
1.271476
1.258913
1.258913
1.257788
1.257601
1.258351
1.262664
1.305602
1.515234
1.774179
1.979498
2.104939
2.104939
2.156128
2.12219
2.029749
1.87412
1.655863
1.432544
1.281414
1.260038
1.257788
1.257788
1.257788
1.258726
1.265289
1.322665
1.537547
1.784117
2.026187
2.156878
2.209567
2.209567
2.195692
2.108877
1.945184
1.752616
1.540735
1.322665
1.266226
1.258726
1.258163
1.258163
1.260976
1.281602
1.392792
1.642363
1.89512
2.127627
2.263944
2.328446
2.328446
2.308383
2.22288
2.071938
1.871495
1.640863
1.414356
1.278227
1.261539
1.260413
1.260413
1.266226
1.301852
1.472295
1.698052
1.95081
2.178442
2.317383
2.38076
2.369322
2.369322
2.298445
2.13194
1.926246
1.701989
1.47117
1.303165
1.264351
1.260788
1.266789
1.266789
1.30579
1.453169
1.685676
1.937309
2.164004
2.295258
2.374573
2.356947
2.28307
2.28307
2.126315
1.921559
1.699177
1.455044
1.296977
1.262101
1.260413
1.264914
1.291164
1.291164
1.422793
1.648363
1.906371
2.131752
2.282882
2.348134
2.356572
2.272382
2.272382
2.115814
1.920996
1.70874
1.452982
1.292477
1.261913
1.259288
1.261913
1.281602
1.281602
1.392417
1.621924
1.871682
2.094814
2.251756
2.342322
2.340071
2.274819
2.117877
2.117877
1.923434
1.71174
1.470045
1.305415
1.262476
1.259851
1.261726
1.280664
1.382105
1.382105
1.601486
1.854994
2.069313
2.220255
2.319071
2.318883
2.262819
2.112439
2.112439
1.922871
1.70949
1.458607
1.294165
1.261913
1.258726
1.259476
1.269414
1.344979
1.344979
1.54336
1.799867
2.040062
2.210692
2.298445
2.297508
2.236381
2.116002
1.931684
1.931684
1.717552
1.475108
1.30579
1.262289
1.259476
1.260976
1.273539
1.356229
1.56211
1.56211
1.808118
2.060126
2.243318
2.321883
2.337446
2.29357
2.149566
1.96206
1.759554
1.759554
1.519921
1.325853
1.264539
1.259663
1.260413
1.275789
1.352104
1.561735
1.812805
1.812805
2.0395
2.226818
2.330321
2.341197
2.297883
2.166441
1.982123
1.785617
1.785617
1.539422
1.336353
1.266039
1.260413
1.260226
1.270726
1.339728
1.54561
1.792367
1.792367
2.035
2.219693
2.318133
2.344384
2.314008
2.179941
1.998623
1.79293
1.55236
1.55236
1.348916
1.268664
1.260413
1.260226
1.269976
1.336353
1.517484
1.774367
2.026187
2.026187
2.218005
2.322633
2.352072
2.316071
2.19663
2.024312
1.807743
1.575986
1.357166
1.357166
1.270164
1.260601
1.260976
1.270164
1.333353
1.504171
1.757866
1.994873
1.994873
2.213505
2.317758
2.377948
2.343822
2.223443
2.047188
1.834743
1.599799
1.376104
1.376104
1.275601
1.261163
1.261163
1.275789
1.336728
1.500421
1.754679
1.942372
2.109064
2.109064
2.164566
2.183879
2.121627
1.977998
1.760679
1.524984
1.305977
1.262101
1.257788
1.257788
1.257601
1.258538
1.320978
1.533234
1.686239
1.888745
2.111502
2.344947
2.533015
2.533015
2.609704
2.653956
2.653769
2.609517
2.456325
2.164754
1.891745
1.660926
1.660926
1.505108
1.533609
1.659988
1.808493
1.993936
2.222505
2.392198
2.492701
2.527015
2.454262
2.454262
2.355634
2.156316
1.932621
1.655488
1.394668
1.274101
1.259663
1.258913
1.261726
1.261726
1.281977
1.396168
1.617612
1.883307
2.105314
2.22363
2.28232
2.278382
2.180692
2.180692
2.014936
1.815055
1.594174
1.357916
1.270351
1.259288
1.257976
1.260788
1.274101
1.274101
1.372167
1.602237
1.844681
2.066688
2.202817
2.278757
2.253069
2.173566
2.011186
2.011186
1.816555
1.597549
1.365229
1.269789
1.259101
1.258538
1.259851
1.272226
1.272226
1.362604
1.579548
1.832118
2.057875
2.194192
2.266194
2.268819
2.188567
2.038562
2.038562
1.835306
1.626425
1.374042
1.275039
1.259288
1.258163
1.259663
1.271476
1.360541
1.360541
1.571673
1.828556
2.05375
2.195504
2.266382
2.265069
2.191004
2.029562
1.837181
1.837181
1.6313
1.400668
1.278789
1.259288
1.258351
1.259476
1.270914
1.340103
1.557797
1.557797
1.80268
2.03125
2.184629
2.251381
2.258506
2.186692
2.036875
1.843181
1.843181
1.632612
1.39673
1.277851
1.259101
1.258163
1.258913
1.265289
1.313102
1.504171
1.504171
1.756554
1.97856
2.144128
2.234881
2.253631
2.176566
2.020562
1.830431
1.612924
1.612924
1.37798
1.271851
1.258726
1.257788
1.258163
1.261539
1.289477
1.454107
1.689239
1.689239
1.920434
2.085439
2.171129
2.181067
2.120502
1.975373
1.789555
1.578423
1.340666
1.340666
1.266976
1.257976
1.257601
1.257413
1.259101
1.269039
1.375917
1.609362
1.609362
1.840744
2.012499
2.097251
2.12894
2.071376
1.929996
1.750178
1.537359
1.32229
1.32229
1.264351
1.257788
1.257788
1.257788
1.259101
1.267539
1.355854
1.597924
1.849369
1.849369
2.029374
2.122002
2.152191
2.108315
1.976685
1.783367
1.595861
1.368417
1.270164
1.270164
1.258538
1.257788
1.257788
1.260413
1.275039
1.39373
1.648363
1.890995
2.091814
2.091814
2.199817
2.240881
2.19963
2.077376
1.905621
1.705364
1.473045
1.303352
1.262289
1.262289
1.258913
1.258726
1.265101
1.312353
1.500608
1.752616
1.990561
2.189317
2.189317
2.301445
2.348697
2.312696
2.195504
2.021124
1.823681
1.595486
1.374792
1.274664
1.274664
1.261726
1.262101
1.275789
1.361854
1.552172
1.802868
2.051875
2.253069
2.36051
2.36051
2.408136
2.38001
2.264132
2.086001
1.874682
1.635425
1.411731
1.280289
1.262476
1.262476
1.261726
1.276539
1.352104
1.541672
1.792742
2.030687
2.234506
2.346071
2.392385
2.392385
2.354697
2.254381
2.078876
1.86887
1.63955
1.40798
1.280289
1.262289
1.262289
1.260788
1.269414
1.32529
1.503233
1.745303
1.979873
2.192317
2.30407
2.351134
2.351134
2.327508
2.223068
2.050937
1.851244
1.63505
1.396355
1.277664
1.261726
1.259663
1.259663
1.266039
1.299977
1.467232
1.70649
1.941809
2.158191
2.281195
2.339134
2.327696
2.327696
2.238068
2.056563
1.863244
1.634862
1.40723
1.278414
1.260413
1.259288
1.262476
1.262476
1.284789
1.414918
1.631862
1.889495
2.104002
2.231318
2.293758
2.282507
2.282507
2.199067
2.027687
1.833056
1.615362
1.388105
1.277476
1.260226
1.258913
1.261351
1.261351
1.280477
1.389417
1.609737
1.858744
2.084126
2.238631
2.312133
2.303508
2.239381
2.239381
2.086376
1.898683
1.684551
1.446982
1.291539
1.261539
1.259663
1.263976
1.285539
1.285539
1.40948
1.62305
1.876182
2.098377
2.246506
2.323383
2.327696
2.259819
2.109627
2.109627
1.915934
1.702927
1.46142
1.295477
1.261913
1.259663
1.262664
1.286477
1.286477
1.39748
1.611987
1.869619
2.111315
2.260756
2.342884
2.336509
2.272194
2.131565
2.131565
1.936747
1.722053
1.482608
1.304665
1.263039
1.260038
1.261913
1.282352
1.38773
1.38773
1.608049
1.862494
2.082063
2.252881
2.342322
2.346822
2.287757
2.132503
1.952122
1.952122
1.745491
1.500233
1.312728
1.263039
1.259851
1.261913
1.278977
1.380042
1.587611
1.587611
1.838119
2.079438
2.245756
2.330696
2.345134
2.290757
2.150691
1.971248
1.971248
1.757304
1.517671
1.32454
1.263976
1.260038
1.261163
1.277476
1.38098
1.593424
1.593424
1.852744
2.072126
2.252131
2.327508
2.347009
2.303133
2.184817
2.008561
1.80868
1.80868
1.571486
1.356229
1.268289
1.259663
1.259101
1.262851
1.276351
1.356604
1.584423
1.584423
1.770054
1.913496
1.974998
1.977248
1.929996
1.821431
1.657176
1.655863
1.659801
1.659801
1.532484
1.315915
1.267726
1.266414
1.314603
1.506421
1.799867
2.218005
2.524765
2.524765
2.638018
2.653956
2.653769
2.638581
2.572579
2.395948
2.170191
1.933184
1.933184
1.682864
1.456357
1.340666
1.321165
1.37798
1.514859
1.684176
1.902246
2.120877
2.120877
2.30557
2.366697
2.36951
2.311196
2.187817
2.001811
1.782054
1.530609
1.326041
1.326041
1.266039
1.259288
1.258726
1.263976
1.302602
1.457294
1.711927
1.946309
2.149378
2.149378
2.247819
2.292633
2.261132
2.151441
1.97181
1.754491
1.517671
1.32304
1.263226
1.263226
1.259101
1.258538
1.262664
1.282727
1.428044
1.690364
1.916121
2.119002
2.119002
2.236381
2.281945
2.252881
2.146565
1.981373
1.773242
1.536797
1.332978
1.266039
1.266039
1.258913
1.258538
1.262101
1.284977
1.405543
1.652113
1.892308
2.11394
2.228131
2.228131
2.275007
2.254381
2.163628
1.992623
1.79518
1.550672
1.333541
1.267726
1.259288
1.259288
1.258163
1.262101
1.280852
1.40123
1.64105
1.883682
2.085814
2.215568
2.277257
2.277257
2.253069
2.152003
1.994311
1.790305
1.571298
1.344791
1.267914
1.258913
1.258913
1.258538
1.260601
1.280102
1.38548
1.608424
1.854807
2.070813
2.20563
2.263944
2.263944
2.248569
2.163066
1.991123
1.78843
1.574486
1.347041
1.267164
1.258726
1.257976
1.257976
1.260226
1.273539
1.360354
1.585736
1.827993
2.051312
2.176754
2.236756
2.233943
2.233943
2.14544
1.984186
1.782804
1.550672
1.339541
1.265664
1.258538
1.257788
1.258913
1.258913
1.264914
1.317415
1.508671
1.753741
1.982498
2.112814
2.179754
2.167754
2.087501
2.087501
1.935059
1.73649
1.512234
1.311415
1.263601
1.257601
1.257601
1.257976
1.257976
1.260788
1.282164
1.438919
1.690927
1.914996
2.063313
2.13644
2.138315
2.072501
2.072501
1.914996
1.71849
1.509609
1.304665
1.262476
1.257601
1.257601
1.257976
1.260976
1.260976
1.284977
1.443232
1.702739
1.924371
2.089939
2.177504
2.168879
2.12294
1.973685
1.973685
1.783554
1.576361
1.354541
1.267726
1.258538
1.257788
1.258726
1.264914
1.30579
1.30579
1.499108
1.773242
2.007249
2.161378
2.258319
2.268069
2.212943
2.079063
2.079063
1.89287
1.689239
1.457107
1.294352
1.261726
1.259101
1.261351
1.273351
1.365417
1.365417
1.579736
1.827993
2.070438
2.245194
2.329571
2.348134
2.300695
2.156128
1.969935
1.969935
1.756366
1.524234
1.326791
1.266039
1.260976
1.262101
1.283852
1.39148
1.599986
1.599986
1.854807
2.089939
2.267694
2.369885
2.388073
2.334821
2.199442
2.013624
1.807743
1.807743
1.563985
1.348541
1.269226
1.260788
1.263601
1.278414
1.567735
1.823493
2.063125
2.063125
2.251756
2.341572
2.366885
2.316446
2.182942
1.988873
1.788805
1.553485
1.336166
1.336166
1.266789
1.260601
1.260601
1.271101
1.350604
1.534359
1.79368
2.011561
2.20638
2.20638
2.296757
2.338571
2.290945
2.166816
1.995623
1.785617
1.554985
1.341791
1.341791
1.265289
1.260601
1.259476
1.267726
1.32004
1.504733
1.766304
1.997686
2.196442
2.196442
2.299195
2.331821
2.302195
2.188754
1.998999
1.791055
1.552735
1.350604
1.266039
1.266039
1.260226
1.259476
1.265476
1.304102
1.469295
1.728803
1.961872
2.167379
2.272007
2.272007
2.30632
2.268819
2.165504
1.987936
1.788992
1.558548
1.344229
1.268851
1.260038
1.260038
1.259663
1.264539
1.306727
1.46592
1.706115
1.96281
2.189129
2.293945
2.293945
2.352072
2.327321
2.229631
2.052438
1.850494
1.630362
1.397105
1.276726
1.261163
1.261163
1.260413
1.270914
1.327165
1.496296
1.725428
1.992623
2.20563
2.334071
2.380198
2.380198
2.350572
2.267319
2.091251
1.89812
1.664113
1.440419
1.284414
1.263976
1.261913
1.261913
1.269976
1.326228
1.498171
1.735365
1.993936
2.215755
2.333134
2.389385
2.381885
2.381885
2.284195
2.110002
1.913683
1.691677
1.453732
1.300352
1.263789
1.261351
1.270726
1.270726
1.322103
1.495733
1.743241
1.975935
2.205255
2.332571
2.38526
2.374948
2.374948
2.291507
2.128002
1.932246
1.698427
1.459169
1.300727
1.264351
1.262664
1.266976
1.266976
1.316103
1.471357
1.709302
1.956435
2.172817
2.310821
2.382448
2.382073
2.286257
2.286257
2.109252
1.922121
1.71099
1.470232
1.30279
1.263976
1.261163
1.269789
1.315353
1.315353
1.473795
1.691864
1.926246
2.162316
2.318321
2.388073
2.390511
2.323383
2.323383
2.167754
1.933934
1.687364
1.415481
1.267539
1.257788
1.257601
1.257601
1.258351
1.258351
1.260038
1.284414
1.411356
1.639738
1.760116
1.873182
1.953435
2.140003
2.170566
2.170566
2.013624
1.766304
1.506608
1.325103
1.294165
1.296227
1.412481
1.660738
1.900183
1.900183
2.139628
2.390698
2.555328
2.634455
2.653769
2.653956
2.597142
2.520452
2.310258
2.310258
2.04775
1.797055
1.531359
1.347041
1.30129
1.309727
1.393543
1.548047
1.727678
1.727678
1.95756
2.159316
2.299008
2.372698
2.385073
2.314008
2.174129
1.967498
1.967498
1.753366
1.503796
1.312353
1.263976
1.259663
1.261726
1.277664
1.375917
1.564548
1.564548
1.821431
2.052438
2.229068
2.305758
2.324134
2.258131
2.113564
1.930371
1.731428
1.731428
1.486733
1.304477
1.262289
1.258913
1.259476
1.270351
1.335791
1.524984
1.773804
1.773804
2.017187
2.194004
2.286257
2.303883
2.254944
2.120502
1.936559
1.72149
1.47942
1.47942
1.31404
1.263226
1.258726
1.259851
1.268289
1.319103
1.509421
1.761054
1.761054
1.992998
2.188754
2.277257
2.312883
2.263007
2.142066
1.948184
1.738553
1.503046
1.503046
1.31629
1.262851
1.258913
1.259476
1.266039
1.299602
1.493671
1.743053
1.975373
1.975373
2.183317
2.275757
2.30782
2.260756
2.141503
1.954747
1.749991
1.499296
1.320978
1.320978
1.263414
1.258726
1.258538
1.266601
1.303165
1.461232
1.708177
1.955872
2.153503
2.153503
2.266757
2.30782
2.261694
2.137003
1.966185
1.746241
1.500983
1.314228
1.263414
1.263414
1.259101
1.258351
1.261913
1.289102
1.435544
1.667113
1.912183
2.11919
2.11919
2.227193
2.267319
2.245006
2.133065
1.942934
1.743053
1.499671
1.306915
1.262851
1.262851
1.258351
1.258163
1.260226
1.272976
1.371229
1.605424
1.837181
2.049625
2.159878
2.159878
2.206192
2.167379
2.076063
1.907496
1.685489
1.439669
1.288727
1.260226
1.257601
1.257601
1.257976
1.258913
1.265664
1.31779
1.527984
1.775117
2.000686
2.115439
2.171879
2.171879
2.148816
2.05525
1.884995
1.685676
1.447732
1.291164
1.260601
1.257601
1.257601
1.257788
1.258913
1.263789
1.313853
1.528734
1.784305
1.996186
2.138503
2.215943
2.215943
2.180317
2.101939
1.929996
1.73199
1.508109
1.314978
1.264351
1.258538
1.257976
1.257976
1.260038
1.271851
1.370104
1.589861
1.863244
2.099501
2.233193
2.294508
2.290007
2.290007
2.21088
2.050937
1.859307
1.649488
1.413981
1.284977
1.261351
1.260038
1.264726
1.264726
1.292664
1.433856
1.674239
1.930184
2.14244
2.295258
2.371385
2.359385
2.359385
2.285132
2.134003
1.929434
1.705364
1.47492
1.302602
1.263414
1.262101
1.266226
1.266226
1.302977
1.455794
1.680614
1.931684
2.177691
2.323571
2.397823
2.377385
2.30932
2.30932
2.153503
1.965622
1.730115
1.491983
1.307102
1.263039
1.260413
1.266226
1.30204
1.30204
1.441356
1.659051
1.922496
2.152566
2.30257
2.382823
2.371197
2.296008
2.157816
2.157816
1.95831
1.731615
1.498733
1.315165
1.264914
1.260601
1.262851
1.286289
1.286289
1.422043
1.621737
1.878432
2.109064
2.269944
2.353947
2.370822
2.29882
2.154816
2.154816
1.95306
1.742303
1.491983
1.315728
1.263976
1.260601
1.262476
1.281789
1.389792
1.389792
1.604674
1.853307
2.084689
2.265632
2.337446
2.349634
2.292445
2.154816
1.953435
1.953435
1.735928
1.502296
1.31254
1.263226
1.260788
1.260413
1.274851
1.362792
1.559298
1.559298
1.808118
2.059188
2.233006
2.313071
2.322446
2.260007
2.121627
1.934684
1.934684
1.72899
1.496671
1.31629
1.263226
1.258538
1.259851
1.270539
1.333353
1.522922
1.522922
1.779992
2.013249
2.21088
2.317571
2.335759
2.288507
2.155941
1.97631
1.765179
1.765179
1.528172
1.330353
1.265476
1.259476
1.260601
1.272976
1.339541
1.527047
1.796305
1.796305
2.013811
2.219318
2.319446
2.353384
2.308196
2.185567
1.998436
1.79518
1.546922
1.546922
1.345541
1.269226
1.260413
1.260601
1.270914
1.332228
1.522547
1.772117
2.017187
2.017187
2.212755
2.317008
2.35751
2.326009
2.200755
2.005936
1.823118
1.582361
1.582361
1.355479
1.268476
1.262101
1.260038
1.270164
1.329603
1.512234
1.748678
2.000499
2.000499
2.204692
2.320008
2.365385
2.328446
2.217255
2.04175
1.840181
1.601861
1.381542
1.381542
1.270914
1.260976
1.260226
1.268476
1.320603
1.510359
1.738928
1.980998
2.187629
2.187629
2.309883
2.348134
2.324134
2.215755
2.05525
1.848806
1.614049
1.389605
1.276351
1.276351
1.262289
1.260226
1.269414
1.328853
1.482795
1.72374
1.95756
2.194754
2.194754
2.30182
2.374573
2.371947
2.262444
2.081876
1.851057
1.577861
1.319478
1.262101
1.262101
1.257601
1.257601
1.257601
1.257788
1.260226
1.293789
1.451294
1.662426
1.751303
1.751303
1.869057
2.021124
2.221755
2.147316
1.952872
1.684926
1.447544
1.330353
1.318728
1.318728
1.352666
1.554047
1.777742
1.988498
2.239943
2.479763
2.590579
2.654331
2.653956
2.653956
2.652643
2.575204
2.448075
2.214818
1.962247
1.684364
1.448669
1.306915
1.306915
1.284977
1.309727
1.38848
1.563235
1.767241
1.971623
2.174879
2.299945
2.350759
2.350759
2.346071
2.246694
2.084876
1.88612
1.658113
1.410231
1.281789
1.260788
1.258913
1.258913
1.261726
1.283852
1.394105
1.623237
2.073813
2.223255
2.305195
2.29507
2.209755
2.053
2.053
1.848244
1.623425
1.386417
1.279914
1.259851
1.258726
1.259476
1.272414
1.357354
1.357354
1.577298
1.812243
2.053375
2.199817
2.281569
2.270694
2.208255
2.048875
1.848994
1.848994
1.642175
1.39673
1.278789
1.259101
1.258351
1.260038
1.268851
1.341978
1.341978
1.546922
1.818056
2.027312
2.197755
2.275569
2.290757
2.227005
2.077564
1.880307
1.880307
1.659801
1.419231
1.282352
1.260038
1.258351
1.260226
1.267351
1.331478
1.533422
1.533422
1.788617
2.036875
2.205817
2.262444
2.29057
2.218568
2.070063
1.88762
1.668988
1.668988
1.436106
1.284039
1.259851
1.258163
1.258913
1.267351
1.316478
1.512796
1.764429
1.764429
2.010436
2.178816
2.257381
2.280632
2.214818
2.080939
1.883682
1.670114
1.670114
1.428606
1.289102
1.259663
1.258163
1.258351
1.263789
1.29979
1.483733
1.713052
1.713052
1.950997
2.11619
2.206567
2.224568
2.182192
2.042312
1.854807
1.636175
1.398605
1.398605
1.277851
1.259101
1.257788
1.257976
1.260788
1.275976
1.392605
1.642175
1.871495
1.871495
2.052625
2.149003
2.169441
2.113752
1.985498
1.801555
1.565485
1.350416
1.265476
1.265476
1.257976
1.257601
1.257601
1.258538
1.266226
1.324915
1.55611
1.799492
1.799492
1.997498
2.095189
2.126127
2.104002
1.97631
1.79893
1.590611
1.360916
1.269601
1.269601
1.258351
1.257788
1.257601
1.258913
1.265476
1.338228
1.57336
1.813743
2.018124
2.018124
2.132503
2.175816
2.138128
2.026937
1.841681
1.640863
1.416606
1.281977
1.260038
1.260038
1.258163
1.257788
1.260038
1.278039
1.402355
1.651363
1.901308
2.114315
2.230756
2.230756
2.283445
2.262819
2.158753
1.994873
1.776429
1.555547
1.346854
1.267914
1.267914
1.260413
1.259288
1.265289
1.30654
1.461607
1.73199
1.962997
2.181817
2.303695
2.303695
2.358447
2.333134
2.240318
2.071938
1.862869
1.630175
1.40273
1.276351
1.262101
1.262101
1.261726
1.267164
1.324728
1.500046
1.739303
1.974998
2.19663
2.31532
2.376072
2.376072
2.351322
2.261694
2.082438
1.884433
1.668613
1.438169
1.286477
1.261913
1.260413
1.260413
1.269789
1.318165
1.482983
1.723553
1.961497
2.185379
2.312133
2.38151
2.38151
2.349447
2.261694
2.097064
1.885182
1.663738
1.431981
1.285914
1.263226
1.260038
1.260038
1.264539
1.299227
1.457482
1.689989
1.934122
2.153691
2.299945
2.356572
2.345134
2.345134
2.261132
2.096876
1.885182
1.667113
1.431419
1.291164
1.263226
1.260226
1.263789
1.263789
1.290414
1.420918
1.65305
1.920246
2.136253
2.28232
2.333509
2.326571
2.249131
2.249131
2.101752
1.897745
1.676676
1.427481
1.287039
1.260976
1.260413
1.262289
1.262289
1.283477
1.397293
1.644425
1.877307
2.111127
2.242943
2.321508
2.315883
2.243506
2.243506
2.071751
1.889683
1.673489
1.426731
1.284977
1.260226
1.258351
1.260413
1.274664
1.274664
1.353604
1.56886
1.822743
2.046625
2.218193
2.301633
2.294883
2.214255
2.087314
2.087314
1.885745
1.661113
1.441356
1.293039
1.261539
1.258913
1.260788
1.274476
1.37798
1.37798
1.575986
1.843369
2.061438
2.232068
2.319821
2.334821
2.28082
2.12444
2.12444
1.913308
1.71699
1.484108
1.300915
1.262289
1.259663
1.261351
1.274664
1.374042
1.374042
1.591361
1.840556
2.070813
2.237506
2.320383
2.332571
2.273319
2.138128
1.931121
1.931121
1.734803
1.489358
1.30879
1.263226
1.260038
1.260601
1.272226
1.350229
1.555735
1.555735
1.816743
2.056
2.236006
2.324134
2.347572
2.307633
2.146378
1.962622
1.765741
1.765741
1.522171
1.31704
1.264164
1.259288
1.260226
1.272414
1.342166
1.545797
1.78918
1.78918
2.05375
2.234318
2.338946
2.350572
2.305945
2.168129
1.973873
1.763116
1.763116
1.517484
1.319665
1.264726
1.259851
1.259476
1.270914
1.340291
1.533234
1.777554
1.777554
2.007624
2.20713
2.310821
2.355634
2.326196
2.19813
2.012499
1.80868
1.559673
1.559673
1.343479
1.267351
1.259851
1.261539
1.275789
1.348916
1.559673
1.794242
2.004249
2.004249
2.190629
2.233006
2.201505
2.091814
1.930746
1.707052
1.443982
1.274101
1.258538
1.258538
1.257601
1.257976
1.257788
1.257788
1.266601
1.519359
1.87337
2.085251
2.085251
2.257756
2.343259
2.415261
2.4642
2.450512
2.413386
2.299945
2.117127
1.836806
1.836806
1.593236
1.491045
1.469295
1.536984
1.662238
1.846744
2.066313
2.287757
2.481451
2.481451
2.562266
2.580079
2.503577
2.384885
2.194192
1.961497
1.708177
1.442857
1.287414
1.287414
1.261351
1.259851
1.265851
1.300727
1.453357
1.702927
1.945559
2.144503
2.269757
2.269757
2.315883
2.287382
2.19363
2.006124
1.805118
1.573548
1.354166
1.269039
1.269039
1.259101
1.258351
1.261351
1.283477
1.40273
1.637112
1.881807
2.112064
2.211255
2.211255
2.284007
2.268819
2.159503
1.995998
1.797617
1.577861
1.342166
1.267914
1.259101
1.259101
1.258163
1.260601
1.276164
1.384355
1.618549
1.863432
2.082063
2.208067
2.271444
2.271444
2.259631
2.172066
2.004624
1.803992
1.578611
1.345729
1.268851
1.259101
1.258538
1.258538
1.260038
1.274664
1.386042
1.63205
1.865682
2.082251
2.20938
2.287195
2.262257
2.262257
2.183317
2.013999
1.822181
1.595861
1.369542
1.270726
1.259288
1.258351
1.258351
1.260226
1.272601
1.364292
1.585361
1.844494
2.071376
2.201505
2.271257
2.257944
2.257944
2.184254
2.012499
1.822556
1.609174
1.38323
1.273726
1.258913
1.258538
1.260038
1.260038
1.274101
1.357916
1.559298
1.836431
2.033312
2.20113
2.267132
2.269944
2.192879
2.192879
2.03575
1.858182
1.632425
1.388667
1.277101
1.259101
1.258163
1.258726
1.266414
1.266414
1.325665
1.520671
1.768366
1.998061
2.145628
2.221568
2.215943
2.157816
2.157816
2.003874
1.806993
1.588173
1.357354
1.268851
1.258538
1.257788
1.257976
1.261539
1.261539
1.286664
1.433106
1.688864
1.912746
2.068001
2.139628
2.157629
2.088251
1.945747
1.945747
1.762741
1.533797
1.319103
1.266039
1.257976
1.257413
1.257976
1.260038
1.275414
1.275414
1.396543
1.6403
1.868307
2.056188
2.133065
2.150878
2.096127
1.955872
1.760491
1.760491
1.555547
1.343666
1.268101
1.258163
1.257601
1.257788
1.260226
1.282352
1.282352
1.419981
1.668613
1.902058
2.086189
2.185567
2.207317
2.160628
2.035937
1.859869
1.859869
1.653238
1.422981
1.285352
1.260413
1.258351
1.258726
1.265101
1.320415
1.503796
1.503796
1.769491
2.019249
2.191567
2.285695
2.317758
2.274819
2.157816
1.968998
1.761616
1.761616
1.54261
1.352854
1.266039
1.260788
1.260601
1.276351
1.358667
1.55536
1.812805
1.812805
2.048687
2.220068
2.332009
2.368947
2.315696
2.195879
2.023562
1.814493
1.590424
1.590424
1.37873
1.272976
1.262664
1.262101
1.278789
1.369542
1.560048
1.812993
1.812993
2.039687
2.233381
2.335384
2.363135
2.331446
2.223255
2.0395
1.834931
1.597736
1.597736
1.386042
1.277851
1.263039
1.261726
1.274851
1.356604
1.529672
1.783179
2.026187
2.026187
2.318133
2.353947
2.318696
2.215005
2.04625
1.837931
1.606174
1.386042
1.277851
1.262101
1.262101
1.260601
1.271101
1.327916
1.500421
1.752616
1.983248
2.191379
2.29432
2.29432
2.332009
2.299757
2.201317
2.028624
1.830431
1.607112
1.373104
1.274476
1.260788
1.260788
1.259851
1.268101
1.311415
1.468545
1.704802
1.939184
2.155566
2.263944
2.324508
2.324508
2.283445
2.197567
2.025249
1.827243
1.610674
1.38398
1.275601
1.260226
1.259476
1.259476
1.264164
1.300352
1.457482
1.683801
1.930559
2.141878
2.251569
2.302008
2.281757
2.281757
2.199817
2.016812
1.837556
1.631675
1.38323
1.275039
1.260976
1.259663
1.259663
1.264726
1.296227
1.434606
1.665238
1.899245
2.13569
2.262632
2.323946
2.300695
2.300695
2.217818
2.051312
1.858557
1.652113
1.417543
1.283852
1.261539
1.259476
1.263601
1.263601
1.29529
1.432356
1.659238
1.899808
2.12894
2.258131
2.327696
2.301633
2.22063
2.22063
2.075313
1.860057
1.6508
1.431606
1.291164
1.261351
1.259851
1.263789
1.283102
1.283102
1.39898
1.618362
1.853119
2.080939
2.22213
2.290195
2.29507
2.229256
2.229256
2.04775
1.870557
1.668426
1.429731
1.293227
1.261539
1.259101
1.262664
1.288914
1.288914
1.390918
1.608612
1.861932
2.081876
2.242006
2.332196
2.316258
2.251569
2.116002
2.116002
1.916683
1.688676
1.464232
1.305415
1.263601
1.260413
1.263226
1.286289
1.401043
1.401043
1.615549
1.861557
2.083564
2.233193
2.310446
2.320946
2.264882
2.120502
1.911996
1.911996
1.712865
1.483733
1.310103
1.263789
1.259476
1.262289
1.278977
1.38098
1.38098
1.587799
1.836431
2.060875
2.227005
2.288882
2.315883
2.248006
2.125002
1.910496
1.910496
1.712115
1.48167
1.312915
1.263414
1.259663
1.261351
1.275789
1.362229
1.56736
1.56736
1.823493
2.036875
2.218193
2.29057
2.31232
2.254569
2.12294
1.941434
1.728803
1.728803
1.490858
1.314415
1.263789
1.259288
1.260226
1.274289
1.351354
1.541109
1.791055
1.791055
2.030312
2.201692
2.290195
2.300695
2.275007
2.142815
1.960372
1.754304
1.754304
1.521421
1.328291
1.264914
1.259288
1.260413
1.271851
1.362229
1.551985
1.79668
1.79668
1.997123
2.14544
2.183879
2.156316
2.030874
1.886308
1.657738
1.401793
1.267726
1.267726
1.258913
1.257788
1.257788
1.257788
1.257601
1.266976
1.55461
1.918371
2.143003
2.143003
2.28307
2.352072
2.417324
2.485576
2.429699
2.407948
2.327508
2.125752
1.899433
1.899433
1.680051
1.596611
1.56586
1.631112
1.764054
1.909746
2.134565
2.326759
2.326759
2.512764
2.557203
2.559641
2.484638
2.355634
2.173566
1.941059
1.683614
1.447544
1.447544
1.285352
1.262476
1.260601
1.268476
1.321728
1.482983
1.703864
1.937497
2.138878
2.138878
2.252881
2.271819
2.259069
2.149566
1.977623
1.768179
1.55011
1.339166
1.270164
1.270164
1.260038
1.258913
1.261913
1.295477
1.419981
1.650238
1.890058
2.088439
2.20563
2.20563
2.258694
2.232443
2.120127
1.948372
1.761429
1.516921
1.330916
1.268851
1.259101
1.259101
1.258538
1.261913
1.283664
1.405168
1.636362
1.87787
2.087126
2.198692
2.198692
2.249506
2.221193
2.151441
1.969185
1.776242
1.54861
1.341603
1.268289
1.260413
1.260413
1.258913
1.262289
1.281789
1.394855
1.635425
1.864744
2.077188
2.186504
2.253256
2.253256
2.228881
2.137378
1.968248
1.793492
1.565298
1.353979
1.271851
1.259476
1.258538
1.258538
1.261726
1.279164
1.382667
1.604674
1.848806
2.076438
2.20413
2.247444
2.231881
2.231881
2.146565
1.999749
1.802868
1.591736
1.359416
1.269414
1.259288
1.258163
1.258163
1.260413
1.275039
1.369917
1.559485
1.814493
2.040625
2.161753
2.232443
2.226068
2.226068
2.14544
1.991123
1.795555
1.567548
1.352291
1.272414
1.259101
1.258163
1.259288
1.259288
1.266226
1.328103
1.534172
1.753741
1.971623
2.112627
2.192879
2.177691
2.092939
2.092939
1.948372
1.752616
1.535672
1.322665
1.266039
1.258538
1.257788
1.257976
1.262101
1.262101
1.287414
1.431606
1.687927
1.88387
2.041562
2.105877
2.104564
2.041375
2.041375
1.890808
1.691677
1.483733
1.298665
1.262101
1.257788
1.257413
1.257976
1.259663
1.259663
1.274664
1.38023
1.618174
1.857244
2.013811
2.095189
2.098564
2.043625
1.89212
1.89212
1.71099
1.503608
1.312728
1.264726
1.258351
1.257601
1.258163
1.260976
1.281039
1.281039
1.403293
1.662801
1.882183
2.059
2.141128
2.175816
2.109064
1.986436
1.79743
1.79743
1.592486
1.37798
1.279539
1.259663
1.258351
1.258726
1.264914
1.32154
1.506608
1.506608
1.750178
1.996186
2.169629
2.258881
2.28907
2.240318
2.103439
1.922684
1.922684
1.727678
1.496858
1.322103
1.265851
1.261539
1.261163
1.279352
1.373667
1.564173
1.564173
1.80793
2.04475
2.224568
2.316633
2.332759
2.28307
2.160441
1.984186
1.787117
1.787117
1.55386
1.349854
1.270164
1.261163
1.263039
1.281789
1.368042
1.574111
1.809055
1.809055
2.041375
2.243131
2.311383
2.348322
2.31532
2.179191
2.004249
1.797805
1.562298
1.562298
1.368979
1.273539
1.261913
1.261539
1.278789
1.373854
1.55011
1.79818
1.79818
2.025812
2.227193
2.294695
2.349259
2.30707
2.187254
2.021874
1.822368
1.584048
1.584048
1.378917
1.278227
1.262851
1.262101
1.273351
1.347229
1.529859
1.758804
1.994123
1.994123
2.183879
2.281007
2.327134
2.287195
2.190442
2.017749
1.821618
1.590424
1.374042
1.374042
1.274664
1.262664
1.260788
1.269226
1.320603
1.495921
1.740616
1.975748
2.173754
2.173754
2.277257
2.321696
2.284195
2.175816
2.028624
1.818993
1.589486
1.373479
1.373479
1.274664
1.261539
1.260976
1.268289
1.317603
1.476608
1.704052
1.937872
2.151441
2.151441
2.266007
2.306508
2.282132
2.178066
2.022999
1.81768
1.593986
1.379105
1.274851
1.274851
1.261539
1.259663
1.265851
1.303352
1.458045
1.684739
1.922496
2.12894
2.248756
2.248756
2.304633
2.289445
2.197192
2.025062
1.826868
1.612549
1.38398
1.281414
1.261163
1.261163
1.260413
1.263789
1.296414
1.429544
1.665613
1.913683
2.124253
2.240693
2.294508
2.294508
2.284945
2.200942
2.037812
1.838869
1.630737
1.407605
1.286289
1.262664
1.262664
1.259851
1.263601
1.288727
1.419043
1.645175
1.894183
2.11619
2.242193
2.309508
2.309508
2.27632
2.197567
2.054125
1.853119
1.6493
1.422606
1.285164
1.261351
1.260038
1.260038
1.263976
1.286664
1.415668
1.639363
1.877682
2.074188
2.241068
2.312508
2.299757
2.299757
2.233193
2.068751
1.875245
1.678364
1.439481
1.289852
1.261163
1.259101
1.262289
1.262289
1.280477
1.396918
1.590236
1.837181
2.039687
2.202067
2.270319
2.264694
2.264694
2.189879
2.044562
1.861744
1.65155
1.430294
1.289289
1.262101
1.259851
1.260601
1.260601
1.272976
1.358479
1.572048
1.827243
2.044562
2.189692
2.269569
2.281569
2.225318
2.225318
2.078876
1.89812
1.697677
1.459545
1.302227
1.263976
1.260038
1.262101
1.279164
1.279164
1.374979
1.587799
1.836619
2.043625
2.210692
2.285132
2.29732
2.108127
1.921184
1.716615
1.716615
1.479045
1.304477
1.263976
1.259476
1.261539
1.273164
1.359792
1.56586
1.56586
1.804555
2.030499
2.212005
2.270882
2.296195
2.254756
2.101377
1.919871
1.728615
1.728615
1.494421
1.320603
1.265289
1.259851
1.260601
1.275039
1.353791
1.541672
1.794617
1.794617
2.014187
2.189504
2.275007
2.297883
2.233006
2.127065
1.936372
1.743053
1.494983
1.494983
1.327353
1.264914
1.260413
1.259851
1.271289
1.344604
1.526859
1.767617
2.017374
2.017374
2.192317
2.281945
2.308196
2.256444
2.139628
1.958872
1.761616
1.539797
1.539797
1.344041
1.268476
1.261913
1.261726
1.272601
1.336541
1.501358
1.755616
1.979123
1.979123
2.187254
2.28607
2.330508
2.293383
2.159503
1.954372
1.717177
1.431419
1.274476
1.274476
1.258163
1.257601
1.257601
1.257788
1.258351
1.261163
1.315915
1.531359
1.704802
1.704802
1.839056
2.089564
2.317758
2.281382
2.085626
1.857244
1.609174
1.445294
1.335041
1.335041
1.334291
1.441919
1.669738
1.819368
2.000686
2.189129
2.414699
2.560766
2.560766
2.614392
2.627705
2.577641
2.520639
2.325258
2.098939
1.856682
1.606174
1.378355
1.378355
1.291164
1.280477
1.30354
1.410793
1.587048
1.783554
1.997498
2.176941
2.272569
2.272569
2.305195
2.285507
2.191754
2.015687
1.79218
1.570173
1.364854
1.270351
1.260788
1.260788
1.259101
1.263789
1.283664
1.414731
1.655301
1.884433
2.087501
2.198505
2.251944
2.251944
2.226255
2.13944
1.983811
1.774179
1.560798
1.345353
1.268101
1.259476
1.259476
1.259101
1.260976
1.280102
1.39223
1.622862
1.863619
2.050375
2.194942
2.257381
2.257381
2.241068
2.148066
1.98231
1.803805
1.580486
1.359041
1.270351
1.259476
1.258538
1.258538
1.262101
1.275601
1.374417
1.614612
1.850494
2.03875
2.181629
2.261507
2.229631
2.229631
2.160441
1.994311
1.796492
1.596611
1.373104
1.273726
1.260038
1.258726
1.260226
1.260226
1.277664
1.370292
1.589674
1.827993
2.051125
2.186879
2.254381
2.249131
2.249131
2.180692
2.024499
1.827243
1.615549
1.395605
1.279539
1.260788
1.258538
1.260601
1.260601
1.275226
1.358104
1.577111
1.837744
2.04175
2.20038
2.269757
2.263194
2.179566
2.179566
2.022249
1.836806
1.619299
1.37873
1.277476
1.259663
1.258913
1.260038
1.268289
1.268289
1.330353
1.537734
1.764804
1.987561
2.14694
2.223068
2.219318
2.14394
2.025062
2.025062
1.815618
1.601674
1.371417
1.272226
1.258726
1.257976
1.258538
1.263039
1.29754
1.29754
1.47117
1.71924
1.934684
2.098752
2.169254
2.166816
2.099127
1.95906
1.95906
1.770804
1.565298
1.338978
1.267539
1.257976
1.257601
1.257788
1.259663
1.273914
1.273914
1.39673
1.6538
1.866994
2.027312
2.112627
2.125565
2.070813
1.938997
1.749053
1.749053
1.546922
1.345541
1.268476
1.257976
1.257788
1.257788
1.260226
1.277851
1.407793
1.407793
1.611987
1.856307
2.019062
2.111502
2.129315
2.086001
1.970685
1.803243
1.803243
1.623425
1.383417
1.275414
1.259288
1.257788
1.257976
1.261913
1.283289
1.414543
1.414543
1.6478
1.863619
2.065001
2.166441
2.205255
2.184817
2.079626
1.918934
1.72524
1.72524
1.516359
1.321915
1.266789
1.260038
1.260226
1.268476
1.328291
1.506608
1.726365
1.726365
1.969748
2.183129
2.284757
2.320571
2.293195
2.200567
2.04775
1.832681
1.610674
1.610674
1.394293
1.278977
1.263226
1.263039
1.278227
1.346854
1.513171
1.756929
1.988873
1.988873
2.194942
2.311383
2.353759
2.331071
2.236193
2.090689
1.907871
1.664488
1.664488
1.428419
1.283289
1.264726
1.262851
1.275226
1.347979
1.499671
1.742491
1.986436
1.986436
2.193067
2.299008
2.349447
2.319258
2.233568
2.0545
1.868119
1.646863
1.423543
1.423543
1.285727
1.265101
1.262101
1.270726
1.341228
1.491421
1.71999
1.962435
2.177691
2.177691
2.284007
2.341572
2.326009
2.259631
2.104189
1.922121
1.671426
1.452982
1.291164
1.291164
1.265289
1.261726
1.271851
1.32079
1.473232
1.701052
1.946872
2.169066
2.169066
2.287757
2.356385
2.341197
2.248194
2.095939
1.89062
1.671239
1.46817
1.29454
1.29454
1.262851
1.260976
1.267726
1.31854
1.439294
1.658863
1.911433
2.126878
2.257944
2.257944
2.329009
2.314571
2.235068
2.070438
1.908996
1.683239
1.48167
1.314415
1.264164
1.264164
1.261163
1.265476
1.294352
1.425043
1.644988
1.871495
2.102877
2.224943
2.296945
2.296945
2.291882
2.233006
2.075688
1.878432
1.671988
1.442482
1.290602
1.261913
1.261913
1.259288
1.261913
1.280289
1.372167
1.603924
1.845994
2.056563
2.232631
2.30482
2.30482
2.29657
2.223255
2.065938
1.890245
1.683051
1.447357
1.291727
1.262101
1.258913
1.258913
1.263039
1.282727
1.37648
1.585923
1.839619
2.04775
2.193817
2.29057
2.29357
2.29357
2.22438
2.086376
1.915183
1.690739
1.437794
1.295665
1.262476
1.258726
1.262101
1.262101
1.274101
1.358479
1.560798
1.812618
2.03875
2.202067
2.275757
2.276507
2.276507
2.278944
2.079626
1.907683
1.721678
1.490296
1.311978
1.263039
1.259101
1.259851
1.259851
1.269789
1.347041
1.542235
1.768554
1.97181
2.156316
2.221568
2.237506
2.174316
2.174316
2.072313
1.940309
1.705927
1.471732
1.298102
1.261539
1.259288
1.259288
1.266601
1.266601
1.293977
1.446982
1.70724
1.933746
2.13194
2.21763
2.235631
2.181817
2.044937
2.044937
1.857807
1.662051
1.441731
1.285914
1.260226
1.258538
1.258913
1.264351
1.29679
1.29679
1.452044
1.708177
1.925496
2.114127
2.224755
2.230381
2.197005
2.088251
2.088251
1.921184
1.727678
1.493483
1.301102
1.261351
1.259288
1.259288
1.265851
1.31029
1.31029
1.474732
1.732365
1.929996
2.093689
2.216318
2.236381
2.189317
2.072876
1.917434
1.917434
1.710802
1.460107
1.30729
1.263789
1.259288
1.258538
1.263414
1.289664
1.440606
1.440606
1.672551
1.911058
2.102689
2.20638
2.264132
2.227005
2.116002
1.943309
1.732365
1.732365
1.504921
1.334666
1.265289
1.259663
1.259101
1.265851
1.30579
1.458982
1.458982
1.691114
1.898308
2.106627
2.217068
2.255881
2.233568
2.138878
1.97631
1.782242
1.782242
1.559298
1.353041
1.269789
1.259851
1.259476
1.266976
1.307665
1.46367
1.670864
1.670864
1.88612
2.102689
2.225318
2.257569
2.243881
2.145815
1.991873
1.797617
1.575423
1.575423
1.373854
1.271851
1.259663
1.259288
1.264164
1.293227
1.426919
1.667488
1.899808
1.899808
2.120127
2.239756
2.28382
2.262632
2.192317
2.051312
1.827243
1.610112
1.610112
1.38473
1.275789
1.260788
1.259476
1.264351
1.293414
1.432919
1.665426
1.895683
1.895683
2.112814
2.244256
2.294132
2.251944
2.216318
2.038
1.839244
1.630737
1.407418
1.407418
1.281977
1.261913
1.260601
1.266789
1.315165
1.443982
1.64855
1.88537
2.122002
2.122002
2.253069
2.328634
2.319258
2.253069
2.082814
1.849181
1.605049
1.335416
1.261726
1.261726
1.257788
1.257601
1.257788
1.257788
1.259288
1.270164
1.37798
1.567923
1.567923
1.677801
1.805305
1.966185
2.20713
1.964497
1.71624
1.463482
1.337853
1.300915
1.319853
1.319853
1.504921
1.721115
1.907496
2.123502
2.351134
2.540328
2.629768
2.654144
2.651143
2.651143
2.573328
2.448637
2.254756
1.995248
1.783367
1.492546
1.327353
1.291164
1.291164
1.31329
1.395418
1.53811
1.72974
1.949497
2.131565
2.267882
2.331821
2.342134
2.342134
2.266944
2.11919
1.940684
1.710802
1.47042
1.297165
1.262851
1.259851
1.262101
1.262101
1.282727
1.376667
1.583298
1.828368
2.04625
2.182754
2.283445
2.300883
2.238068
2.238068
2.100814
1.909183
1.70499
1.476983
1.294727
1.261351
1.259101
1.259663
1.270914
1.270914
1.356791
1.537734
1.792367
2.006311
2.150503
2.264882
2.252694
2.215943
2.215943
2.090501
1.904871
1.701239
1.46817
1.306352
1.261913
1.259101
1.260226
1.270726
1.270726
1.340853
1.531172
1.751116
1.981748
2.154441
2.236193
2.273694
2.228693
2.079813
2.079813
1.915746
1.716802
1.48617
1.30579
1.262101
1.258913
1.259476
1.268289
1.321728
1.321728
1.495358
1.745678
1.968248
2.158378
2.234131
2.28232
2.228693
2.107752
1.940872
1.940872
1.744741
1.515609
1.324353
1.264539
1.259476
1.259851
1.269414
1.321728
1.321728
1.502296
1.765366
1.970498
2.185567
2.255506
2.30932
2.253444
2.142066
1.952872
1.952872
1.765179
1.528922
1.325478
1.264539
1.259663
1.259476
1.266601
1.30804
1.466482
1.466482
1.715677
1.96581
2.152378
2.253069
2.285695
2.239756
2.13869
1.954372
1.755241
1.755241
1.524047
1.335228
1.263789
1.259288
1.258538
1.263226
1.281789
1.412106
1.652113
1.652113
1.882745
2.075313
2.200005
2.22663
2.202255
2.093314
1.928309
1.743803
1.743803
1.497796
1.308602
1.262851
1.258538
1.257788
1.259663
1.270726
1.347416
1.566048
1.566048
1.783179
2.000311
2.107752
2.158566
2.12294
2.028999
1.841494
1.649675
1.432919
1.432919
1.289852
1.260038
1.257788
1.257601
1.258538
1.265101
1.316853
1.517109
1.765366
1.765366
1.967498
2.085626
2.144878
2.130627
2.046062
1.88612
1.696552
1.446232
1.298852
1.298852
1.261913
1.257976
1.257788
1.259288
1.266601
1.330728
1.550672
1.79818
1.79818
2.027687
2.153503
2.210692
2.21538
2.12219
1.95531
1.801742
1.578986
1.361104
1.361104
1.269039
1.260038
1.258726
1.263226
1.283289
1.40198
1.642363
1.883495
2.10869
2.10869
2.245194
2.307633
2.29807
2.216693
2.06725
1.872057
1.64405
1.435544
1.283477
1.283477
1.261351
1.260038
1.265101
1.29754
1.430294
1.660176
1.899621
2.107939
2.248756
2.248756
2.316633
2.315696
2.245006
2.088814
1.907871
1.672926
1.458607
1.289852
1.289852
1.262289
1.260038
1.265476
1.29604
1.431419
1.661676
1.898495
2.120877
2.260756
2.260756
2.343634
2.327321
2.259069
2.113002
1.926809
1.72449
1.486733
1.30579
1.264351
1.264351
1.261163
1.264914
1.303352
1.445482
1.661676
1.888183
2.119002
2.275007
2.345696
2.345696
2.355447
2.282695
2.176754
1.962247
1.775679
1.528172
1.330166
1.267539
1.262101
1.262101
1.266601
1.299977
1.424668
1.623987
1.866245
2.101752
2.271444
2.345509
2.344197
2.344197
2.285132
2.154628
1.980435
1.769866
1.535297
1.339353
1.267539
1.260976
1.260976
1.263414
1.286664
1.39448
1.617424
1.844681
2.067813
2.250818
2.329571
2.346634
2.346634
2.265069
2.157254
1.971248
1.781492
1.532297
1.341603
1.267351
1.260413
1.264351
1.264351
1.283102
1.38998
1.593986
1.841869
2.074376
2.234506
2.326759
2.348134
2.28607
2.28607
2.165691
1.982686
1.788242
1.54411
1.337666
1.269226
1.261726
1.263039
1.263039
1.281789
1.38623
1.576548
1.807743
2.052625
2.233756
2.29882
2.345321
2.28757
2.28757
2.158378
1.972373
1.773054
1.53811
1.344791
1.266226
1.260601
1.260976
1.275976
1.275976
1.359792
1.545422
1.770617
2.013436
2.192879
2.280445
2.314008
2.263569
2.151628
2.151628
1.977435
1.770054
1.527609
1.333728
1.267164
1.260038
1.260788
1.273726
1.362229
1.362229
1.537172
1.760304
1.993748
2.167191
2.270882
2.300695
2.266569
2.14694
2.14694
1.983811
1.780179
1.55461
1.337853
1.266414
1.260038
1.259288
1.267164
1.316853
1.316853
1.480358
1.714927
1.939747
2.166066
2.270132
2.302195
2.275194
2.198505
2.042875
2.042875
1.88837
1.675926
1.465357
1.299415
1.268289
1.266976
1.293789
1.377604
1.53961
1.53961
1.756366
1.951747
2.144128
2.250631
2.266757
2.246694
2.136253
1.966747
1.763304
1.763304
1.536797
1.338791
1.268664
1.259663
1.259288
1.265101
1.299602
1.458232
1.458232
1.692802
1.947997
2.138878
2.264132
2.304633
2.302008
2.184817
2.048687
1.836619
1.836619
1.613862
1.390918
1.278602
1.261913
1.260226
1.267539
1.312728
1.461232
1.701052
1.701052
1.934872
2.147691
2.240881
2.293945
2.281945
2.187442
2.031062
1.841306
1.615549
1.615549
1.37948
1.276164
1.260226
1.258913
1.263789
1.286852
1.387917
1.612737
1.844306
1.844306
2.05825
2.182379
2.235068
2.226255
2.151066
1.987561
1.79968
1.572048
1.38398
1.38398
1.278602
1.260976
1.258913
1.262289
1.279539
1.399168
1.62605
1.864182
1.864182
2.087501
2.21688
2.262632
2.275944
2.148441
2.024312
1.835306
1.611987
1.38998
1.38998
1.276726
1.260038
1.258726
1.261539
1.278977
1.371417
1.590611
1.822556
2.053
2.053
2.185567
2.258694
2.263944
2.195692
2.040062
1.87712
1.663551
1.436481
1.291539
1.291539
1.263039
1.260413
1.263601
1.288727
1.418293
1.633362
1.873745
2.096127
2.244256
2.244256
2.333321
2.336696
2.27782
2.13569
1.944809
1.72749
1.495171
1.30954
1.30954
1.264726
1.260788
1.264914
1.293602
1.404605
1.617612
1.848806
2.081688
2.247256
2.247256
2.323196
2.328446
2.266569
2.124627
1.942559
1.72299
1.485795
1.317603
1.264351
1.264351
1.260038
1.262851
1.283664
1.397105
1.613862
1.857994
2.071376
2.21538
2.274444
2.274444
2.269569
2.183317
2.087689
1.900371
1.707052
1.463482
1.290414
1.259851
1.257976
1.257976
1.258163
1.259851
1.262851
1.289102
1.418293
1.585923
1.703115
1.759741
1.759741
1.737615
1.70499
1.541109
1.371792
1.291914
1.305415
1.312165
1.270539
1.261913
1.261913
1.262289
1.280664
1.488795
1.752803
2.100627
2.47395
2.614392
2.653956
2.653769
2.653769
2.62508
2.557203
2.378323
2.143003
1.864932
1.593799
1.401793
1.31179
1.30279
1.30279
1.355104
1.46442
1.645925
1.875807
2.075126
2.223068
2.282695
2.28757
2.19663
2.19663
2.041
1.862119
1.663926
1.426544
1.281789
1.259101
1.257788
1.257601
1.257601
1.260226
1.271476
1.362417
1.595111
1.814493
1.996186
2.092376
2.130815
2.101377
2.101377
1.966185
1.787117
1.590236
1.367667
1.269601
1.258351
1.257413
1.257601
1.258913
1.258913
1.265101
1.328103
1.547485
1.784305
1.976498
2.093689
2.14169
2.110564
1.992998
1.992998
1.821993
1.651925
1.433106
1.281602
1.259851
1.257976
1.257788
1.260601
1.275039
1.275039
1.365979
1.611424
1.844681
2.051125
2.177879
2.194004
2.162503
2.066688
1.88612
1.88612
1.699364
1.292477
1.260038
1.257976
1.257788
1.260038
1.269414
1.332416
1.577298
1.577298
1.785992
1.980435
2.089564
2.121252
2.080376
1.981561
1.815993
1.590049
1.386417
1.386417
1.272226
1.258726
1.257601
1.257601
1.257976
1.260976
1.286852
1.454857
1.686614
1.686614
1.911246
2.024874
2.077751
2.050937
1.95156
1.779804
1.591549
1.38623
1.271289
1.271289
1.259101
1.257788
1.257601
1.258163
1.260788
1.283477
1.448107
1.673676
1.892308
1.892308
2.011749
2.066313
2.050188
1.974248
1.811305
1.620799
1.407793
1.280664
1.280664
1.259663
1.257601
1.257413
1.258351
1.260601
1.280102
1.428419
1.669176
1.903933
1.903933
2.030874
2.078876
2.087126
1.989811
1.837556
1.665426
1.425418
1.281977
1.260226
1.260226
1.257976
1.257601
1.257976
1.260038
1.274289
1.410418
1.629612
1.863057
1.989623
1.989623
2.047563
2.035562
1.963185
1.806805
1.597736
1.386792
1.274664
1.259288
1.257601
1.257601
1.257601
1.257788
1.258351
1.264164
1.344979
1.554235
1.766117
1.916683
1.916683
1.995998
1.994498
1.926434
1.775304
1.575798
1.381542
1.271101
1.259288
1.257601
1.257601
1.257601
1.257788
1.258351
1.265101
1.336541
1.577861
1.780367
1.922496
2.008186
2.008186
2.016999
1.96956
1.813555
1.644425
1.449794
1.282727
1.261726
1.257601
1.257413
1.257413
1.257788
1.259663
1.274851
1.390355
1.624362
1.851619
2.027312
2.099501
2.094814
2.094814
2.037437
1.911996
1.72149
1.504546
1.31179
1.263789
1.258163
1.257413
1.257413
1.257976
1.260601
1.278414
1.413793
1.647425
1.899058
2.056938
2.094626
2.118252
2.118252
2.064626
1.908808
1.726553
1.531172
1.316853
1.263976
1.257788
1.257226
1.257788
1.257788
1.259476
1.267351
1.364104
1.591924
1.829868
1.997311
2.089189
2.115627
2.059188
2.059188
1.933934
1.748116
1.557985
1.349291
1.268289
1.257976
1.257788
1.257788
1.259476
1.259476
1.269789
1.362042
1.589861
1.821993
2.017749
2.105314
2.12144
2.080751
2.080751
1.96806
1.783742
1.595111
1.366167
1.271101
1.257976
1.257788
1.257413
1.259101
1.259101
1.267351
1.338791
1.574111
1.793492
1.98081
2.080751
2.105127
2.0515
1.922121
1.922121
1.760679
1.54861
1.326978
1.264726
1.257788
1.257601
1.257601
1.257788
1.260226
1.260226
1.277101
1.424106
1.661488
1.849181
1.933559
1.95831
1.956435
1.829493
1.639738
1.639738
1.452044
1.299227
1.261913
1.257788
1.257601
1.257413
1.257976
1.259288
1.259288
1.272976
1.40423
1.65005
1.87487
2.003311
2.041937
2.013249
1.902246
1.730303
1.730303
1.533797
1.318353
1.265101
1.258163
1.257601
1.257413
1.257976
1.260226
1.285164
1.285164
1.463295
1.696364
1.917808
2.034437
2.078688
2.049813
1.949685
1.787492
1.586486
1.586486
1.38023
1.270914
1.258726
1.257601
1.257601
1.258163
1.263226
1.29754
1.488983
1.488983
1.743053
1.956247
2.071001
2.123877
2.103627
2.013061
1.853119
1.6463
1.434794
1.434794
1.285352
1.260601
1.257976
1.257601
1.259101
1.263414
1.321165
1.528359
1.528359
1.762929
1.943497
2.068001
2.109439
2.0665
1.978748
1.814493
1.621174
1.394293
1.394293
1.270726
1.258913
1.257413
1.257601
1.257976
1.259476
1.275976
1.426731
1.668988
1.668988
1.902808
2.019624
2.083189
2.083938
2.020937
1.885182
1.678551
1.454482
1.293227
1.293227
1.260413
1.257788
1.257601
1.258351
1.261163
1.289477
1.47042
1.73574
1.956622
1.956622
2.109252
2.175629
2.175816
2.108502
1.937122
1.753366
1.531922
1.318353
1.318353
1.265101
1.257976
1.257601
1.257976
1.261539
1.286289
1.463107
1.727678
1.96506
1.96506
2.11844
2.175254
2.179941
2.106627
1.96506
1.778492
1.56436
1.339916
1.269226
1.269226
1.258351
1.257976
1.258913
1.264539
1.307665
1.518609
1.785804
2.013811
2.159503
2.159503
2.233756
2.239381
2.176566
2.027874
1.820681
1.605799
1.365417
1.269789
1.258538
1.258538
1.257976
1.258913
1.263601
1.291727
1.503608
1.762929
1.991498
2.122752
2.122752
2.198317
2.197567
2.161378
2.019624
1.843931
1.608049
1.374417
1.270726
1.258538
1.258538
1.257601
1.258163
1.262101
1.293602
1.469295
1.739678
2.014187
2.209192
2.331821
2.331821
2.391635
2.392198
2.28007
2.115064
1.901871
1.649675
1.434044
1.292664
1.276726
1.276726
1.289289
1.371604
1.511484
1.746616
2.021874
2.266007
2.466638
2.550828
2.559453
2.559453
2.502076
2.36951
2.21688
2.011749
1.749053
1.536422
1.354166
1.299602
1.307102
1.307102
1.401605
1.563048
1.766491
1.996561
2.259819
2.436637
2.526827
2.54614
2.54614
2.490826
2.350572
2.134003
1.923059
1.680051
1.488608
1.312165
1.274664
1.275039
1.275039
1.32454
1.428419
1.596236
1.79968
1.984748
2.12294
2.189129
2.182004
2.105127
2.105127
1.933559
1.70874
1.513359
1.30879
1.263976
1.265851
1.280477
1.323415
1.366542
1.366542
1.48392
1.634862
1.931497
2.205442
2.470201
2.630893
2.653769
2.653769
2.615142
2.615142
2.481263
2.202255
1.919121
1.686614
1.478295
1.365792
1.360916
1.428794
1.428794
1.559485
1.702552
1.937122
2.157629
2.340822
2.416761
2.435699
2.392573
2.274069
2.274069
2.074001
1.867932
1.619487
1.397105
1.277851
1.262289
1.261351
1.281414
1.37798
1.37798
1.586486
1.846556
2.047563
2.264694
2.342509
2.37551
2.343071
2.241068
2.046813
2.046813
1.848431
1.622112
1.40423
1.276914
1.263976
1.261351
1.275601
1.348166
1.519359
1.519359
1.741741
1.984936
2.196817
2.31232
2.360884
2.332946
2.262632
2.096314
2.096314
1.891558
1.658301
1.423731
1.284414
1.262289
1.261726
1.274664
1.357541
1.536609
1.536609
1.780367
2.007811
2.188192
2.316071
2.367822
2.324696
2.230943
2.060313
1.860619
1.860619
1.669738
1.442669
1.29679
1.266601
1.262664
1.274101
1.326041
1.480545
1.704052
1.704052
1.926809
2.132128
2.236193
2.278382
2.241631
2.144128
1.968998
1.770804
1.515046
1.515046
1.312353
1.262664
1.258351
1.257788
1.259288
1.267351
1.31554
1.499296
1.701802
1.701802
1.925496
2.04175
2.11094
2.083001
1.971623
1.805868
1.605986
1.391855
1.391855
1.272414
1.258351
1.257601
1.257413
1.257601
1.258538
1.263601
1.326041
1.511671
1.511671
1.730303
1.849931
1.923809
1.905996
1.822368
1.661488
1.48767
1.317978
1.263226
1.263226
1.257976
1.257788
1.257601
1.257788
1.257601
1.258726
1.274851
1.40648
1.593236
1.593236
1.732553
1.800805
1.79068
1.704239
1.572986
1.361667
1.270351
1.258913
1.257788
1.257788
1.257976
1.257976
1.257976
1.257601
1.258163
1.263601
1.324915
1.508109
1.508109
1.645175
1.700114
1.698802
1.653238
1.516734
1.324915
1.267539
1.258163
1.257788
1.257788
1.258163
1.257976
1.257976
1.257601
1.257976
1.264726
1.331291
1.541109
1.699177
1.699177
1.792555
1.806055
1.743803
1.612549
1.438919
1.299415
1.261913
1.257976
1.257788
1.257788
1.257788
1.257788
1.257601
1.259288
1.275226
1.423168
1.674239
1.837556
1.952497
1.952497
1.952497
1.919121
1.793492
1.610674
1.433856
1.282539
1.260601
1.257601
1.257601
1.257601
1.259288
1.273539
1.399168
1.631112
1.918371
2.067438
2.137565
2.158003
2.110002
2.110002
2.020749
1.858182
1.627362
1.383605
1.284789
1.260226
1.258913
1.258351
1.265289
1.265289
1.315728
1.48617
1.753553
1.979498
2.187254
2.275382
2.298258
2.237693
2.237693
2.123127
1.933934
1.726178
1.516359
1.345541
1.266226
1.260601
1.261913
1.285164
1.285164
1.39148
1.595111
1.824056
2.062188
2.262632
2.333321
2.320571
2.294508
2.178066
2.178066
2.023937
1.831368
1.589674
1.38623
1.273726
1.262664
1.262664
1.289477
1.375167
1.375167
1.565673
1.846369
2.047188
2.252319
2.338009
2.36426
2.313821
2.206755
2.035187
2.035187
1.839806
1.619862
1.395793
1.282352
1.264539
1.265476
1.284227
1.379292
1.379292
1.548797
1.803055
2.039687
2.209192
2.310258
2.347572
2.319446
2.214443
2.0365
2.0365
1.845619
1.595486
1.372354
1.273726
1.261913
1.262289
1.274476
1.324915
1.526109
1.526109
1.754304
1.990936
2.194942
2.314383
2.344572
2.326946
2.214068
2.021499
1.847306
1.847306
1.615924
1.40573
1.277851
1.261913
1.261163
1.272414
1.338416
1.514859
1.738741
1.738741
1.973498
2.182004
2.287195
2.332009
2.289257
2.206942
2.059938
1.833618
1.833618
1.586486
1.390167
1.280664
1.263601
1.260788
1.267914
1.311603
1.452794
1.715302
1.715302
1.942372
2.137565
2.241818
2.324321
2.307258
2.21463
2.070063
1.869244
1.657926
1.657926
1.421668
1.288352
1.264164
1.261163
1.270539
1.329041
1.48317
1.72824
1.957935
1.957935
2.173566
2.28232
2.332009
2.326571
2.229256
2.059563
1.875432
1.689052
1.448482
1.448482
1.288352
1.262289
1.261351
1.269601
1.321353
1.471545
1.715115
1.934684
1.934684
2.163441
2.288507
2.345884
2.334259
2.247819
2.082063
1.902433
1.667488
1.462545
1.462545
1.293602
1.263226
1.261163
1.266414
1.30729
1.446232
1.671426
1.902058
2.127065
2.127065
2.275382
2.342322
2.350009
2.278944
2.095564
1.88237
1.655113
1.423918
1.286852
1.286852
1.261163
1.259663
1.263789
1.284977
1.426169
1.612174
1.851057
2.067813
2.22213
2.22213
2.272007
2.267319
2.205442
2.0605
1.87937
1.680801
1.438169
1.292852
1.292852
1.261726
1.259476
1.263039
1.278602
1.384355
1.596799
1.824993
2.035562
2.184442
2.184442
2.29432
2.317571
2.265069
2.084126
1.888183
1.698989
1.487108
1.31854
1.264351
1.264351
1.260601
1.263226
1.288727
1.401418
1.607862
1.850681
2.093876
2.229818
2.292633
2.292633
2.310258
2.254569
2.121815
1.940684
1.72449
1.512609
1.326603
1.264164
1.259663
1.259663
1.261351
1.275789
1.394855
1.574486
1.828743
2.062563
2.227193
2.319446
2.319446
2.325071
2.239193
2.126503
1.944434
1.701052
1.503233
1.320228
1.263039
1.260226
1.260226
1.261913
1.280664
1.38923
1.586673
1.822556
2.036312
2.183129
2.301633
2.331821
2.331821
2.268257
2.14169
1.967123
1.740803
1.47492
1.299227
1.263226
1.260226
1.262289
1.262289
1.278977
1.348166
1.538672
1.831743
2.022624
2.141315
2.273882
2.30557
2.271257
2.271257
2.145628
1.984373
1.780367
1.497796
1.346854
1.267539
1.260038
1.260226
1.269601
1.269601
1.345353
1.56136
1.810368
1.991873
2.154628
2.233756
2.21163
2.107377
2.107377
1.936372
1.704052
1.476233
1.285352
1.259288
1.257601
1.257788
1.257788
1.257601
1.257601
1.258538
1.29829
1.709865
2.077751
2.284945
2.313071
2.31532
2.30257
2.30707
2.30707
2.203755
2.125752
2.004436
1.820681
1.624925
1.520109
1.526297
1.608799
1.752616
1.752616
1.890995
2.047375
2.302945
2.4747
2.543703
2.553828
2.4717
2.346259
2.177129
2.177129
1.96806
1.711927
1.454107
1.29529
1.263414
1.263601
1.277101
1.328291
1.328291
1.489733
1.71699
1.929996
2.157816
2.257569
2.263757
2.207505
2.106627
1.983998
1.983998
1.816743
1.593236
1.354541
1.270164
1.260226
1.259101
1.262664
1.285914
1.413606
